Radius (km), Mean (m/s), NE (m/s), SE (m/s), SW (m/s), NW (m/s)
        0.0,       0.00,     0.00,     0.00,     0.00,     0.00
        1.0,       2.36,     1.95,     2.36,     2.77,     2.35
        2.0,       4.85,     4.39,     4.89,     5.28,     4.85
        3.0,       7.51,     7.16,     7.59,     7.81,     7.47
        4.0,      10.43,    10.37,    10.57,    10.46,    10.31
        5.0,      13.72,    14.14,    13.93,    13.34,    13.46
        6.0,      17.45,    18.55,    17.73,    16.48,    17.04
        7.0,      21.60,    23.57,    21.92,    19.88,    21.04
        8.0,      26.09,    29.09,    26.42,    23.44,    25.41
        9.0,      30.74,    34.87,    31.04,    27.04,    29.99
       10.0,      35.31,    40.60,    35.56,    30.50,    34.57
       11.0,      39.56,    45.95,    39.73,    33.68,    38.89
       12.0,      43.27,    50.62,    43.34,    36.40,    42.72
       13.0,      46.25,    54.35,    46.23,    38.58,    45.85
       14.0,      48.41,    57.02,    48.31,    40.15,    48.17
       15.0,      49.73,    58.58,    49.58,    41.13,    49.62
       16.0,      50.26,    59.12,    50.11,    41.57,    50.25
       17.0,      50.15,    58.81,    50.02,    41.57,    50.18
       18.0,      49.55,    57.86,    49.50,    41.26,    49.57
       19.0,      48.64,    56.51,    48.69,    40.76,    48.61
       20.0,      47.59,    54.97,    47.76,    40.16,    47.45
       21.0,      46.50,    53.40,    46.80,    39.55,    46.25
       22.0,      45.45,    51.89,    45.86,    38.95,    45.08
       23.0,      44.45,    50.45,    44.98,    38.39,    43.97
       24.0,      43.50,    49.10,    44.12,    37.84,    42.93
       25.0,      42.58,    47.79,    43.30,    37.31,    41.93
       26.0,      41.70,    46.54,    42.50,    36.79,    40.97
       27.0,      40.85,    45.33,    41.72,    36.28,    40.04
       28.0,      40.02,    44.17,    40.97,    35.79,    39.15
       29.0,      39.22,    43.05,    40.24,    35.31,    38.29
       30.0,      38.45,    41.98,    39.53,    34.84,    37.46
       31.0,      37.71,    40.94,    38.84,    34.39,    36.66
       32.0,      36.99,    39.94,    38.17,    33.94,    35.89
       33.0,      36.29,    38.98,    37.52,    33.51,    35.15
       34.0,      35.62,    38.06,    36.89,    33.09,    34.43
       35.0,      34.97,    37.17,    36.28,    32.68,    33.74
       36.0,      34.34,    36.31,    35.68,    32.28,    33.08
       37.0,      33.73,    35.49,    35.11,    31.88,    32.44
       38.0,      33.14,    34.70,    34.54,    31.50,    31.82
       39.0,      32.57,    33.93,    34.00,    31.13,    31.22
       40.0,      32.02,    33.20,    33.47,    30.77,    30.65
       41.0,      31.49,    32.49,    32.96,    30.42,    30.10
       42.0,      30.98,    31.81,    32.46,    30.07,    29.56
       43.0,      30.48,    31.15,    31.98,    29.74,    29.05
       44.0,      30.00,    30.52,    31.51,    29.41,    28.55
       45.0,      29.53,    29.91,    31.05,    29.09,    28.07
       46.0,      29.08,    29.32,    30.61,    28.78,    27.61
       47.0,      28.64,    28.76,    30.18,    28.48,    27.16
       48.0,      28.22,    28.22,    29.76,    28.18,    26.73
       49.0,      27.81,    27.69,    29.35,    27.89,    26.32
       50.0,      27.42,    27.19,    28.96,    27.61,    25.91
       51.0,      27.04,    26.71,    28.58,    27.34,    25.53
       52.0,      26.67,    26.24,    28.20,    27.07,    25.16
       53.0,      26.31,    25.79,    27.84,    26.81,    24.80
       54.0,      25.96,    25.35,    27.49,    26.56,    24.45
       55.0,      25.63,    24.94,    27.15,    26.31,    24.11
       56.0,      25.30,    24.53,    26.82,    26.07,    23.79
       57.0,      24.99,    24.15,    26.50,    25.83,    23.48
       58.0,      24.68,    23.77,    26.18,    25.60,    23.18
       59.0,      24.39,    23.41,    25.88,    25.38,    22.88
       60.0,      24.10,    23.07,    25.59,    25.16,    22.60
       61.0,      23.83,    22.73,    25.30,    24.94,    22.33
       62.0,      23.56,    22.41,    25.02,    24.74,    22.07
       63.0,      23.30,    22.10,    24.75,    24.53,    21.82
       64.0,      23.05,    21.80,    24.49,    24.33,    21.57
       65.0,      22.80,    21.51,    24.23,    24.14,    21.33
       66.0,      22.57,    21.24,    23.98,    23.95,    21.11
       67.0,      22.34,    20.97,    23.74,    23.77,    20.88
       68.0,      22.12,    20.71,    23.50,    23.59,    20.67
       69.0,      21.90,    20.46,    23.28,    23.41,    20.47
       70.0,      21.69,    20.22,    23.05,    23.24,    20.27
       71.0,      21.49,    19.99,    22.84,    23.07,    20.07
       72.0,      21.30,    19.77,    22.63,    22.91,    19.89
       73.0,      21.11,    19.55,    22.42,    22.75,    19.71
       74.0,      20.92,    19.34,    22.23,    22.59,    19.53
       75.0,      20.74,    19.14,    22.03,    22.44,    19.36
       76.0,      20.57,    18.95,    21.84,    22.29,    19.20
       77.0,      20.40,    18.76,    21.66,    22.15,    19.04
       78.0,      20.24,    18.58,    21.48,    22.00,    18.89
       79.0,      20.08,    18.41,    21.31,    21.87,    18.74
       80.0,      19.93,    18.24,    21.14,    21.73,    18.60
       81.0,      19.78,    18.08,    20.98,    21.60,    18.46
       82.0,      19.63,    17.93,    20.82,    21.47,    18.32
       83.0,      19.49,    17.77,    20.67,    21.34,    18.19
       84.0,      19.36,    17.63,    20.52,    21.22,    18.07
       85.0,      19.22,    17.49,    20.37,    21.10,    17.94
       86.0,      19.10,    17.35,    20.23,    20.98,    17.82
       87.0,      18.97,    17.22,    20.09,    20.87,    17.71
       88.0,      18.85,    17.10,    19.95,    20.75,    17.60
       89.0,      18.73,    16.97,    19.82,    20.64,    17.49
       90.0,      18.62,    16.86,    19.69,    20.54,    17.38
       91.0,      18.51,    16.74,    19.57,    20.43,    17.28
       92.0,      18.40,    16.63,    19.45,    20.33,    17.18
       93.0,      18.29,    16.52,    19.33,    20.23,    17.09
       94.0,      18.19,    16.42,    19.21,    20.13,    16.99
       95.0,      18.09,    16.32,    19.10,    20.03,    16.90
       96.0,      17.99,    16.22,    18.99,    19.94,    16.81
       97.0,      17.90,    16.13,    18.88,    19.85,    16.73
       98.0,      17.81,    16.04,    18.78,    19.76,    16.65
       99.0,      17.72,    15.95,    18.68,    19.67,    16.56
      100.0,      17.63,    15.87,    18.58,    19.58,    16.49
      101.0,      17.55,    15.79,    18.49,    19.50,    16.41
      102.0,      17.46,    15.71,    18.39,    19.42,    16.33
      103.0,      17.38,    15.63,    18.30,    19.34,    16.26
      104.0,      17.30,    15.56,    18.21,    19.26,    16.19
      105.0,      17.23,    15.48,    18.12,    19.18,    16.12
      106.0,      17.15,    15.41,    18.04,    19.10,    16.06
      107.0,      17.08,    15.35,    17.96,    19.03,    15.99
      108.0,      17.01,    15.28,    17.88,    18.96,    15.93
      109.0,      16.94,    15.22,    17.80,    18.88,    15.86
      110.0,      16.87,    15.16,    17.72,    18.81,    15.80
      111.0,      16.81,    15.10,    17.65,    18.75,    15.74
      112.0,      16.74,    15.04,    17.57,    18.68,    15.69
      113.0,      16.68,    14.98,    17.50,    18.61,    15.63
      114.0,      16.62,    14.93,    17.43,    18.55,    15.58
      115.0,      16.56,    14.87,    17.36,    18.49,    15.52
      116.0,      16.50,    14.82,    17.30,    18.42,    15.47
      117.0,      16.45,    14.77,    17.23,    18.36,    15.42
      118.0,      16.39,    14.72,    17.17,    18.30,    15.37
      119.0,      16.34,    14.67,    17.11,    18.24,    15.32
      120.0,      16.28,    14.63,    17.05,    18.19,    15.27
      121.0,      16.23,    14.58,    16.99,    18.13,    15.22
      122.0,      16.18,    14.54,    16.93,    18.08,    15.18
      123.0,      16.13,    14.50,    16.87,    18.02,    15.13
      124.0,      16.08,    14.45,    16.82,    17.97,    15.09
      125.0,      16.03,    14.41,    16.76,    17.92,    15.04
      126.0,      15.99,    14.37,    16.71,    17.87,    15.00
      127.0,      15.94,    14.34,    16.66,    17.81,    14.96
      128.0,      15.90,    14.30,    16.61,    17.77,    14.92
      129.0,      15.85,    14.26,    16.56,    17.72,    14.88
      130.0,      15.81,    14.23,    16.51,    17.67,    14.84
      131.0,      15.77,    14.19,    16.46,    17.62,    14.80
      132.0,      15.73,    14.16,    16.41,    17.58,    14.76
      133.0,      15.69,    14.12,    16.37,    17.53,    14.73
      134.0,      15.65,    14.09,    16.32,    17.49,    14.69
      135.0,      15.61,    14.06,    16.28,    17.44,    14.65
      136.0,      15.57,    14.03,    16.24,    17.40,    14.62
      137.0,      15.53,    14.00,    16.19,    17.36,    14.58
      138.0,      15.50,    13.97,    16.15,    17.32,    14.55
      139.0,      15.46,    13.94,    16.11,    17.27,    14.51
      140.0,      15.42,    13.91,    16.07,    17.23,    14.48
      141.0,      15.39,    13.88,    16.03,    17.19,    14.45
      142.0,      15.36,    13.85,    15.99,    17.16,    14.42
      143.0,      15.32,    13.83,    15.96,    17.12,    14.38
      144.0,      15.29,    13.80,    15.92,    17.08,    14.35
      145.0,      15.26,    13.78,    15.88,    17.04,    14.32
      146.0,      15.22,    13.75,    15.85,    17.01,    14.29
      147.0,      15.19,    13.73,    15.81,    16.97,    14.26
      148.0,      15.16,    13.70,    15.78,    16.93,    14.23
      149.0,      15.13,    13.68,    15.75,    16.90,    14.20
      150.0,      15.10,    13.65,    15.71,    16.86,    14.17
      151.0,      15.07,    13.63,    15.68,    16.83,    14.14
      152.0,      15.04,    13.61,    15.65,    16.80,    14.11
      153.0,      15.01,    13.59,    15.62,    16.76,    14.09
      154.0,      14.98,    13.56,    15.58,    16.73,    14.06
      155.0,      14.96,    13.54,    15.55,    16.70,    14.03
      156.0,      14.93,    13.52,    15.52,    16.67,    14.00
      157.0,      14.90,    13.50,    15.49,    16.64,    13.98
      158.0,      14.87,    13.48,    15.46,    16.60,    13.95
      159.0,      14.85,    13.46,    15.44,    16.57,    13.92
      160.0,      14.82,    13.44,    15.41,    16.54,    13.90
      161.0,      14.80,    13.42,    15.38,    16.51,    13.87
      162.0,      14.77,    13.40,    15.35,    16.48,    13.84
      163.0,      14.74,    13.38,    15.32,    16.45,    13.82
      164.0,      14.72,    13.36,    15.30,    16.43,    13.79
      165.0,      14.69,    13.34,    15.27,    16.40,    13.77
      166.0,      14.67,    13.32,    15.25,    16.37,    13.74
      167.0,      14.65,    13.30,    15.22,    16.34,    13.72
      168.0,      14.62,    13.29,    15.19,    16.31,    13.70
      169.0,      14.60,    13.27,    15.17,    16.29,    13.67
      170.0,      14.58,    13.25,    15.14,    16.26,    13.65
      171.0,      14.55,    13.23,    15.12,    16.23,    13.62
      172.0,      14.53,    13.21,    15.10,    16.21,    13.60
      173.0,      14.51,    13.20,    15.07,    16.18,    13.58
      174.0,      14.48,    13.18,    15.05,    16.16,    13.55
      175.0,      14.46,    13.16,    15.03,    16.13,    13.53
      176.0,      14.44,    13.15,    15.00,    16.11,    13.51
      177.0,      14.42,    13.13,    14.98,    16.08,    13.48
      178.0,      14.40,    13.11,    14.96,    16.06,    13.46
      179.0,      14.38,    13.10,    14.94,    16.03,    13.44
      180.0,      14.35,    13.08,    14.91,    16.01,    13.42
      181.0,      14.33,    13.06,    14.89,    15.98,    13.39
      182.0,      14.31,    13.05,    14.87,    15.96,    13.37
      183.0,      14.29,    13.03,    14.85,    15.94,    13.35
      184.0,      14.27,    13.02,    14.83,    15.91,    13.33
      185.0,      14.25,    13.00,    14.81,    15.89,    13.30
      186.0,      14.23,    12.99,    14.79,    15.87,    13.28
      187.0,      14.21,    12.97,    14.77,    15.84,    13.26
      188.0,      14.19,    12.96,    14.75,    15.82,    13.24
      189.0,      14.17,    12.94,    14.73,    15.80,    13.22
      190.0,      14.15,    12.93,    14.71,    15.78,    13.20
      191.0,      14.13,    12.91,    14.69,    15.76,    13.17
      192.0,      14.11,    12.90,    14.67,    15.73,    13.15
      193.0,      14.09,    12.88,    14.65,    15.71,    13.13
      194.0,      14.07,    12.87,    14.63,    15.69,    13.11
      195.0,      14.06,    12.85,    14.61,    15.67,    13.09
      196.0,      14.04,    12.84,    14.59,    15.65,    13.07
      197.0,      14.02,    12.82,    14.57,    15.63,    13.05
      198.0,      14.00,    12.81,    14.55,    15.61,    13.03
      199.0,      13.98,    12.79,    14.53,    15.59,    13.01
      200.0,      13.96,    12.78,    14.52,    15.57,    12.99
      201.0,      13.94,    12.77,    14.50,    15.55,    12.97
      202.0,      13.93,    12.75,    14.48,    15.53,    12.95
      203.0,      13.91,    12.74,    14.46,    15.51,    12.93
      204.0,      13.89,    12.72,    14.44,    15.49,    12.91
      205.0,      13.87,    12.71,    14.43,    15.47,    12.89
      206.0,      13.85,    12.70,    14.41,    15.45,    12.87
      207.0,      13.84,    12.68,    14.39,    15.43,    12.85
      208.0,      13.82,    12.67,    14.37,    15.41,    12.83
      209.0,      13.80,    12.65,    14.36,    15.39,    12.81
      210.0,      13.78,    12.64,    14.34,    15.37,    12.79
      211.0,      13.77,    12.63,    14.32,    15.35,    12.77
      212.0,      13.75,    12.61,    14.30,    15.33,    12.75
      213.0,      13.73,    12.60,    14.29,    15.31,    12.73
      214.0,      13.71,    12.59,    14.27,    15.29,    12.71
      215.0,      13.70,    12.57,    14.25,    15.27,    12.69
      216.0,      13.68,    12.56,    14.24,    15.26,    12.67
      217.0,      13.66,    12.55,    14.22,    15.24,    12.65
      218.0,      13.65,    12.53,    14.20,    15.22,    12.63
      219.0,      13.63,    12.52,    14.19,    15.20,    12.61
      220.0,      13.61,    12.51,    14.17,    15.18,    12.59
      221.0,      13.60,    12.49,    14.16,    15.16,    12.57
      222.0,      13.58,    12.48,    14.14,    15.15,    12.55
      223.0,      13.56,    12.47,    14.12,    15.13,    12.53
      224.0,      13.55,    12.45,    14.11,    15.11,    12.51
      225.0,      13.53,    12.44,    14.09,    15.09,    12.50
      226.0,      13.51,    12.43,    14.08,    15.07,    12.48
      227.0,      13.50,    12.42,    14.06,    15.06,    12.46
      228.0,      13.48,    12.40,    14.04,    15.04,    12.44
      229.0,      13.47,    12.39,    14.03,    15.02,    12.42
      230.0,      13.45,    12.38,    14.01,    15.00,    12.40
      231.0,      13.43,    12.36,    14.00,    14.99,    12.38
      232.0,      13.42,    12.35,    13.98,    14.97,    12.36
      233.0,      13.40,    12.34,    13.97,    14.95,    12.34
      234.0,      13.38,    12.33,    13.95,    14.93,    12.33
      235.0,      13.37,    12.31,    13.94,    14.92,    12.31
      236.0,      13.35,    12.30,    13.92,    14.90,    12.29
      237.0,      13.34,    12.29,    13.91,    14.88,    12.27
      238.0,      13.32,    12.28,    13.89,    14.87,    12.25
      239.0,      13.31,    12.26,    13.88,    14.85,    12.23
      240.0,      13.29,    12.25,    13.86,    14.83,    12.22
      241.0,      13.27,    12.24,    13.85,    14.82,    12.20
      242.0,      13.26,    12.23,    13.83,    14.80,    12.18
      243.0,      13.24,    12.21,    13.82,    14.78,    12.16
      244.0,      13.23,    12.20,    13.80,    14.77,    12.14
      245.0,      13.21,    12.19,    13.79,    14.75,    12.12
      246.0,      13.20,    12.18,    13.77,    14.73,    12.11
      247.0,      13.18,    12.16,    13.76,    14.72,    12.09
      248.0,      13.17,    12.15,    13.74,    14.70,    12.07
      249.0,      13.15,    12.14,    13.73,    14.68,    12.05
      250.0,      13.14,    12.13,    13.71,    14.67,    12.03
      251.0,      13.12,    12.11,    13.70,    14.65,    12.01
      252.0,      13.10,    12.10,    13.68,    14.64,    12.00
      253.0,      13.09,    12.09,    13.67,    14.62,    11.98
      254.0,      13.07,    12.08,    13.66,    14.60,    11.96
      255.0,      13.06,    12.06,    13.64,    14.59,    11.94
      256.0,      13.04,    12.05,    13.63,    14.57,    11.93
      257.0,      13.03,    12.04,    13.61,    14.56,    11.91
      258.0,      13.01,    12.03,    13.60,    14.54,    11.89
      259.0,      13.00,    12.02,    13.58,    14.52,    11.87
      260.0,      12.98,    12.00,    13.57,    14.51,    11.85
      261.0,      12.97,    11.99,    13.56,    14.49,    11.84
      262.0,      12.95,    11.98,    13.54,    14.48,    11.82
      263.0,      12.94,    11.97,    13.53,    14.46,    11.80
      264.0,      12.92,    11.96,    13.51,    14.45,    11.78
      265.0,      12.91,    11.94,    13.50,    14.43,    11.77
      266.0,      12.90,    11.93,    13.49,    14.41,    11.75
      267.0,      12.88,    11.92,    13.47,    14.40,    11.73
      268.0,      12.87,    11.91,    13.46,    14.38,    11.71
      269.0,      12.85,    11.90,    13.44,    14.37,    11.70
      270.0,      12.84,    11.88,    13.43,    14.35,    11.68
      271.0,      12.82,    11.87,    13.42,    14.34,    11.66
      272.0,      12.81,    11.86,    13.40,    14.32,    11.64
      273.0,      12.79,    11.85,    13.39,    14.31,    11.63
      274.0,      12.78,    11.84,    13.37,    14.29,    11.61
      275.0,      12.76,    11.82,    13.36,    14.28,    11.59
      276.0,      12.75,    11.81,    13.35,    14.26,    11.57
      277.0,      12.73,    11.80,    13.33,    14.25,    11.56
      278.0,      12.72,    11.79,    13.32,    14.23,    11.54
      279.0,      12.71,    11.78,    13.31,    14.22,    11.52
      280.0,      12.69,    11.76,    13.29,    14.20,    11.51
      281.0,      12.68,    11.75,    13.28,    14.19,    11.49
      282.0,      12.66,    11.74,    13.26,    14.17,    11.47
      283.0,      12.65,    11.73,    13.25,    14.16,    11.45
      284.0,      12.63,    11.72,    13.24,    14.14,    11.44
      285.0,      12.62,    11.71,    13.22,    14.13,    11.42
      286.0,      12.60,    11.69,    13.21,    14.11,    11.40
      287.0,      12.59,    11.68,    13.20,    14.10,    11.39
      288.0,      12.58,    11.67,    13.18,    14.08,    11.37
      289.0,      12.56,    11.66,    13.17,    14.07,    11.35
      290.0,      12.55,    11.65,    13.16,    14.05,    11.34
      291.0,      12.53,    11.64,    13.14,    14.04,    11.32
      292.0,      12.52,    11.62,    13.13,    14.02,    11.30
      293.0,      12.51,    11.61,    13.12,    14.01,    11.29
      294.0,      12.49,    11.60,    13.10,    13.99,    11.27
      295.0,      12.48,    11.59,    13.09,    13.98,    11.25
      296.0,      12.46,    11.58,    13.08,    13.96,    11.23
      297.0,      12.45,    11.57,    13.06,    13.95,    11.22
      298.0,      12.43,    11.55,    13.05,    13.93,    11.20
      299.0,      12.42,    11.54,    13.04,    13.92,    11.18
      300.0,      12.41,    11.53,    13.02,    13.90,    11.17
      301.0,      12.39,    11.52,    13.01,    13.89,    11.15
      302.0,      12.38,    11.51,    13.00,    13.88,    11.14
      303.0,      12.36,    11.50,    12.98,    13.86,    11.12
      304.0,      12.35,    11.48,    12.97,    13.85,    11.10
      305.0,      12.34,    11.47,    12.96,    13.83,    11.09
      306.0,      12.32,    11.46,    12.95,    13.82,    11.07
      307.0,      12.31,    11.45,    12.93,    13.80,    11.05
      308.0,      12.30,    11.44,    12.92,    13.79,    11.04
      309.0,      12.28,    11.43,    12.91,    13.77,    11.02
      310.0,      12.27,    11.42,    12.89,    13.76,    11.00
