Radius (km), Mean (m/s), NE (m/s), SE (m/s), SW (m/s), NW (m/s)
        0.0,       0.00,     0.00,     0.00,     0.00,     0.00
        1.0,       2.78,     2.43,     2.77,     3.07,     2.83
        2.0,       5.21,     4.92,     5.23,     5.41,     5.26
        3.0,       7.59,     7.50,     7.65,     7.60,     7.60
        4.0,      10.04,    10.25,    10.15,     9.81,     9.95
        5.0,      12.67,    13.29,    12.84,    12.12,    12.42
        6.0,      15.54,    16.68,    15.80,    14.59,    15.09
        7.0,      18.67,    20.45,    19.02,    17.21,    17.98
        8.0,      22.00,    24.52,    22.46,    19.94,    21.09
        9.0,      25.44,    28.75,    25.99,    22.67,    24.33
       10.0,      28.81,    32.96,    29.45,    25.29,    27.56
       11.0,      31.97,    36.91,    32.66,    27.67,    30.63
       12.0,      34.74,    40.41,    35.46,    29.70,    33.38
       13.0,      36.99,    43.27,    37.71,    31.30,    35.68
       14.0,      38.65,    45.41,    39.34,    32.43,    37.42
       15.0,      39.70,    46.79,    40.33,    33.10,    38.58
       16.0,      40.18,    47.45,    40.73,    33.36,    39.17
       17.0,      40.17,    47.50,    40.64,    33.28,    39.26
       18.0,      39.79,    47.09,    40.18,    32.96,    38.96
       19.0,      39.18,    46.37,    39.47,    32.49,    38.38
       20.0,      38.44,    45.50,    38.66,    31.95,    37.64
       21.0,      37.66,    44.58,    37.81,    31.40,    36.85
       22.0,      36.91,    43.69,    36.99,    30.87,    36.07
       23.0,      36.19,    42.85,    36.22,    30.36,    35.32
       24.0,      35.51,    42.06,    35.49,    29.87,    34.61
       25.0,      34.86,    41.31,    34.79,    29.40,    33.92
       26.0,      34.23,    40.58,    34.12,    28.94,    33.25
       27.0,      33.61,    39.88,    33.47,    28.50,    32.60
       28.0,      33.02,    39.21,    32.85,    28.07,    31.97
       29.0,      32.45,    38.56,    32.25,    27.65,    31.35
       30.0,      31.90,    37.94,    31.67,    27.24,    30.75
       31.0,      31.36,    37.33,    31.11,    26.85,    30.17
       32.0,      30.85,    36.75,    30.58,    26.47,    29.59
       33.0,      30.35,    36.19,    30.06,    26.09,    29.04
       34.0,      29.86,    35.65,    29.56,    25.73,    28.49
       35.0,      29.39,    35.13,    29.08,    25.39,    27.96
       36.0,      28.94,    34.63,    28.62,    25.05,    27.45
       37.0,      28.50,    34.15,    28.18,    24.72,    26.94
       38.0,      28.07,    33.68,    27.75,    24.40,    26.45
       39.0,      27.66,    33.23,    27.33,    24.09,    25.97
       40.0,      27.26,    32.80,    26.94,    23.79,    25.51
       41.0,      26.87,    32.38,    26.55,    23.50,    25.05
       42.0,      26.50,    31.98,    26.18,    23.21,    24.61
       43.0,      26.13,    31.59,    25.83,    22.94,    24.18
       44.0,      25.78,    31.21,    25.48,    22.67,    23.76
       45.0,      25.44,    30.85,    25.15,    22.41,    23.35
       46.0,      25.11,    30.50,    24.83,    22.16,    22.95
       47.0,      24.79,    30.16,    24.52,    21.91,    22.56
       48.0,      24.48,    29.83,    24.23,    21.68,    22.18
       49.0,      24.18,    29.52,    23.94,    21.45,    21.80
       50.0,      23.89,    29.21,    23.66,    21.22,    21.44
       51.0,      23.60,    28.92,    23.40,    21.01,    21.09
       52.0,      23.33,    28.63,    23.14,    20.79,    20.75
       53.0,      23.06,    28.36,    22.89,    20.59,    20.41
       54.0,      22.80,    28.09,    22.65,    20.39,    20.08
       55.0,      22.55,    27.83,    22.42,    20.20,    19.77
       56.0,      22.31,    27.59,    22.19,    20.01,    19.45
       57.0,      22.08,    27.34,    21.98,    19.83,    19.15
       58.0,      21.85,    27.11,    21.77,    19.65,    18.86
       59.0,      21.62,    26.89,    21.57,    19.48,    18.57
       60.0,      21.41,    26.67,    21.37,    19.31,    18.29
       61.0,      21.20,    26.46,    21.19,    19.15,    18.01
       62.0,      21.00,    26.25,    21.00,    18.99,    17.75
       63.0,      20.80,    26.05,    20.83,    18.83,    17.49
       64.0,      20.61,    25.86,    20.66,    18.68,    17.23
       65.0,      20.42,    25.67,    20.50,    18.54,    16.98
       66.0,      20.24,    25.49,    20.34,    18.40,    16.74
       67.0,      20.07,    25.32,    20.18,    18.26,    16.51
       68.0,      19.90,    25.15,    20.03,    18.13,    16.28
       69.0,      19.73,    24.98,    19.89,    18.00,    16.05
       70.0,      19.57,    24.82,    19.75,    17.87,    15.84
       71.0,      19.41,    24.67,    19.62,    17.75,    15.62
       72.0,      19.26,    24.52,    19.49,    17.63,    15.41
       73.0,      19.11,    24.37,    19.36,    17.51,    15.21
       74.0,      18.97,    24.23,    19.24,    17.40,    15.01
       75.0,      18.83,    24.09,    19.12,    17.29,    14.82
       76.0,      18.69,    23.96,    19.01,    17.18,    14.63
       77.0,      18.56,    23.82,    18.89,    17.08,    14.45
       78.0,      18.43,    23.70,    18.79,    16.98,    14.27
       79.0,      18.31,    23.57,    18.68,    16.88,    14.10
       80.0,      18.18,    23.45,    18.58,    16.78,    13.93
       81.0,      18.07,    23.34,    18.48,    16.69,    13.76
       82.0,      17.95,    23.22,    18.39,    16.60,    13.60
       83.0,      17.84,    23.11,    18.29,    16.51,    13.44
       84.0,      17.73,    23.00,    18.20,    16.42,    13.28
       85.0,      17.62,    22.89,    18.11,    16.34,    13.13
       86.0,      17.52,    22.79,    18.03,    16.26,    12.99
       87.0,      17.41,    22.69,    17.95,    16.18,    12.84
       88.0,      17.31,    22.59,    17.87,    16.10,    12.70
       89.0,      17.22,    22.49,    17.79,    16.02,    12.57
       90.0,      17.12,    22.40,    17.71,    15.95,    12.43
       91.0,      17.03,    22.31,    17.64,    15.88,    12.30
       92.0,      16.94,    22.22,    17.57,    15.81,    12.18
       93.0,      16.85,    22.13,    17.50,    15.74,    12.05
       94.0,      16.77,    22.05,    17.43,    15.67,    11.93
       95.0,      16.69,    21.96,    17.36,    15.60,    11.82
       96.0,      16.60,    21.88,    17.30,    15.54,    11.70
       97.0,      16.52,    21.80,    17.23,    15.48,    11.59
       98.0,      16.45,    21.72,    17.17,    15.42,    11.48
       99.0,      16.37,    21.64,    17.11,    15.36,    11.37
      100.0,      16.30,    21.57,    17.05,    15.30,    11.27
      101.0,      16.22,    21.49,    16.99,    15.25,    11.17
      102.0,      16.15,    21.42,    16.94,    15.19,    11.07
      103.0,      16.08,    21.35,    16.88,    15.14,    10.97
      104.0,      16.02,    21.28,    16.83,    15.08,    10.87
      105.0,      15.95,    21.21,    16.78,    15.03,    10.78
      106.0,      15.88,    21.14,    16.72,    14.98,    10.69
      107.0,      15.82,    21.07,    16.67,    14.93,    10.60
      108.0,      15.76,    21.01,    16.62,    14.89,    10.52
      109.0,      15.70,    20.94,    16.58,    14.84,    10.43
      110.0,      15.64,    20.88,    16.53,    14.79,    10.35
      111.0,      15.58,    20.82,    16.48,    14.75,    10.27
      112.0,      15.52,    20.75,    16.44,    14.70,    10.19
      113.0,      15.47,    20.69,    16.39,    14.66,    10.11
      114.0,      15.41,    20.63,    16.35,    14.62,    10.04
      115.0,      15.36,    20.57,    16.31,    14.58,     9.97
      116.0,      15.30,    20.52,    16.26,    14.54,     9.89
      117.0,      15.25,    20.46,    16.22,    14.50,     9.82
      118.0,      15.20,    20.40,    16.18,    14.46,     9.76
      119.0,      15.15,    20.35,    16.14,    14.42,     9.69
      120.0,      15.10,    20.29,    16.10,    14.38,     9.62
      121.0,      15.05,    20.24,    16.07,    14.35,     9.56
      122.0,      15.01,    20.18,    16.03,    14.31,     9.50
      123.0,      14.96,    20.13,    15.99,    14.28,     9.44
      124.0,      14.91,    20.08,    15.95,    14.24,     9.38
      125.0,      14.87,    20.03,    15.92,    14.21,     9.32
      126.0,      14.82,    19.98,    15.88,    14.18,     9.26
      127.0,      14.78,    19.93,    15.85,    14.14,     9.21
      128.0,      14.74,    19.88,    15.81,    14.11,     9.15
      129.0,      14.70,    19.83,    15.78,    14.08,     9.10
      130.0,      14.66,    19.78,    15.74,    14.05,     9.05
      131.0,      14.61,    19.73,    15.71,    14.02,     9.00
      132.0,      14.57,    19.68,    15.68,    13.99,     8.95
      133.0,      14.53,    19.63,    15.65,    13.96,     8.90
      134.0,      14.50,    19.59,    15.61,    13.93,     8.85
      135.0,      14.46,    19.54,    15.58,    13.90,     8.81
      136.0,      14.42,    19.49,    15.55,    13.88,     8.76
      137.0,      14.38,    19.45,    15.52,    13.85,     8.72
      138.0,      14.35,    19.40,    15.49,    13.82,     8.67
      139.0,      14.31,    19.36,    15.46,    13.80,     8.63
      140.0,      14.27,    19.31,    15.43,    13.77,     8.59
      141.0,      14.24,    19.27,    15.40,    13.75,     8.55
      142.0,      14.21,    19.22,    15.37,    13.72,     8.51
      143.0,      14.17,    19.18,    15.34,    13.70,     8.47
      144.0,      14.14,    19.14,    15.31,    13.67,     8.43
      145.0,      14.10,    19.09,    15.28,    13.65,     8.39
      146.0,      14.07,    19.05,    15.26,    13.62,     8.36
      147.0,      14.04,    19.01,    15.23,    13.60,     8.32
      148.0,      14.01,    18.96,    15.20,    13.58,     8.29
      149.0,      13.98,    18.92,    15.17,    13.55,     8.25
      150.0,      13.94,    18.88,    15.15,    13.53,     8.22
      151.0,      13.91,    18.84,    15.12,    13.51,     8.18
      152.0,      13.88,    18.80,    15.09,    13.49,     8.15
      153.0,      13.85,    18.76,    15.07,    13.47,     8.12
      154.0,      13.82,    18.72,    15.04,    13.45,     8.09
      155.0,      13.79,    18.68,    15.01,    13.42,     8.06
      156.0,      13.76,    18.64,    14.99,    13.40,     8.03
      157.0,      13.73,    18.60,    14.96,    13.38,     8.00
      158.0,      13.71,    18.56,    14.94,    13.36,     7.97
      159.0,      13.68,    18.52,    14.91,    13.34,     7.94
      160.0,      13.65,    18.48,    14.88,    13.32,     7.92
      161.0,      13.62,    18.44,    14.86,    13.30,     7.89
      162.0,      13.59,    18.40,    14.83,    13.28,     7.86
      163.0,      13.57,    18.36,    14.81,    13.26,     7.84
      164.0,      13.54,    18.32,    14.79,    13.25,     7.81
      165.0,      13.51,    18.28,    14.76,    13.23,     7.78
      166.0,      13.49,    18.24,    14.74,    13.21,     7.76
      167.0,      13.46,    18.21,    14.71,    13.19,     7.74
      168.0,      13.44,    18.17,    14.69,    13.17,     7.71
      169.0,      13.41,    18.13,    14.66,    13.15,     7.69
      170.0,      13.38,    18.09,    14.64,    13.14,     7.67
      171.0,      13.36,    18.06,    14.62,    13.12,     7.64
      172.0,      13.33,    18.02,    14.59,    13.10,     7.62
      173.0,      13.31,    17.98,    14.57,    13.08,     7.60
      174.0,      13.28,    17.94,    14.55,    13.07,     7.58
      175.0,      13.26,    17.91,    14.52,    13.05,     7.56
      176.0,      13.23,    17.87,    14.50,    13.03,     7.54
      177.0,      13.21,    17.83,    14.48,    13.01,     7.52
      178.0,      13.19,    17.80,    14.45,    13.00,     7.50
      179.0,      13.16,    17.76,    14.43,    12.98,     7.48
      180.0,      13.14,    17.72,    14.41,    12.96,     7.46
      181.0,      13.12,    17.69,    14.38,    12.95,     7.44
      182.0,      13.09,    17.65,    14.36,    12.93,     7.42
      183.0,      13.07,    17.62,    14.34,    12.92,     7.40
      184.0,      13.05,    17.58,    14.32,    12.90,     7.38
      185.0,      13.02,    17.55,    14.29,    12.88,     7.37
      186.0,      13.00,    17.51,    14.27,    12.87,     7.35
      187.0,      12.98,    17.47,    14.25,    12.85,     7.33
      188.0,      12.95,    17.44,    14.23,    12.84,     7.32
      189.0,      12.93,    17.40,    14.21,    12.82,     7.30
      190.0,      12.91,    17.37,    14.18,    12.81,     7.28
      191.0,      12.89,    17.33,    14.16,    12.79,     7.27
      192.0,      12.87,    17.30,    14.14,    12.78,     7.25
      193.0,      12.84,    17.26,    14.12,    12.76,     7.24
      194.0,      12.82,    17.23,    14.10,    12.75,     7.22
      195.0,      12.80,    17.19,    14.07,    12.73,     7.20
      196.0,      12.78,    17.16,    14.05,    12.72,     7.19
      197.0,      12.76,    17.13,    14.03,    12.70,     7.17
      198.0,      12.74,    17.09,    14.01,    12.69,     7.16
      199.0,      12.72,    17.06,    13.99,    12.67,     7.15
      200.0,      12.69,    17.02,    13.97,    12.66,     7.13
      201.0,      12.67,    16.99,    13.94,    12.64,     7.12
      202.0,      12.65,    16.96,    13.92,    12.63,     7.10
      203.0,      12.63,    16.92,    13.90,    12.61,     7.09
      204.0,      12.61,    16.89,    13.88,    12.60,     7.08
      205.0,      12.59,    16.85,    13.86,    12.59,     7.06
      206.0,      12.57,    16.82,    13.84,    12.57,     7.05
      207.0,      12.55,    16.79,    13.82,    12.56,     7.04
      208.0,      12.53,    16.75,    13.80,    12.54,     7.03
      209.0,      12.51,    16.72,    13.78,    12.53,     7.01
      210.0,      12.49,    16.69,    13.75,    12.52,     7.00
      211.0,      12.47,    16.65,    13.73,    12.50,     6.99
      212.0,      12.45,    16.62,    13.71,    12.49,     6.98
      213.0,      12.43,    16.59,    13.69,    12.47,     6.96
      214.0,      12.41,    16.55,    13.67,    12.46,     6.95
      215.0,      12.39,    16.52,    13.65,    12.45,     6.94
      216.0,      12.37,    16.49,    13.63,    12.43,     6.93
      217.0,      12.35,    16.46,    13.61,    12.42,     6.92
      218.0,      12.33,    16.42,    13.59,    12.41,     6.91
      219.0,      12.31,    16.39,    13.57,    12.39,     6.90
      220.0,      12.29,    16.36,    13.55,    12.38,     6.88
      221.0,      12.27,    16.33,    13.53,    12.37,     6.87
      222.0,      12.25,    16.29,    13.51,    12.35,     6.86
      223.0,      12.24,    16.26,    13.49,    12.34,     6.85
      224.0,      12.22,    16.23,    13.47,    12.33,     6.84
      225.0,      12.20,    16.20,    13.45,    12.31,     6.83
      226.0,      12.18,    16.17,    13.43,    12.30,     6.82
      227.0,      12.16,    16.13,    13.41,    12.29,     6.81
      228.0,      12.14,    16.10,    13.39,    12.27,     6.80
      229.0,      12.12,    16.07,    13.37,    12.26,     6.79
      230.0,      12.10,    16.04,    13.35,    12.25,     6.78
      231.0,      12.08,    16.01,    13.33,    12.24,     6.77
      232.0,      12.07,    15.97,    13.31,    12.22,     6.76
      233.0,      12.05,    15.94,    13.29,    12.21,     6.75
      234.0,      12.03,    15.91,    13.27,    12.20,     6.74
      235.0,      12.01,    15.88,    13.25,    12.18,     6.73
      236.0,      11.99,    15.85,    13.23,    12.17,     6.72
      237.0,      11.97,    15.82,    13.21,    12.16,     6.71
      238.0,      11.96,    15.79,    13.19,    12.15,     6.70
      239.0,      11.94,    15.76,    13.17,    12.13,     6.69
      240.0,      11.92,    15.72,    13.15,    12.12,     6.68
      241.0,      11.90,    15.69,    13.13,    12.11,     6.68
      242.0,      11.88,    15.66,    13.11,    12.10,     6.67
      243.0,      11.87,    15.63,    13.09,    12.08,     6.66
      244.0,      11.85,    15.60,    13.07,    12.07,     6.65
      245.0,      11.83,    15.57,    13.05,    12.06,     6.64
      246.0,      11.81,    15.54,    13.03,    12.05,     6.63
      247.0,      11.79,    15.51,    13.01,    12.03,     6.62
      248.0,      11.78,    15.48,    12.99,    12.02,     6.61
      249.0,      11.76,    15.45,    12.97,    12.01,     6.61
      250.0,      11.74,    15.42,    12.95,    12.00,     6.60
      251.0,      11.72,    15.39,    12.93,    11.98,     6.59
      252.0,      11.71,    15.36,    12.91,    11.97,     6.58
      253.0,      11.69,    15.33,    12.90,    11.96,     6.57
      254.0,      11.67,    15.30,    12.88,    11.95,     6.56
      255.0,      11.65,    15.27,    12.86,    11.93,     6.55
      256.0,      11.64,    15.24,    12.84,    11.92,     6.55
      257.0,      11.62,    15.21,    12.82,    11.91,     6.54
      258.0,      11.60,    15.18,    12.80,    11.90,     6.53
      259.0,      11.58,    15.15,    12.78,    11.88,     6.52
      260.0,      11.57,    15.12,    12.76,    11.87,     6.51
      261.0,      11.55,    15.09,    12.74,    11.86,     6.51
      262.0,      11.53,    15.06,    12.72,    11.85,     6.50
      263.0,      11.51,    15.03,    12.70,    11.84,     6.49
      264.0,      11.50,    15.00,    12.69,    11.82,     6.48
      265.0,      11.48,    14.97,    12.67,    11.81,     6.48
      266.0,      11.46,    14.94,    12.65,    11.80,     6.47
      267.0,      11.45,    14.91,    12.63,    11.79,     6.46
      268.0,      11.43,    14.88,    12.61,    11.78,     6.45
      269.0,      11.41,    14.85,    12.59,    11.76,     6.44
      270.0,      11.40,    14.82,    12.57,    11.75,     6.44
      271.0,      11.38,    14.79,    12.55,    11.74,     6.43
      272.0,      11.36,    14.76,    12.54,    11.73,     6.42
      273.0,      11.35,    14.73,    12.52,    11.72,     6.41
      274.0,      11.33,    14.70,    12.50,    11.70,     6.41
      275.0,      11.31,    14.68,    12.48,    11.69,     6.40
      276.0,      11.30,    14.65,    12.46,    11.68,     6.39
      277.0,      11.28,    14.62,    12.44,    11.67,     6.38
      278.0,      11.26,    14.59,    12.42,    11.66,     6.38
      279.0,      11.25,    14.56,    12.41,    11.65,     6.37
      280.0,      11.23,    14.53,    12.39,    11.63,     6.36
      281.0,      11.21,    14.50,    12.37,    11.62,     6.36
      282.0,      11.20,    14.48,    12.35,    11.61,     6.35
      283.0,      11.18,    14.45,    12.33,    11.60,     6.34
      284.0,      11.16,    14.42,    12.31,    11.59,     6.33
      285.0,      11.15,    14.39,    12.30,    11.57,     6.33
      286.0,      11.13,    14.36,    12.28,    11.56,     6.32
      287.0,      11.11,    14.33,    12.26,    11.55,     6.31
      288.0,      11.10,    14.31,    12.24,    11.54,     6.31
      289.0,      11.08,    14.28,    12.22,    11.53,     6.30
      290.0,      11.07,    14.25,    12.20,    11.52,     6.29
      291.0,      11.05,    14.22,    12.19,    11.50,     6.29
      292.0,      11.03,    14.19,    12.17,    11.49,     6.28
      293.0,      11.02,    14.17,    12.15,    11.48,     6.27
      294.0,      11.00,    14.14,    12.13,    11.47,     6.26
      295.0,      10.98,    14.11,    12.11,    11.46,     6.26
      296.0,      10.97,    14.08,    12.10,    11.45,     6.25
      297.0,      10.95,    14.05,    12.08,    11.44,     6.24
      298.0,      10.94,    14.03,    12.06,    11.42,     6.24
      299.0,      10.92,    14.00,    12.04,    11.41,     6.23
      300.0,      10.90,    13.97,    12.02,    11.40,     6.22
      301.0,      10.89,    13.94,    12.01,    11.39,     6.22
      302.0,      10.87,    13.92,    11.99,    11.38,     6.21
      303.0,      10.86,    13.89,    11.97,    11.37,     6.20
      304.0,      10.84,    13.86,    11.95,    11.36,     6.20
      305.0,      10.83,    13.83,    11.93,    11.34,     6.19
      306.0,      10.81,    13.81,    11.92,    11.33,     6.18
      307.0,      10.79,    13.78,    11.90,    11.32,     6.18
      308.0,      10.78,    13.75,    11.88,    11.31,     6.17
      309.0,      10.76,    13.73,    11.86,    11.30,     6.16
      310.0,      10.75,    13.70,    11.85,    11.29,     6.16
