Radius (km), Mean (m/s), NE (m/s), SE (m/s), SW (m/s), NW (m/s)
        0.0,       0.00,     0.00,     0.00,     0.00,     0.00
        1.0,       2.24,     1.93,     2.47,     2.64,     1.93
        2.0,       4.66,     4.31,     4.92,     5.08,     4.32
        3.0,       7.25,     7.00,     7.40,     7.54,     7.05
        4.0,      10.12,    10.10,    10.02,    10.14,    10.22
        5.0,      13.39,    13.73,    12.87,    13.00,    13.95
        6.0,      17.12,    17.98,    16.02,    16.17,    18.30
        7.0,      21.31,    22.84,    19.50,    19.66,    23.26
        8.0,      25.88,    28.20,    23.23,    23.38,    28.69
        9.0,      30.62,    33.83,    27.12,    27.18,    34.35
       10.0,      35.31,    39.43,    30.98,    30.87,    39.95
       11.0,      39.68,    44.69,    34.63,    34.26,    45.15
       12.0,      43.50,    49.28,    37.89,    37.16,    49.66
       13.0,      46.56,    52.97,    40.59,    39.44,    53.24
       14.0,      48.76,    55.61,    42.63,    41.01,    55.77
       15.0,      50.07,    57.16,    44.00,    41.88,    57.23
       16.0,      50.55,    57.68,    44.71,    42.12,    57.69
       17.0,      50.34,    57.35,    44.86,    41.83,    57.33
       18.0,      49.62,    56.38,    44.58,    41.16,    56.36
       19.0,      48.57,    55.00,    44.01,    40.25,    55.02
       20.0,      47.36,    53.42,    43.28,    39.24,    53.50
       21.0,      46.12,    51.80,    42.50,    38.21,    51.96
       22.0,      44.92,    50.24,    41.73,    37.22,    50.48
       23.0,      43.78,    48.76,    40.99,    36.29,    49.08
       24.0,      42.70,    47.37,    40.29,    35.40,    47.75
       25.0,      41.67,    46.03,    39.61,    34.55,    46.48
       26.0,      40.67,    44.75,    38.94,    33.73,    45.26
       27.0,      39.71,    43.52,    38.29,    32.95,    44.08
       28.0,      38.78,    42.33,    37.65,    32.19,    42.95
       29.0,      37.89,    41.19,    37.03,    31.46,    41.86
       30.0,      37.02,    40.10,    36.42,    30.76,    40.82
       31.0,      36.19,    39.04,    35.83,    30.09,    39.81
       32.0,      35.39,    38.03,    35.25,    29.45,    38.85
       33.0,      34.62,    37.06,    34.68,    28.82,    37.92
       34.0,      33.87,    36.12,    34.12,    28.23,    37.02
       35.0,      33.15,    35.22,    33.58,    27.65,    36.17
       36.0,      32.46,    34.36,    33.05,    27.10,    35.34
       37.0,      31.79,    33.53,    32.53,    26.57,    34.55
       38.0,      31.15,    32.73,    32.02,    26.06,    33.78
       39.0,      30.52,    31.96,    31.52,    25.56,    33.05
       40.0,      29.92,    31.22,    31.03,    25.09,    32.35
       41.0,      29.34,    30.51,    30.56,    24.64,    31.67
       42.0,      28.78,    29.83,    30.09,    24.20,    31.01
       43.0,      28.24,    29.17,    29.64,    23.78,    30.39
       44.0,      27.72,    28.54,    29.20,    23.37,    29.78
       45.0,      27.22,    27.94,    28.76,    22.98,    29.20
       46.0,      26.74,    27.35,    28.34,    22.61,    28.65
       47.0,      26.27,    26.79,    27.92,    22.25,    28.11
       48.0,      25.81,    26.25,    27.51,    21.90,    27.59
       49.0,      25.38,    25.73,    27.12,    21.57,    27.10
       50.0,      24.96,    25.23,    26.73,    21.24,    26.62
       51.0,      24.55,    24.75,    26.35,    20.93,    26.16
       52.0,      24.16,    24.29,    25.98,    20.64,    25.72
       53.0,      23.78,    23.85,    25.61,    20.35,    25.29
       54.0,      23.41,    23.42,    25.26,    20.07,    24.88
       55.0,      23.05,    23.01,    24.91,    19.81,    24.49
       56.0,      22.71,    22.61,    24.57,    19.55,    24.11
       57.0,      22.38,    22.23,    24.24,    19.31,    23.74
       58.0,      22.06,    21.87,    23.91,    19.07,    23.39
       59.0,      21.75,    21.51,    23.60,    18.84,    23.05
       60.0,      21.45,    21.18,    23.29,    18.62,    22.73
       61.0,      21.16,    20.85,    22.98,    18.41,    22.42
       62.0,      20.88,    20.54,    22.68,    18.20,    22.11
       63.0,      20.61,    20.23,    22.39,    18.01,    21.82
       64.0,      20.35,    19.94,    22.11,    17.82,    21.55
       65.0,      20.10,    19.66,    21.83,    17.64,    21.28
       66.0,      19.86,    19.39,    21.56,    17.46,    21.02
       67.0,      19.62,    19.13,    21.29,    17.29,    20.77
       68.0,      19.39,    18.88,    21.03,    17.13,    20.53
       69.0,      19.17,    18.64,    20.78,    16.97,    20.30
       70.0,      18.96,    18.41,    20.53,    16.82,    20.07
       71.0,      18.75,    18.19,    20.28,    16.67,    19.86
       72.0,      18.55,    17.98,    20.05,    16.53,    19.65
       73.0,      18.36,    17.77,    19.81,    16.40,    19.45
       74.0,      18.17,    17.57,    19.58,    16.26,    19.26
       75.0,      17.99,    17.38,    19.36,    16.14,    19.08
       76.0,      17.81,    17.19,    19.14,    16.02,    18.90
       77.0,      17.64,    17.02,    18.93,    15.90,    18.73
       78.0,      17.48,    16.84,    18.72,    15.78,    18.56
       79.0,      17.32,    16.68,    18.52,    15.67,    18.40
       80.0,      17.16,    16.52,    18.32,    15.57,    18.25
       81.0,      17.01,    16.37,    18.12,    15.47,    18.10
       82.0,      16.87,    16.22,    17.93,    15.37,    17.95
       83.0,      16.73,    16.07,    17.74,    15.27,    17.82
       84.0,      16.59,    15.94,    17.56,    15.18,    17.68
       85.0,      16.46,    15.80,    17.38,    15.09,    17.55
       86.0,      16.33,    15.68,    17.20,    15.00,    17.43
       87.0,      16.20,    15.55,    17.03,    14.92,    17.31
       88.0,      16.08,    15.43,    16.86,    14.84,    17.19
       89.0,      15.96,    15.32,    16.70,    14.76,    17.08
       90.0,      15.85,    15.21,    16.54,    14.69,    16.97
       91.0,      15.74,    15.10,    16.38,    14.61,    16.87
       92.0,      15.63,    15.00,    16.22,    14.54,    16.77
       93.0,      15.53,    14.90,    16.07,    14.47,    16.67
       94.0,      15.43,    14.80,    15.93,    14.41,    16.58
       95.0,      15.33,    14.71,    15.78,    14.34,    16.48
       96.0,      15.23,    14.62,    15.64,    14.28,    16.40
       97.0,      15.14,    14.53,    15.50,    14.22,    16.31
       98.0,      15.05,    14.45,    15.37,    14.16,    16.23
       99.0,      14.96,    14.37,    15.23,    14.11,    16.15
      100.0,      14.88,    14.29,    15.10,    14.05,    16.07
      101.0,      14.80,    14.21,    14.97,    14.00,    16.00
      102.0,      14.72,    14.14,    14.85,    13.95,    15.93
      103.0,      14.64,    14.07,    14.73,    13.90,    15.86
      104.0,      14.56,    14.00,    14.61,    13.85,    15.79
      105.0,      14.49,    13.93,    14.49,    13.80,    15.72
      106.0,      14.42,    13.87,    14.38,    13.76,    15.66
      107.0,      14.35,    13.81,    14.27,    13.71,    15.60
      108.0,      14.28,    13.75,    14.16,    13.67,    15.54
      109.0,      14.21,    13.69,    14.05,    13.63,    15.48
      110.0,      14.15,    13.63,    13.94,    13.59,    15.42
      111.0,      14.08,    13.58,    13.84,    13.55,    15.37
      112.0,      14.02,    13.52,    13.74,    13.51,    15.31
      113.0,      13.96,    13.47,    13.64,    13.47,    15.26
      114.0,      13.90,    13.42,    13.54,    13.43,    15.21
      115.0,      13.85,    13.37,    13.45,    13.40,    15.16
      116.0,      13.79,    13.33,    13.35,    13.36,    15.12
      117.0,      13.74,    13.28,    13.26,    13.33,    15.07
      118.0,      13.68,    13.24,    13.17,    13.30,    15.03
      119.0,      13.63,    13.19,    13.09,    13.26,    14.98
      120.0,      13.58,    13.15,    13.00,    13.23,    14.94
      121.0,      13.53,    13.11,    12.92,    13.20,    14.90
      122.0,      13.48,    13.07,    12.84,    13.17,    14.86
      123.0,      13.44,    13.03,    12.75,    13.14,    14.82
      124.0,      13.39,    12.99,    12.68,    13.11,    14.78
      125.0,      13.35,    12.96,    12.60,    13.09,    14.74
      126.0,      13.30,    12.92,    12.52,    13.06,    14.71
      127.0,      13.26,    12.89,    12.45,    13.03,    14.67
      128.0,      13.22,    12.85,    12.38,    13.01,    14.64
      129.0,      13.18,    12.82,    12.30,    12.98,    14.60
      130.0,      13.14,    12.79,    12.23,    12.95,    14.57
      131.0,      13.10,    12.76,    12.17,    12.93,    14.54
      132.0,      13.06,    12.73,    12.10,    12.91,    14.51
      133.0,      13.02,    12.70,    12.03,    12.88,    14.48
      134.0,      12.98,    12.67,    11.97,    12.86,    14.45
      135.0,      12.95,    12.64,    11.90,    12.84,    14.42
      136.0,      12.91,    12.61,    11.84,    12.81,    14.39
      137.0,      12.88,    12.58,    11.78,    12.79,    14.36
      138.0,      12.84,    12.56,    11.72,    12.77,    14.33
      139.0,      12.81,    12.53,    11.66,    12.75,    14.30
      140.0,      12.78,    12.51,    11.61,    12.73,    14.28
      141.0,      12.75,    12.48,    11.55,    12.71,    14.25
      142.0,      12.72,    12.46,    11.49,    12.69,    14.23
      143.0,      12.68,    12.43,    11.44,    12.67,    14.20
      144.0,      12.65,    12.41,    11.39,    12.65,    14.18
      145.0,      12.62,    12.39,    11.33,    12.63,    14.15
      146.0,      12.60,    12.36,    11.28,    12.61,    14.13
      147.0,      12.57,    12.34,    11.23,    12.59,    14.10
      148.0,      12.54,    12.32,    11.18,    12.57,    14.08
      149.0,      12.51,    12.30,    11.13,    12.55,    14.06
      150.0,      12.48,    12.28,    11.09,    12.54,    14.04
      151.0,      12.46,    12.26,    11.04,    12.52,    14.01
      152.0,      12.43,    12.24,    10.99,    12.50,    13.99
      153.0,      12.40,    12.22,    10.95,    12.48,    13.97
      154.0,      12.38,    12.20,    10.90,    12.47,    13.95
      155.0,      12.35,    12.18,    10.86,    12.45,    13.93
      156.0,      12.33,    12.16,    10.82,    12.43,    13.91
      157.0,      12.31,    12.14,    10.78,    12.41,    13.89
      158.0,      12.28,    12.12,    10.74,    12.40,    13.87
      159.0,      12.26,    12.10,    10.70,    12.38,    13.85
      160.0,      12.23,    12.08,    10.66,    12.37,    13.83
      161.0,      12.21,    12.07,    10.62,    12.35,    13.81
      162.0,      12.19,    12.05,    10.58,    12.33,    13.79
      163.0,      12.17,    12.03,    10.54,    12.32,    13.77
      164.0,      12.14,    12.02,    10.50,    12.30,    13.76
      165.0,      12.12,    12.00,    10.47,    12.29,    13.74
      166.0,      12.10,    11.98,    10.43,    12.27,    13.72
      167.0,      12.08,    11.97,    10.40,    12.26,    13.70
      168.0,      12.06,    11.95,    10.36,    12.24,    13.68
      169.0,      12.04,    11.93,    10.33,    12.23,    13.67
      170.0,      12.02,    11.92,    10.30,    12.21,    13.65
      171.0,      12.00,    11.90,    10.26,    12.20,    13.63
      172.0,      11.98,    11.89,    10.23,    12.18,    13.61
      173.0,      11.96,    11.87,    10.20,    12.17,    13.60
      174.0,      11.94,    11.86,    10.17,    12.16,    13.58
      175.0,      11.92,    11.84,    10.14,    12.14,    13.56
      176.0,      11.90,    11.83,    10.11,    12.13,    13.55
      177.0,      11.88,    11.81,    10.08,    12.11,    13.53
      178.0,      11.86,    11.80,    10.05,    12.10,    13.52
      179.0,      11.85,    11.78,    10.02,    12.09,    13.50
      180.0,      11.83,    11.77,     9.99,    12.07,    13.48
      181.0,      11.81,    11.75,     9.96,    12.06,    13.47
      182.0,      11.79,    11.74,     9.93,    12.05,    13.45
      183.0,      11.78,    11.73,     9.91,    12.03,    13.44
      184.0,      11.76,    11.71,     9.88,    12.02,    13.42
      185.0,      11.74,    11.70,     9.85,    12.00,    13.40
      186.0,      11.72,    11.68,     9.83,    11.99,    13.39
      187.0,      11.71,    11.67,     9.80,    11.98,    13.37
      188.0,      11.69,    11.66,     9.78,    11.97,    13.36
      189.0,      11.67,    11.64,     9.75,    11.95,    13.34
      190.0,      11.66,    11.63,     9.73,    11.94,    13.33
      191.0,      11.64,    11.62,     9.71,    11.93,    13.31
      192.0,      11.62,    11.60,     9.68,    11.91,    13.30
      193.0,      11.61,    11.59,     9.66,    11.90,    13.28
      194.0,      11.59,    11.58,     9.64,    11.89,    13.27
      195.0,      11.58,    11.56,     9.61,    11.87,    13.26
      196.0,      11.56,    11.55,     9.59,    11.86,    13.24
      197.0,      11.55,    11.54,     9.57,    11.85,    13.23
      198.0,      11.53,    11.53,     9.55,    11.84,    13.21
      199.0,      11.51,    11.51,     9.53,    11.82,    13.20
      200.0,      11.50,    11.50,     9.50,    11.81,    13.18
      201.0,      11.48,    11.49,     9.48,    11.80,    13.17
      202.0,      11.47,    11.47,     9.46,    11.79,    13.15
      203.0,      11.45,    11.46,     9.44,    11.77,    13.14
      204.0,      11.44,    11.45,     9.42,    11.76,    13.13
      205.0,      11.43,    11.44,     9.40,    11.75,    13.11
      206.0,      11.41,    11.43,     9.38,    11.74,    13.10
      207.0,      11.40,    11.41,     9.36,    11.72,    13.08
      208.0,      11.38,    11.40,     9.35,    11.71,    13.07
      209.0,      11.37,    11.39,     9.33,    11.70,    13.06
      210.0,      11.35,    11.38,     9.31,    11.69,    13.04
      211.0,      11.34,    11.36,     9.29,    11.68,    13.03
      212.0,      11.33,    11.35,     9.27,    11.66,    13.02
      213.0,      11.31,    11.34,     9.25,    11.65,    13.00
      214.0,      11.30,    11.33,     9.24,    11.64,    12.99
      215.0,      11.28,    11.32,     9.22,    11.63,    12.97
      216.0,      11.27,    11.30,     9.20,    11.62,    12.96
      217.0,      11.26,    11.29,     9.18,    11.60,    12.95
      218.0,      11.24,    11.28,     9.17,    11.59,    12.93
      219.0,      11.23,    11.27,     9.15,    11.58,    12.92
      220.0,      11.22,    11.26,     9.13,    11.57,    12.91
      221.0,      11.20,    11.24,     9.12,    11.56,    12.89
      222.0,      11.19,    11.23,     9.10,    11.54,    12.88
      223.0,      11.18,    11.22,     9.09,    11.53,    12.87
      224.0,      11.16,    11.21,     9.07,    11.52,    12.85
      225.0,      11.15,    11.20,     9.05,    11.51,    12.84
      226.0,      11.14,    11.19,     9.04,    11.50,    12.83
      227.0,      11.12,    11.17,     9.02,    11.48,    12.81
      228.0,      11.11,    11.16,     9.01,    11.47,    12.80
      229.0,      11.10,    11.15,     8.99,    11.46,    12.79
      230.0,      11.09,    11.14,     8.98,    11.45,    12.77
      231.0,      11.07,    11.13,     8.96,    11.44,    12.76
      232.0,      11.06,    11.12,     8.95,    11.43,    12.75
      233.0,      11.05,    11.11,     8.94,    11.41,    12.74
      234.0,      11.04,    11.09,     8.92,    11.40,    12.72
      235.0,      11.02,    11.08,     8.91,    11.39,    12.71
      236.0,      11.01,    11.07,     8.89,    11.38,    12.70
      237.0,      11.00,    11.06,     8.88,    11.37,    12.68
      238.0,      10.99,    11.05,     8.87,    11.36,    12.67
      239.0,      10.97,    11.04,     8.85,    11.35,    12.66
      240.0,      10.96,    11.03,     8.84,    11.33,    12.64
      241.0,      10.95,    11.02,     8.83,    11.32,    12.63
      242.0,      10.94,    11.00,     8.81,    11.31,    12.62
      243.0,      10.92,    10.99,     8.80,    11.30,    12.61
      244.0,      10.91,    10.98,     8.79,    11.29,    12.59
      245.0,      10.90,    10.97,     8.77,    11.28,    12.58
      246.0,      10.89,    10.96,     8.76,    11.27,    12.57
      247.0,      10.88,    10.95,     8.75,    11.25,    12.56
      248.0,      10.86,    10.94,     8.74,    11.24,    12.54
      249.0,      10.85,    10.93,     8.72,    11.23,    12.53
      250.0,      10.84,    10.92,     8.71,    11.22,    12.52
      251.0,      10.83,    10.90,     8.70,    11.21,    12.50
      252.0,      10.82,    10.89,     8.69,    11.20,    12.49
      253.0,      10.81,    10.88,     8.67,    11.19,    12.48
      254.0,      10.79,    10.87,     8.66,    11.17,    12.47
      255.0,      10.78,    10.86,     8.65,    11.16,    12.45
      256.0,      10.77,    10.85,     8.64,    11.15,    12.44
      257.0,      10.76,    10.84,     8.63,    11.14,    12.43
      258.0,      10.75,    10.83,     8.61,    11.13,    12.42
      259.0,      10.74,    10.82,     8.60,    11.12,    12.40
      260.0,      10.72,    10.81,     8.59,    11.11,    12.39
      261.0,      10.71,    10.79,     8.58,    11.10,    12.38
      262.0,      10.70,    10.78,     8.57,    11.09,    12.37
      263.0,      10.69,    10.77,     8.56,    11.07,    12.35
      264.0,      10.68,    10.76,     8.55,    11.06,    12.34
      265.0,      10.67,    10.75,     8.53,    11.05,    12.33
      266.0,      10.66,    10.74,     8.52,    11.04,    12.32
      267.0,      10.64,    10.73,     8.51,    11.03,    12.30
      268.0,      10.63,    10.72,     8.50,    11.02,    12.29
      269.0,      10.62,    10.71,     8.49,    11.01,    12.28
      270.0,      10.61,    10.70,     8.48,    11.00,    12.27
      271.0,      10.60,    10.69,     8.47,    10.99,    12.25
      272.0,      10.59,    10.68,     8.46,    10.97,    12.24
      273.0,      10.58,    10.66,     8.45,    10.96,    12.23
      274.0,      10.57,    10.65,     8.44,    10.95,    12.22
      275.0,      10.55,    10.64,     8.43,    10.94,    12.21
      276.0,      10.54,    10.63,     8.42,    10.93,    12.19
      277.0,      10.53,    10.62,     8.41,    10.92,    12.18
      278.0,      10.52,    10.61,     8.40,    10.91,    12.17
      279.0,      10.51,    10.60,     8.39,    10.90,    12.16
      280.0,      10.50,    10.59,     8.38,    10.89,    12.14
      281.0,      10.49,    10.58,     8.37,    10.88,    12.13
      282.0,      10.48,    10.57,     8.35,    10.86,    12.12
      283.0,      10.47,    10.56,     8.34,    10.85,    12.11
      284.0,      10.46,    10.55,     8.33,    10.84,    12.10
      285.0,      10.44,    10.54,     8.32,    10.83,    12.08
      286.0,      10.43,    10.53,     8.31,    10.82,    12.07
      287.0,      10.42,    10.52,     8.30,    10.81,    12.06
      288.0,      10.41,    10.51,     8.30,    10.80,    12.05
      289.0,      10.40,    10.49,     8.29,    10.79,    12.04
      290.0,      10.39,    10.48,     8.28,    10.78,    12.02
      291.0,      10.38,    10.47,     8.27,    10.77,    12.01
      292.0,      10.37,    10.46,     8.26,    10.76,    12.00
      293.0,      10.36,    10.45,     8.25,    10.75,    11.99
      294.0,      10.35,    10.44,     8.24,    10.73,    11.98
      295.0,      10.34,    10.43,     8.23,    10.72,    11.96
      296.0,      10.33,    10.42,     8.22,    10.71,    11.95
      297.0,      10.32,    10.41,     8.21,    10.70,    11.94
      298.0,      10.30,    10.40,     8.20,    10.69,    11.93
      299.0,      10.29,    10.39,     8.19,    10.68,    11.92
      300.0,      10.28,    10.38,     8.18,    10.67,    11.90
      301.0,      10.27,    10.37,     8.17,    10.66,    11.89
      302.0,      10.26,    10.36,     8.16,    10.65,    11.88
      303.0,      10.25,    10.35,     8.15,    10.64,    11.87
      304.0,      10.24,    10.34,     8.14,    10.63,    11.86
      305.0,      10.23,    10.33,     8.13,    10.62,    11.84
      306.0,      10.22,    10.32,     8.12,    10.61,    11.83
      307.0,      10.21,    10.31,     8.12,    10.60,    11.82
      308.0,      10.20,    10.30,     8.11,    10.59,    11.81
      309.0,      10.19,    10.29,     8.10,    10.57,    11.80
      310.0,      10.18,    10.28,     8.09,    10.56,    11.78
