Radius (km), Mean (m/s), NE (m/s), SE (m/s), SW (m/s), NW (m/s)
        0.0,       1.79,     2.09,     1.71,     1.31,     2.07
        1.0,       6.30,     6.60,     6.18,     5.87,     6.55
        2.0,      11.82,    12.48,    11.71,    10.70,    12.37
        3.0,      18.00,    19.22,    17.92,    15.83,    19.05
        4.0,      24.56,    26.45,    24.51,    21.07,    26.20
        5.0,      31.12,    33.74,    31.13,    26.21,    33.41
        6.0,      37.32,    40.65,    37.38,    31.00,    40.26
        7.0,      42.81,    46.77,    42.93,    35.20,    46.34
        8.0,      47.31,    51.79,    47.47,    38.62,    51.34
        9.0,      50.65,    55.52,    50.84,    41.16,    55.07
       10.0,      52.79,    57.89,    53.00,    42.80,    57.49
       11.0,      53.82,    58.99,    54.00,    43.60,    58.67
       12.0,      53.90,    59.03,    54.04,    43.70,    58.81
       13.0,      53.26,    58.27,    53.34,    43.28,    58.16
       14.0,      52.17,    56.99,    52.16,    42.52,    57.01
       15.0,      50.85,    55.46,    50.74,    41.58,    55.60
       16.0,      49.46,    53.87,    49.26,    40.59,    54.13
       17.0,      48.12,    52.32,    47.81,    39.63,    52.70
       18.0,      46.84,    50.86,    46.44,    38.71,    51.34
       19.0,      45.63,    49.47,    45.15,    37.84,    50.05
       20.0,      44.47,    48.14,    43.91,    37.00,    48.81
       21.0,      43.35,    46.86,    42.72,    36.19,    47.62
       22.0,      42.27,    45.63,    41.57,    35.41,    46.46
       23.0,      41.23,    44.45,    40.47,    34.65,    45.35
       24.0,      40.23,    43.31,    39.41,    33.92,    44.28
       25.0,      39.27,    42.22,    38.40,    33.22,    43.24
       26.0,      38.34,    41.17,    37.42,    32.54,    42.25
       27.0,      37.45,    40.16,    36.48,    31.88,    41.29
       28.0,      36.59,    39.19,    35.58,    31.24,    40.36
       29.0,      35.77,    38.26,    34.71,    30.63,    39.46
       30.0,      34.97,    37.36,    33.87,    30.04,    38.60
       31.0,      34.20,    36.50,    33.07,    29.46,    37.77
       32.0,      33.46,    35.67,    32.30,    28.91,    36.97
       33.0,      32.75,    34.88,    31.56,    28.37,    36.19
       34.0,      32.06,    34.11,    30.84,    27.86,    35.45
       35.0,      31.40,    33.37,    30.16,    27.36,    34.73
       36.0,      30.77,    32.66,    29.50,    26.88,    34.04
       37.0,      30.16,    31.98,    28.86,    26.41,    33.37
       38.0,      29.57,    31.33,    28.25,    25.96,    32.72
       39.0,      29.00,    30.70,    27.67,    25.52,    32.10
       40.0,      28.45,    30.09,    27.10,    25.10,    31.50
       41.0,      27.92,    29.51,    26.56,    24.70,    30.92
       42.0,      27.41,    28.95,    26.04,    24.31,    30.36
       43.0,      26.92,    28.41,    25.54,    23.93,    29.82
       44.0,      26.45,    27.89,    25.05,    23.56,    29.30
       45.0,      26.00,    27.39,    24.59,    23.20,    28.80
       46.0,      25.56,    26.91,    24.14,    22.86,    28.31
       47.0,      25.13,    26.45,    23.71,    22.53,    27.84
       48.0,      24.73,    26.00,    23.30,    22.21,    27.39
       49.0,      24.33,    25.58,    22.90,    21.90,    26.96
       50.0,      23.96,    25.17,    22.52,    21.60,    26.54
       51.0,      23.59,    24.77,    22.15,    21.31,    26.13
       52.0,      23.24,    24.39,    21.80,    21.03,    25.74
       53.0,      22.90,    24.02,    21.46,    20.76,    25.36
       54.0,      22.57,    23.67,    21.13,    20.50,    25.00
       55.0,      22.26,    23.33,    20.81,    20.25,    24.65
       56.0,      21.96,    23.00,    20.51,    20.00,    24.31
       57.0,      21.66,    22.69,    20.22,    19.77,    23.98
       58.0,      21.38,    22.39,    19.94,    19.54,    23.67
       59.0,      21.11,    22.09,    19.66,    19.32,    23.36
       60.0,      20.85,    21.81,    19.40,    19.10,    23.06
       61.0,      20.59,    21.54,    19.15,    18.89,    22.78
       62.0,      20.35,    21.28,    18.91,    18.69,    22.51
       63.0,      20.11,    21.03,    18.68,    18.50,    22.24
       64.0,      19.89,    20.79,    18.45,    18.31,    21.98
       65.0,      19.67,    20.56,    18.24,    18.13,    21.74
       66.0,      19.45,    20.34,    18.03,    17.95,    21.50
       67.0,      19.25,    20.12,    17.83,    17.78,    21.26
       68.0,      19.05,    19.91,    17.64,    17.62,    21.04
       69.0,      18.86,    19.71,    17.45,    17.46,    20.83
       70.0,      18.68,    19.52,    17.27,    17.31,    20.62
       71.0,      18.50,    19.33,    17.10,    17.16,    20.42
       72.0,      18.33,    19.15,    16.93,    17.01,    20.22
       73.0,      18.16,    18.98,    16.77,    16.87,    20.03
       74.0,      18.00,    18.81,    16.62,    16.73,    19.85
       75.0,      17.85,    18.65,    16.47,    16.60,    19.67
       76.0,      17.70,    18.50,    16.33,    16.48,    19.50
       77.0,      17.56,    18.35,    16.19,    16.35,    19.34
       78.0,      17.42,    18.20,    16.06,    16.23,    19.18
       79.0,      17.28,    18.07,    15.93,    16.12,    19.03
       80.0,      17.15,    17.93,    15.80,    16.00,    18.88
       81.0,      17.03,    17.80,    15.68,    15.89,    18.74
       82.0,      16.91,    17.68,    15.57,    15.79,    18.60
       83.0,      16.79,    17.56,    15.46,    15.69,    18.46
       84.0,      16.68,    17.44,    15.35,    15.59,    18.33
       85.0,      16.57,    17.33,    15.24,    15.49,    18.20
       86.0,      16.46,    17.22,    15.14,    15.40,    18.08
       87.0,      16.36,    17.11,    15.05,    15.31,    17.96
       88.0,      16.26,    17.01,    14.95,    15.22,    17.85
       89.0,      16.16,    16.91,    14.86,    15.13,    17.74
       90.0,      16.07,    16.82,    14.77,    15.05,    17.63
       91.0,      15.98,    16.73,    14.69,    14.97,    17.53
       92.0,      15.89,    16.64,    14.61,    14.89,    17.43
       93.0,      15.81,    16.55,    14.53,    14.81,    17.33
       94.0,      15.72,    16.47,    14.45,    14.74,    17.23
       95.0,      15.65,    16.39,    14.38,    14.67,    17.14
       96.0,      15.57,    16.31,    14.31,    14.60,    17.05
       97.0,      15.49,    16.24,    14.24,    14.53,    16.97
       98.0,      15.42,    16.16,    14.17,    14.47,    16.88
       99.0,      15.35,    16.09,    14.11,    14.40,    16.80
      100.0,      15.28,    16.03,    14.04,    14.34,    16.72
      101.0,      15.22,    15.96,    13.98,    14.28,    16.65
      102.0,      15.15,    15.89,    13.92,    14.22,    16.57
      103.0,      15.09,    15.83,    13.87,    14.16,    16.50
      104.0,      15.03,    15.77,    13.81,    14.11,    16.43
      105.0,      14.97,    15.71,    13.76,    14.05,    16.36
      106.0,      14.92,    15.66,    13.71,    14.00,    16.30
      107.0,      14.86,    15.60,    13.66,    13.95,    16.23
      108.0,      14.81,    15.55,    13.61,    13.90,    16.17
      109.0,      14.75,    15.50,    13.56,    13.85,    16.11
      110.0,      14.70,    15.45,    13.51,    13.80,    16.05
      111.0,      14.65,    15.40,    13.47,    13.76,    15.99
      112.0,      14.61,    15.35,    13.42,    13.71,    15.94
      113.0,      14.56,    15.30,    13.38,    13.67,    15.88
      114.0,      14.51,    15.26,    13.34,    13.62,    15.83
      115.0,      14.47,    15.21,    13.30,    13.58,    15.78
      116.0,      14.43,    15.17,    13.26,    13.54,    15.73
      117.0,      14.38,    15.13,    13.22,    13.50,    15.68
      118.0,      14.34,    15.09,    13.19,    13.46,    15.63
      119.0,      14.30,    15.05,    13.15,    13.42,    15.59
      120.0,      14.26,    15.01,    13.12,    13.38,    15.54
      121.0,      14.23,    14.97,    13.08,    13.35,    15.50
      122.0,      14.19,    14.94,    13.05,    13.31,    15.46
      123.0,      14.15,    14.90,    13.02,    13.28,    15.41
      124.0,      14.12,    14.87,    12.98,    13.24,    15.37
      125.0,      14.08,    14.83,    12.95,    13.21,    15.33
      126.0,      14.05,    14.80,    12.92,    13.18,    15.29
      127.0,      14.02,    14.77,    12.89,    13.14,    15.26
      128.0,      13.98,    14.73,    12.87,    13.11,    15.22
      129.0,      13.95,    14.70,    12.84,    13.08,    15.18
      130.0,      13.92,    14.67,    12.81,    13.05,    15.15
      131.0,      13.89,    14.64,    12.78,    13.02,    15.11
      132.0,      13.86,    14.61,    12.76,    12.99,    15.08
      133.0,      13.83,    14.59,    12.73,    12.97,    15.04
      134.0,      13.80,    14.56,    12.71,    12.94,    15.01
      135.0,      13.78,    14.53,    12.68,    12.91,    14.98
      136.0,      13.75,    14.50,    12.66,    12.88,    14.95
      137.0,      13.72,    14.48,    12.63,    12.86,    14.92
      138.0,      13.69,    14.45,    12.61,    12.83,    14.89
      139.0,      13.67,    14.43,    12.59,    12.81,    14.86
      140.0,      13.64,    14.40,    12.56,    12.78,    14.83
      141.0,      13.62,    14.38,    12.54,    12.76,    14.80
      142.0,      13.59,    14.35,    12.52,    12.73,    14.77
      143.0,      13.57,    14.33,    12.50,    12.71,    14.74
      144.0,      13.55,    14.31,    12.48,    12.68,    14.72
      145.0,      13.52,    14.28,    12.46,    12.66,    14.69
      146.0,      13.50,    14.26,    12.44,    12.64,    14.67
      147.0,      13.48,    14.24,    12.42,    12.62,    14.64
      148.0,      13.46,    14.22,    12.40,    12.59,    14.61
      149.0,      13.43,    14.19,    12.38,    12.57,    14.59
      150.0,      13.41,    14.17,    12.36,    12.55,    14.57
      151.0,      13.39,    14.15,    12.34,    12.53,    14.54
      152.0,      13.37,    14.13,    12.32,    12.51,    14.52
      153.0,      13.35,    14.11,    12.30,    12.49,    14.49
      154.0,      13.33,    14.09,    12.29,    12.47,    14.47
      155.0,      13.31,    14.07,    12.27,    12.45,    14.45
      156.0,      13.29,    14.05,    12.25,    12.43,    14.43
      157.0,      13.27,    14.03,    12.23,    12.41,    14.41
      158.0,      13.25,    14.01,    12.22,    12.39,    14.38
      159.0,      13.23,    13.99,    12.20,    12.37,    14.36
      160.0,      13.21,    13.97,    12.18,    12.35,    14.34
      161.0,      13.19,    13.96,    12.17,    12.33,    14.32
      162.0,      13.18,    13.94,    12.15,    12.32,    14.30
      163.0,      13.16,    13.92,    12.14,    12.30,    14.28
      164.0,      13.14,    13.90,    12.12,    12.28,    14.26
      165.0,      13.12,    13.88,    12.10,    12.26,    14.24
      166.0,      13.10,    13.87,    12.09,    12.25,    14.22
      167.0,      13.09,    13.85,    12.07,    12.23,    14.20
      168.0,      13.07,    13.83,    12.06,    12.21,    14.18
      169.0,      13.05,    13.81,    12.04,    12.19,    14.16
      170.0,      13.04,    13.80,    12.03,    12.18,    14.14
      171.0,      13.02,    13.78,    12.01,    12.16,    14.12
      172.0,      13.00,    13.76,    12.00,    12.14,    14.11
      173.0,      12.99,    13.75,    11.98,    12.13,    14.09
      174.0,      12.97,    13.73,    11.97,    12.11,    14.07
      175.0,      12.95,    13.71,    11.95,    12.09,    14.05
      176.0,      12.94,    13.70,    11.94,    12.08,    14.03
      177.0,      12.92,    13.68,    11.93,    12.06,    14.02
      178.0,      12.91,    13.67,    11.91,    12.05,    14.00
      179.0,      12.89,    13.65,    11.90,    12.03,    13.98
      180.0,      12.87,    13.63,    11.88,    12.02,    13.96
      181.0,      12.86,    13.62,    11.87,    12.00,    13.95
      182.0,      12.84,    13.60,    11.86,    11.98,    13.93
      183.0,      12.83,    13.59,    11.84,    11.97,    13.91
      184.0,      12.81,    13.57,    11.83,    11.95,    13.90
      185.0,      12.80,    13.56,    11.82,    11.94,    13.88
      186.0,      12.78,    13.54,    11.80,    11.92,    13.86
      187.0,      12.77,    13.53,    11.79,    11.91,    13.85
      188.0,      12.75,    13.51,    11.78,    11.89,    13.83
      189.0,      12.74,    13.50,    11.76,    11.88,    13.82
      190.0,      12.72,    13.48,    11.75,    11.87,    13.80
      191.0,      12.71,    13.47,    11.74,    11.85,    13.78
      192.0,      12.70,    13.45,    11.72,    11.84,    13.77
      193.0,      12.68,    13.44,    11.71,    11.82,    13.75
      194.0,      12.67,    13.42,    11.70,    11.81,    13.74
      195.0,      12.65,    13.41,    11.69,    11.79,    13.72
      196.0,      12.64,    13.39,    11.67,    11.78,    13.70
      197.0,      12.62,    13.38,    11.66,    11.77,    13.69
      198.0,      12.61,    13.37,    11.65,    11.75,    13.67
      199.0,      12.60,    13.35,    11.63,    11.74,    13.66
      200.0,      12.58,    13.34,    11.62,    11.72,    13.64
      201.0,      12.57,    13.32,    11.61,    11.71,    13.63
      202.0,      12.55,    13.31,    11.60,    11.70,    13.61
      203.0,      12.54,    13.29,    11.59,    11.68,    13.60
      204.0,      12.53,    13.28,    11.57,    11.67,    13.58
      205.0,      12.51,    13.27,    11.56,    11.66,    13.57
      206.0,      12.50,    13.25,    11.55,    11.64,    13.55
      207.0,      12.49,    13.24,    11.54,    11.63,    13.54
      208.0,      12.47,    13.22,    11.52,    11.62,    13.52
      209.0,      12.46,    13.21,    11.51,    11.60,    13.51
      210.0,      12.44,    13.20,    11.50,    11.59,    13.50
      211.0,      12.43,    13.18,    11.49,    11.58,    13.48
      212.0,      12.42,    13.17,    11.48,    11.56,    13.47
      213.0,      12.40,    13.15,    11.46,    11.55,    13.45
      214.0,      12.39,    13.14,    11.45,    11.54,    13.44
      215.0,      12.38,    13.13,    11.44,    11.52,    13.42
      216.0,      12.37,    13.11,    11.43,    11.51,    13.41
      217.0,      12.35,    13.10,    11.42,    11.50,    13.39
      218.0,      12.34,    13.09,    11.40,    11.48,    13.38
      219.0,      12.33,    13.07,    11.39,    11.47,    13.37
      220.0,      12.31,    13.06,    11.38,    11.46,    13.35
      221.0,      12.30,    13.05,    11.37,    11.45,    13.34
      222.0,      12.29,    13.03,    11.36,    11.43,    13.32
      223.0,      12.27,    13.02,    11.35,    11.42,    13.31
      224.0,      12.26,    13.01,    11.33,    11.41,    13.30
      225.0,      12.25,    12.99,    11.32,    11.39,    13.28
      226.0,      12.23,    12.98,    11.31,    11.38,    13.27
      227.0,      12.22,    12.97,    11.30,    11.37,    13.25
      228.0,      12.21,    12.95,    11.29,    11.36,    13.24
      229.0,      12.20,    12.94,    11.28,    11.34,    13.23
      230.0,      12.18,    12.93,    11.26,    11.33,    13.21
      231.0,      12.17,    12.91,    11.25,    11.32,    13.20
      232.0,      12.16,    12.90,    11.24,    11.31,    13.19
      233.0,      12.15,    12.89,    11.23,    11.29,    13.17
      234.0,      12.13,    12.87,    11.22,    11.28,    13.16
      235.0,      12.12,    12.86,    11.21,    11.27,    13.15
      236.0,      12.11,    12.85,    11.20,    11.26,    13.13
      237.0,      12.10,    12.83,    11.18,    11.24,    13.12
      238.0,      12.08,    12.82,    11.17,    11.23,    13.10
      239.0,      12.07,    12.81,    11.16,    11.22,    13.09
      240.0,      12.06,    12.80,    11.15,    11.21,    13.08
      241.0,      12.05,    12.78,    11.14,    11.20,    13.06
      242.0,      12.03,    12.77,    11.13,    11.18,    13.05
      243.0,      12.02,    12.76,    11.12,    11.17,    13.04
      244.0,      12.01,    12.74,    11.10,    11.16,    13.02
      245.0,      12.00,    12.73,    11.09,    11.15,    13.01
      246.0,      11.98,    12.72,    11.08,    11.13,    13.00
      247.0,      11.97,    12.71,    11.07,    11.12,    12.98
      248.0,      11.96,    12.69,    11.06,    11.11,    12.97
      249.0,      11.95,    12.68,    11.05,    11.10,    12.96
      250.0,      11.93,    12.67,    11.04,    11.09,    12.94
      251.0,      11.92,    12.65,    11.03,    11.07,    12.93
      252.0,      11.91,    12.64,    11.01,    11.06,    12.92
      253.0,      11.90,    12.63,    11.00,    11.05,    12.91
      254.0,      11.88,    12.62,    10.99,    11.04,    12.89
      255.0,      11.87,    12.60,    10.98,    11.03,    12.88
      256.0,      11.86,    12.59,    10.97,    11.01,    12.87
      257.0,      11.85,    12.58,    10.96,    11.00,    12.85
      258.0,      11.84,    12.56,    10.95,    10.99,    12.84
      259.0,      11.82,    12.55,    10.94,    10.98,    12.83
      260.0,      11.81,    12.54,    10.93,    10.97,    12.81
      261.0,      11.80,    12.53,    10.92,    10.96,    12.80
      262.0,      11.79,    12.51,    10.90,    10.94,    12.79
      263.0,      11.78,    12.50,    10.89,    10.93,    12.78
      264.0,      11.76,    12.49,    10.88,    10.92,    12.76
      265.0,      11.75,    12.48,    10.87,    10.91,    12.75
      266.0,      11.74,    12.46,    10.86,    10.90,    12.74
      267.0,      11.73,    12.45,    10.85,    10.89,    12.72
      268.0,      11.72,    12.44,    10.84,    10.87,    12.71
      269.0,      11.70,    12.43,    10.83,    10.86,    12.70
      270.0,      11.69,    12.41,    10.82,    10.85,    12.69
      271.0,      11.68,    12.40,    10.81,    10.84,    12.67
      272.0,      11.67,    12.39,    10.80,    10.83,    12.66
      273.0,      11.66,    12.38,    10.78,    10.82,    12.65
      274.0,      11.64,    12.36,    10.77,    10.80,    12.63
      275.0,      11.63,    12.35,    10.76,    10.79,    12.62
      276.0,      11.62,    12.34,    10.75,    10.78,    12.61
      277.0,      11.61,    12.33,    10.74,    10.77,    12.60
      278.0,      11.60,    12.31,    10.73,    10.76,    12.58
      279.0,      11.58,    12.30,    10.72,    10.75,    12.57
      280.0,      11.57,    12.29,    10.71,    10.73,    12.56
      281.0,      11.56,    12.28,    10.70,    10.72,    12.55
      282.0,      11.55,    12.27,    10.69,    10.71,    12.53
      283.0,      11.54,    12.25,    10.68,    10.70,    12.52
      284.0,      11.53,    12.24,    10.67,    10.69,    12.51
      285.0,      11.51,    12.23,    10.66,    10.68,    12.50
      286.0,      11.50,    12.22,    10.64,    10.67,    12.48
      287.0,      11.49,    12.20,    10.63,    10.65,    12.47
      288.0,      11.48,    12.19,    10.62,    10.64,    12.46
      289.0,      11.47,    12.18,    10.61,    10.63,    12.44
      290.0,      11.46,    12.17,    10.60,    10.62,    12.43
      291.0,      11.44,    12.16,    10.59,    10.61,    12.42
      292.0,      11.43,    12.14,    10.58,    10.60,    12.41
      293.0,      11.42,    12.13,    10.57,    10.59,    12.39
      294.0,      11.41,    12.12,    10.56,    10.57,    12.38
      295.0,      11.40,    12.11,    10.55,    10.56,    12.37
      296.0,      11.39,    12.09,    10.54,    10.55,    12.36
      297.0,      11.37,    12.08,    10.53,    10.54,    12.35
      298.0,      11.36,    12.07,    10.52,    10.53,    12.33
      299.0,      11.35,    12.06,    10.51,    10.52,    12.32
      300.0,      11.34,    12.05,    10.50,    10.51,    12.31
      301.0,      11.33,    12.03,    10.49,    10.50,    12.30
      302.0,      11.32,    12.02,    10.48,    10.48,    12.28
      303.0,      11.30,    12.01,    10.46,    10.47,    12.27
      304.0,      11.29,    12.00,    10.45,    10.46,    12.26
      305.0,      11.28,    11.99,    10.44,    10.45,    12.25
      306.0,      11.27,    11.97,    10.43,    10.44,    12.23
      307.0,      11.26,    11.96,    10.42,    10.43,    12.22
      308.0,      11.25,    11.95,    10.41,    10.42,    12.21
      309.0,      11.24,    11.94,    10.40,    10.41,    12.20
      310.0,      11.22,    11.93,    10.39,    10.40,    12.19
