Radius (km), Mean (m/s), NE (m/s), SE (m/s), SW (m/s), NW (m/s)
        0.0,       0.00,     0.00,     0.00,     0.00,     0.00
        1.0,       2.83,     2.69,     2.97,     2.97,     2.69
        2.0,       5.20,     5.13,     5.27,     5.28,     5.11
        3.0,       7.49,     7.57,     7.43,     7.46,     7.50
        4.0,       9.85,    10.14,     9.61,     9.67,     9.97
        5.0,      12.37,    12.96,    11.91,    12.01,    12.62
        6.0,      15.13,    16.07,    14.40,    14.54,    15.53
        7.0,      18.12,    19.46,    17.08,    17.26,    18.68
        8.0,      21.28,    23.07,    19.91,    20.10,    22.04
        9.0,      24.49,    26.73,    22.78,    22.96,    25.49
       10.0,      27.60,    30.27,    25.55,    25.71,    28.88
       11.0,      30.46,    33.51,    28.08,    28.20,    32.04
       12.0,      32.91,    36.28,    30.24,    30.30,    34.81
       13.0,      34.84,    38.44,    31.93,    31.94,    37.06
       14.0,      36.21,    39.95,    33.09,    33.05,    38.74
       15.0,      37.00,    40.80,    33.72,    33.66,    39.81
       16.0,      37.27,    41.05,    33.88,    33.81,    40.33
       17.0,      37.10,    40.81,    33.64,    33.58,    40.38
       18.0,      36.63,    40.22,    33.12,    33.09,    40.07
       19.0,      35.95,    39.41,    32.42,    32.44,    39.54
       20.0,      35.19,    38.51,    31.63,    31.72,    38.90
       21.0,      34.41,    37.60,    30.84,    31.00,    38.22
       22.0,      33.66,    36.72,    30.07,    30.30,    37.56
       23.0,      32.95,    35.88,    29.34,    29.64,    36.95
       24.0,      32.28,    35.09,    28.65,    29.01,    36.36
       25.0,      31.63,    34.32,    27.99,    28.40,    35.80
       26.0,      31.01,    33.59,    27.36,    27.82,    35.27
       27.0,      30.41,    32.88,    26.75,    27.26,    34.75
       28.0,      29.83,    32.20,    26.16,    26.73,    34.25
       29.0,      29.28,    31.54,    25.60,    26.21,    33.77
       30.0,      28.74,    30.90,    25.06,    25.71,    33.30
       31.0,      28.23,    30.29,    24.53,    25.23,    32.86
       32.0,      27.73,    29.70,    24.03,    24.77,    32.42
       33.0,      27.26,    29.14,    23.55,    24.33,    32.01
       34.0,      26.80,    28.59,    23.08,    23.91,    31.61
       35.0,      26.35,    28.06,    22.64,    23.50,    31.22
       36.0,      25.93,    27.56,    22.21,    23.10,    30.84
       37.0,      25.52,    27.07,    21.80,    22.72,    30.48
       38.0,      25.12,    26.60,    21.40,    22.36,    30.13
       39.0,      24.74,    26.14,    21.02,    22.01,    29.80
       40.0,      24.37,    25.70,    20.65,    21.67,    29.47
       41.0,      24.02,    25.28,    20.30,    21.35,    29.16
       42.0,      23.68,    24.87,    19.96,    21.03,    28.86
       43.0,      23.35,    24.48,    19.63,    20.73,    28.56
       44.0,      23.04,    24.10,    19.31,    20.44,    28.28
       45.0,      22.73,    23.74,    19.01,    20.16,    28.01
       46.0,      22.44,    23.39,    18.72,    19.90,    27.74
       47.0,      22.15,    23.05,    18.44,    19.64,    27.49
       48.0,      21.88,    22.72,    18.17,    19.39,    27.24
       49.0,      21.62,    22.41,    17.91,    19.15,    27.00
       50.0,      21.36,    22.10,    17.66,    18.92,    26.77
       51.0,      21.12,    21.81,    17.42,    18.70,    26.55
       52.0,      20.88,    21.53,    17.19,    18.48,    26.33
       53.0,      20.65,    21.26,    16.96,    18.28,    26.12
       54.0,      20.43,    20.99,    16.75,    18.08,    25.92
       55.0,      20.22,    20.74,    16.54,    17.89,    25.72
       56.0,      20.02,    20.49,    16.34,    17.70,    25.53
       57.0,      19.82,    20.26,    16.15,    17.53,    25.35
       58.0,      19.63,    20.03,    15.96,    17.35,    25.17
       59.0,      19.45,    19.81,    15.79,    17.19,    25.00
       60.0,      19.27,    19.60,    15.62,    17.03,    24.83
       61.0,      19.10,    19.39,    15.45,    16.88,    24.66
       62.0,      18.93,    19.19,    15.29,    16.73,    24.51
       63.0,      18.77,    19.00,    15.14,    16.59,    24.35
       64.0,      18.62,    18.82,    14.99,    16.45,    24.20
       65.0,      18.47,    18.64,    14.85,    16.32,    24.06
       66.0,      18.32,    18.47,    14.71,    16.19,    23.92
       67.0,      18.18,    18.30,    14.58,    16.07,    23.78
       68.0,      18.05,    18.14,    14.45,    15.95,    23.65
       69.0,      17.92,    17.99,    14.33,    15.83,    23.52
       70.0,      17.79,    17.84,    14.21,    15.72,    23.40
       71.0,      17.67,    17.69,    14.09,    15.61,    23.27
       72.0,      17.55,    17.56,    13.98,    15.51,    23.16
       73.0,      17.44,    17.42,    13.88,    15.41,    23.04
       74.0,      17.33,    17.29,    13.77,    15.31,    22.93
       75.0,      17.22,    17.16,    13.67,    15.22,    22.82
       76.0,      17.12,    17.04,    13.58,    15.13,    22.71
       77.0,      17.02,    16.92,    13.49,    15.04,    22.61
       78.0,      16.92,    16.81,    13.40,    14.96,    22.51
       79.0,      16.82,    16.70,    13.31,    14.88,    22.41
       80.0,      16.73,    16.59,    13.23,    14.80,    22.31
       81.0,      16.64,    16.49,    13.15,    14.72,    22.22
       82.0,      16.56,    16.39,    13.07,    14.65,    22.12
       83.0,      16.48,    16.29,    12.99,    14.58,    22.03
       84.0,      16.39,    16.20,    12.92,    14.51,    21.95
       85.0,      16.32,    16.11,    12.85,    14.44,    21.86
       86.0,      16.24,    16.02,    12.78,    14.38,    21.78
       87.0,      16.17,    15.94,    12.72,    14.32,    21.69
       88.0,      16.09,    15.85,    12.65,    14.26,    21.61
       89.0,      16.03,    15.77,    12.59,    14.20,    21.53
       90.0,      15.96,    15.70,    12.53,    14.14,    21.46
       91.0,      15.89,    15.62,    12.48,    14.09,    21.38
       92.0,      15.83,    15.55,    12.42,    14.03,    21.31
       93.0,      15.77,    15.48,    12.37,    13.98,    21.23
       94.0,      15.70,    15.41,    12.31,    13.93,    21.16
       95.0,      15.65,    15.35,    12.26,    13.88,    21.09
       96.0,      15.59,    15.28,    12.21,    13.83,    21.03
       97.0,      15.53,    15.22,    12.17,    13.79,    20.96
       98.0,      15.48,    15.16,    12.12,    13.74,    20.89
       99.0,      15.43,    15.10,    12.08,    13.70,    20.83
      100.0,      15.37,    15.04,    12.03,    13.66,    20.76
      101.0,      15.32,    14.99,    11.99,    13.62,    20.70
      102.0,      15.27,    14.93,    11.95,    13.58,    20.64
      103.0,      15.23,    14.88,    11.91,    13.54,    20.58
      104.0,      15.18,    14.83,    11.87,    13.50,    20.52
      105.0,      15.13,    14.78,    11.83,    13.46,    20.46
      106.0,      15.09,    14.73,    11.80,    13.43,    20.40
      107.0,      15.05,    14.68,    11.76,    13.39,    20.34
      108.0,      15.00,    14.64,    11.73,    13.36,    20.29
      109.0,      14.96,    14.59,    11.69,    13.32,    20.23
      110.0,      14.92,    14.55,    11.66,    13.29,    20.18
      111.0,      14.88,    14.51,    11.63,    13.26,    20.12
      112.0,      14.84,    14.47,    11.60,    13.23,    20.07
      113.0,      14.80,    14.43,    11.57,    13.20,    20.02
      114.0,      14.77,    14.39,    11.54,    13.17,    19.97
      115.0,      14.73,    14.35,    11.51,    13.14,    19.92
      116.0,      14.69,    14.31,    11.48,    13.11,    19.87
      117.0,      14.66,    14.28,    11.45,    13.08,    19.82
      118.0,      14.62,    14.24,    11.43,    13.06,    19.77
      119.0,      14.59,    14.21,    11.40,    13.03,    19.72
      120.0,      14.56,    14.17,    11.37,    13.00,    19.67
      121.0,      14.52,    14.14,    11.35,    12.98,    19.62
      122.0,      14.49,    14.11,    11.32,    12.95,    19.57
      123.0,      14.46,    14.08,    11.30,    12.93,    19.53
      124.0,      14.43,    14.04,    11.28,    12.91,    19.48
      125.0,      14.40,    14.01,    11.25,    12.88,    19.43
      126.0,      14.37,    13.98,    11.23,    12.86,    19.39
      127.0,      14.34,    13.96,    11.21,    12.84,    19.34
      128.0,      14.31,    13.93,    11.19,    12.82,    19.30
      129.0,      14.28,    13.90,    11.17,    12.79,    19.26
      130.0,      14.25,    13.87,    11.15,    12.77,    19.21
      131.0,      14.22,    13.85,    11.13,    12.75,    19.17
      132.0,      14.20,    13.82,    11.11,    12.73,    19.13
      133.0,      14.17,    13.79,    11.09,    12.71,    19.08
      134.0,      14.14,    13.77,    11.07,    12.69,    19.04
      135.0,      14.12,    13.74,    11.05,    12.67,    19.00
      136.0,      14.09,    13.72,    11.03,    12.65,    18.96
      137.0,      14.06,    13.69,    11.01,    12.63,    18.91
      138.0,      14.04,    13.67,    11.00,    12.61,    18.87
      139.0,      14.01,    13.65,    10.98,    12.59,    18.83
      140.0,      13.99,    13.63,    10.96,    12.58,    18.79
      141.0,      13.96,    13.60,    10.94,    12.56,    18.75
      142.0,      13.94,    13.58,    10.93,    12.54,    18.71
      143.0,      13.92,    13.56,    10.91,    12.52,    18.67
      144.0,      13.89,    13.54,    10.89,    12.50,    18.63
      145.0,      13.87,    13.52,    10.88,    12.49,    18.59
      146.0,      13.85,    13.50,    10.86,    12.47,    18.55
      147.0,      13.82,    13.47,    10.85,    12.45,    18.52
      148.0,      13.80,    13.45,    10.83,    12.44,    18.48
      149.0,      13.78,    13.43,    10.82,    12.42,    18.44
      150.0,      13.75,    13.41,    10.80,    12.40,    18.40
      151.0,      13.73,    13.40,    10.79,    12.39,    18.36
      152.0,      13.71,    13.38,    10.77,    12.37,    18.32
      153.0,      13.69,    13.36,    10.76,    12.36,    18.29
      154.0,      13.67,    13.34,    10.74,    12.34,    18.25
      155.0,      13.65,    13.32,    10.73,    12.33,    18.21
      156.0,      13.62,    13.30,    10.71,    12.31,    18.17
      157.0,      13.60,    13.28,    10.70,    12.29,    18.14
      158.0,      13.58,    13.27,    10.69,    12.28,    18.10
      159.0,      13.56,    13.25,    10.67,    12.26,    18.06
      160.0,      13.54,    13.23,    10.66,    12.25,    18.03
      161.0,      13.52,    13.21,    10.65,    12.23,    17.99
      162.0,      13.50,    13.20,    10.63,    12.22,    17.96
      163.0,      13.48,    13.18,    10.62,    12.21,    17.92
      164.0,      13.46,    13.16,    10.61,    12.19,    17.88
      165.0,      13.44,    13.15,    10.59,    12.18,    17.85
      166.0,      13.42,    13.13,    10.58,    12.16,    17.81
      167.0,      13.40,    13.11,    10.57,    12.15,    17.78
      168.0,      13.38,    13.10,    10.55,    12.13,    17.74
      169.0,      13.36,    13.08,    10.54,    12.12,    17.71
      170.0,      13.34,    13.06,    10.53,    12.11,    17.67
      171.0,      13.32,    13.05,    10.52,    12.09,    17.64
      172.0,      13.30,    13.03,    10.50,    12.08,    17.60
      173.0,      13.29,    13.02,    10.49,    12.07,    17.57
      174.0,      13.27,    13.00,    10.48,    12.05,    17.53
      175.0,      13.25,    12.99,    10.47,    12.04,    17.50
      176.0,      13.23,    12.97,    10.46,    12.03,    17.46
      177.0,      13.21,    12.96,    10.44,    12.01,    17.43
      178.0,      13.19,    12.94,    10.43,    12.00,    17.40
      179.0,      13.17,    12.93,    10.42,    11.99,    17.36
      180.0,      13.15,    12.91,    10.41,    11.97,    17.33
      181.0,      13.14,    12.90,    10.40,    11.96,    17.29
      182.0,      13.12,    12.88,    10.39,    11.95,    17.26
      183.0,      13.10,    12.87,    10.37,    11.93,    17.23
      184.0,      13.08,    12.85,    10.36,    11.92,    17.19
      185.0,      13.06,    12.84,    10.35,    11.91,    17.16
      186.0,      13.05,    12.82,    10.34,    11.89,    17.13
      187.0,      13.03,    12.81,    10.33,    11.88,    17.09
      188.0,      13.01,    12.79,    10.32,    11.87,    17.06
      189.0,      12.99,    12.78,    10.31,    11.86,    17.03
      190.0,      12.97,    12.77,    10.30,    11.84,    16.99
      191.0,      12.96,    12.75,    10.28,    11.83,    16.96
      192.0,      12.94,    12.74,    10.27,    11.82,    16.93
      193.0,      12.92,    12.72,    10.26,    11.81,    16.90
      194.0,      12.90,    12.71,    10.25,    11.79,    16.86
      195.0,      12.89,    12.70,    10.24,    11.78,    16.83
      196.0,      12.87,    12.68,    10.23,    11.77,    16.80
      197.0,      12.85,    12.67,    10.22,    11.76,    16.77
      198.0,      12.84,    12.65,    10.21,    11.74,    16.73
      199.0,      12.82,    12.64,    10.20,    11.73,    16.70
      200.0,      12.80,    12.63,    10.19,    11.72,    16.67
      201.0,      12.78,    12.61,    10.18,    11.71,    16.64
      202.0,      12.77,    12.60,    10.16,    11.70,    16.61
      203.0,      12.75,    12.59,    10.15,    11.68,    16.57
      204.0,      12.73,    12.57,    10.14,    11.67,    16.54
      205.0,      12.72,    12.56,    10.13,    11.66,    16.51
      206.0,      12.70,    12.55,    10.12,    11.65,    16.48
      207.0,      12.68,    12.53,    10.11,    11.63,    16.45
      208.0,      12.67,    12.52,    10.10,    11.62,    16.42
      209.0,      12.65,    12.51,    10.09,    11.61,    16.38
      210.0,      12.63,    12.49,    10.08,    11.60,    16.35
      211.0,      12.61,    12.48,    10.07,    11.59,    16.32
      212.0,      12.60,    12.47,    10.06,    11.58,    16.29
      213.0,      12.58,    12.45,    10.05,    11.56,    16.26
      214.0,      12.57,    12.44,    10.04,    11.55,    16.23
      215.0,      12.55,    12.43,    10.03,    11.54,    16.20
      216.0,      12.53,    12.42,    10.02,    11.53,    16.17
      217.0,      12.52,    12.40,    10.01,    11.52,    16.14
      218.0,      12.50,    12.39,    10.00,    11.50,    16.11
      219.0,      12.48,    12.38,     9.99,    11.49,    16.07
      220.0,      12.47,    12.36,     9.98,    11.48,    16.04
      221.0,      12.45,    12.35,     9.97,    11.47,    16.01
      222.0,      12.43,    12.34,     9.96,    11.46,    15.98
      223.0,      12.42,    12.33,     9.95,    11.45,    15.95
      224.0,      12.40,    12.31,     9.94,    11.43,    15.92
      225.0,      12.39,    12.30,     9.93,    11.42,    15.89
      226.0,      12.37,    12.29,     9.92,    11.41,    15.86
      227.0,      12.35,    12.28,     9.91,    11.40,    15.83
      228.0,      12.34,    12.26,     9.90,    11.39,    15.80
      229.0,      12.32,    12.25,     9.89,    11.38,    15.77
      230.0,      12.30,    12.24,     9.88,    11.36,    15.74
      231.0,      12.29,    12.23,     9.87,    11.35,    15.71
      232.0,      12.27,    12.21,     9.86,    11.34,    15.68
      233.0,      12.26,    12.20,     9.85,    11.33,    15.65
      234.0,      12.24,    12.19,     9.84,    11.32,    15.62
      235.0,      12.22,    12.18,     9.83,    11.31,    15.59
      236.0,      12.21,    12.16,     9.82,    11.30,    15.56
      237.0,      12.19,    12.15,     9.81,    11.28,    15.53
      238.0,      12.18,    12.14,     9.80,    11.27,    15.50
      239.0,      12.16,    12.13,     9.79,    11.26,    15.47
      240.0,      12.15,    12.11,     9.78,    11.25,    15.44
      241.0,      12.13,    12.10,     9.77,    11.24,    15.41
      242.0,      12.11,    12.09,     9.76,    11.23,    15.39
      243.0,      12.10,    12.08,     9.75,    11.22,    15.36
      244.0,      12.08,    12.06,     9.74,    11.20,    15.33
      245.0,      12.07,    12.05,     9.73,    11.19,    15.30
      246.0,      12.05,    12.04,     9.72,    11.18,    15.27
      247.0,      12.04,    12.03,     9.71,    11.17,    15.24
      248.0,      12.02,    12.02,     9.70,    11.16,    15.21
      249.0,      12.01,    12.00,     9.69,    11.15,    15.18
      250.0,      11.99,    11.99,     9.68,    11.14,    15.15
      251.0,      11.97,    11.98,     9.67,    11.13,    15.12
      252.0,      11.96,    11.97,     9.66,    11.11,    15.10
      253.0,      11.94,    11.96,     9.65,    11.10,    15.07
      254.0,      11.93,    11.94,     9.64,    11.09,    15.04
      255.0,      11.91,    11.93,     9.63,    11.08,    15.01
      256.0,      11.90,    11.92,     9.62,    11.07,    14.98
      257.0,      11.88,    11.91,     9.61,    11.06,    14.95
      258.0,      11.87,    11.90,     9.60,    11.05,    14.92
      259.0,      11.85,    11.88,     9.59,    11.04,    14.90
      260.0,      11.84,    11.87,     9.58,    11.03,    14.87
      261.0,      11.82,    11.86,     9.57,    11.01,    14.84
      262.0,      11.81,    11.85,     9.56,    11.00,    14.81
      263.0,      11.79,    11.84,     9.55,    10.99,    14.78
      264.0,      11.78,    11.82,     9.54,    10.98,    14.76
      265.0,      11.76,    11.81,     9.53,    10.97,    14.73
      266.0,      11.75,    11.80,     9.52,    10.96,    14.70
      267.0,      11.73,    11.79,     9.51,    10.95,    14.67
      268.0,      11.72,    11.78,     9.50,    10.94,    14.64
      269.0,      11.70,    11.76,     9.49,    10.93,    14.62
      270.0,      11.69,    11.75,     9.48,    10.92,    14.59
      271.0,      11.67,    11.74,     9.48,    10.90,    14.56
      272.0,      11.66,    11.73,     9.47,    10.89,    14.53
      273.0,      11.64,    11.72,     9.46,    10.88,    14.51
      274.0,      11.63,    11.71,     9.45,    10.87,    14.48
      275.0,      11.61,    11.69,     9.44,    10.86,    14.45
      276.0,      11.60,    11.68,     9.43,    10.85,    14.42
      277.0,      11.58,    11.67,     9.42,    10.84,    14.40
      278.0,      11.57,    11.66,     9.41,    10.83,    14.37
      279.0,      11.55,    11.65,     9.40,    10.82,    14.34
      280.0,      11.54,    11.63,     9.39,    10.81,    14.31
      281.0,      11.52,    11.62,     9.38,    10.80,    14.29
      282.0,      11.51,    11.61,     9.37,    10.79,    14.26
      283.0,      11.49,    11.60,     9.36,    10.77,    14.23
      284.0,      11.48,    11.59,     9.35,    10.76,    14.21
      285.0,      11.46,    11.58,     9.34,    10.75,    14.18
      286.0,      11.45,    11.56,     9.33,    10.74,    14.15
      287.0,      11.43,    11.55,     9.32,    10.73,    14.13
      288.0,      11.42,    11.54,     9.32,    10.72,    14.10
      289.0,      11.40,    11.53,     9.31,    10.71,    14.07
      290.0,      11.39,    11.52,     9.30,    10.70,    14.05
      291.0,      11.38,    11.51,     9.29,    10.69,    14.02
      292.0,      11.36,    11.50,     9.28,    10.68,    13.99
      293.0,      11.35,    11.48,     9.27,    10.67,    13.97
      294.0,      11.33,    11.47,     9.26,    10.66,    13.94
      295.0,      11.32,    11.46,     9.25,    10.65,    13.91
      296.0,      11.30,    11.45,     9.24,    10.64,    13.89
      297.0,      11.29,    11.44,     9.23,    10.62,    13.86
      298.0,      11.27,    11.43,     9.22,    10.61,    13.83
      299.0,      11.26,    11.42,     9.21,    10.60,    13.81
      300.0,      11.25,    11.40,     9.20,    10.59,    13.78
      301.0,      11.23,    11.39,     9.19,    10.58,    13.76
      302.0,      11.22,    11.38,     9.19,    10.57,    13.73
      303.0,      11.20,    11.37,     9.18,    10.56,    13.70
      304.0,      11.19,    11.36,     9.17,    10.55,    13.68
      305.0,      11.17,    11.35,     9.16,    10.54,    13.65
      306.0,      11.16,    11.34,     9.15,    10.53,    13.63
      307.0,      11.15,    11.32,     9.14,    10.52,    13.60
      308.0,      11.13,    11.31,     9.13,    10.51,    13.57
      309.0,      11.12,    11.30,     9.12,    10.50,    13.55
      310.0,      11.10,    11.29,     9.11,    10.49,    13.52
