Radius (km), Mean (m/s), NE (m/s), SE (m/s), SW (m/s), NW (m/s)
        0.0,      19.11,    23.10,    17.26,    14.22,    21.84
        1.0,      27.45,    31.70,    25.66,    22.09,    30.36
        2.0,      35.65,    40.04,    34.24,    29.64,    38.70
        3.0,      42.85,    47.20,    41.99,    36.28,    45.93
        4.0,      48.63,    52.76,    48.42,    41.69,    51.64
        5.0,      52.80,    56.58,    53.24,    45.70,    55.66
        6.0,      55.36,    58.73,    56.40,    48.31,    58.02
        7.0,      56.51,    59.43,    58.02,    49.65,    58.95
        8.0,      56.54,    59.04,    58.37,    49.97,    58.78
        9.0,      55.79,    57.92,    57.81,    49.54,    57.87
       10.0,      54.60,    56.44,    56.70,    48.67,    56.57
       11.0,      53.23,    54.84,    55.34,    47.61,    55.14
       12.0,      51.87,    53.27,    53.95,    46.51,    53.73
       13.0,      50.57,    51.79,    52.63,    45.47,    52.40
       14.0,      49.35,    50.38,    51.39,    44.50,    51.14
       15.0,      48.19,    49.03,    50.21,    43.58,    49.93
       16.0,      47.07,    47.73,    49.08,    42.70,    48.76
       17.0,      45.99,    46.48,    47.98,    41.85,    47.65
       18.0,      44.95,    45.28,    46.93,    41.03,    46.57
       19.0,      43.95,    44.13,    45.91,    40.23,    45.53
       20.0,      42.99,    43.02,    44.93,    39.47,    44.54
       21.0,      42.06,    41.95,    43.98,    38.74,    43.58
       22.0,      41.17,    40.93,    43.06,    38.03,    42.66
       23.0,      40.31,    39.94,    42.17,    37.35,    41.77
       24.0,      39.48,    39.00,    41.32,    36.69,    40.92
       25.0,      38.68,    38.08,    40.49,    36.05,    40.10
       26.0,      37.92,    37.21,    39.70,    35.44,    39.31
       27.0,      37.17,    36.37,    38.93,    34.85,    38.55
       28.0,      36.46,    35.56,    38.18,    34.28,    37.82
       29.0,      35.77,    34.78,    37.47,    33.73,    37.12
       30.0,      35.11,    34.03,    36.77,    33.20,    36.44
       31.0,      34.47,    33.31,    36.10,    32.69,    35.79
       32.0,      33.86,    32.62,    35.46,    32.20,    35.16
       33.0,      33.27,    31.95,    34.83,    31.72,    34.56
       34.0,      32.70,    31.31,    34.23,    31.26,    33.98
       35.0,      32.14,    30.70,    33.64,    30.82,    33.42
       36.0,      31.61,    30.11,    33.08,    30.39,    32.88
       37.0,      31.10,    29.54,    32.53,    29.97,    32.37
       38.0,      30.61,    28.99,    32.01,    29.57,    31.87
       39.0,      30.13,    28.46,    31.50,    29.18,    31.39
       40.0,      29.67,    27.95,    31.01,    28.81,    30.92
       41.0,      29.23,    27.47,    30.53,    28.45,    30.48
       42.0,      28.80,    27.00,    30.07,    28.10,    30.05
       43.0,      28.39,    26.55,    29.62,    27.76,    29.64
       44.0,      27.99,    26.11,    29.19,    27.43,    29.24
       45.0,      27.61,    25.69,    28.78,    27.12,    28.85
       46.0,      27.24,    25.29,    28.38,    26.81,    28.49
       47.0,      26.88,    24.91,    27.99,    26.51,    28.13
       48.0,      26.54,    24.53,    27.61,    26.23,    27.79
       49.0,      26.21,    24.17,    27.24,    25.95,    27.45
       50.0,      25.88,    23.83,    26.89,    25.68,    27.14
       51.0,      25.57,    23.50,    26.55,    25.42,    26.83
       52.0,      25.27,    23.18,    26.22,    25.17,    26.53
       53.0,      24.98,    22.87,    25.90,    24.92,    26.25
       54.0,      24.70,    22.57,    25.59,    24.69,    25.97
       55.0,      24.43,    22.29,    25.29,    24.46,    25.70
       56.0,      24.17,    22.01,    24.99,    24.23,    25.45
       57.0,      23.92,    21.75,    24.71,    24.02,    25.20
       58.0,      23.68,    21.50,    24.44,    23.81,    24.96
       59.0,      23.44,    21.25,    24.17,    23.60,    24.73
       60.0,      23.21,    21.01,    23.92,    23.40,    24.51
       61.0,      22.99,    20.79,    23.67,    23.21,    24.29
       62.0,      22.78,    20.57,    23.43,    23.02,    24.08
       63.0,      22.57,    20.36,    23.19,    22.84,    23.88
       64.0,      22.37,    20.15,    22.97,    22.67,    23.69
       65.0,      22.17,    19.96,    22.75,    22.49,    23.50
       66.0,      21.99,    19.77,    22.53,    22.33,    23.32
       67.0,      21.81,    19.59,    22.33,    22.16,    23.15
       68.0,      21.63,    19.41,    22.12,    22.01,    22.98
       69.0,      21.46,    19.24,    21.93,    21.85,    22.82
       70.0,      21.29,    19.08,    21.74,    21.70,    22.66
       71.0,      21.13,    18.92,    21.55,    21.56,    22.50
       72.0,      20.98,    18.77,    21.37,    21.41,    22.36
       73.0,      20.83,    18.62,    21.20,    21.27,    22.21
       74.0,      20.68,    18.48,    21.03,    21.14,    22.08
       75.0,      20.54,    18.34,    20.87,    21.01,    21.94
       76.0,      20.40,    18.21,    20.71,    20.88,    21.81
       77.0,      20.27,    18.08,    20.55,    20.75,    21.69
       78.0,      20.14,    17.96,    20.40,    20.63,    21.56
       79.0,      20.01,    17.84,    20.25,    20.51,    21.45
       80.0,      19.89,    17.73,    20.11,    20.39,    21.33
       81.0,      19.77,    17.62,    19.97,    20.28,    21.22
       82.0,      19.66,    17.51,    19.83,    20.16,    21.11
       83.0,      19.54,    17.41,    19.70,    20.05,    21.01
       84.0,      19.43,    17.31,    19.57,    19.95,    20.91
       85.0,      19.33,    17.21,    19.45,    19.84,    20.81
       86.0,      19.22,    17.12,    19.32,    19.74,    20.71
       87.0,      19.12,    17.03,    19.21,    19.64,    20.62
       88.0,      19.03,    16.94,    19.09,    19.54,    20.53
       89.0,      18.93,    16.86,    18.97,    19.44,    20.44
       90.0,      18.84,    16.78,    18.86,    19.35,    20.36
       91.0,      18.75,    16.70,    18.76,    19.25,    20.27
       92.0,      18.66,    16.62,    18.65,    19.16,    20.19
       93.0,      18.57,    16.55,    18.55,    19.07,    20.12
       94.0,      18.49,    16.47,    18.45,    18.99,    20.04
       95.0,      18.40,    16.41,    18.35,    18.90,    19.97
       96.0,      18.32,    16.34,    18.25,    18.81,    19.89
       97.0,      18.25,    16.27,    18.16,    18.73,    19.82
       98.0,      18.17,    16.21,    18.06,    18.65,    19.75
       99.0,      18.09,    16.15,    17.97,    18.57,    19.69
      100.0,      18.02,    16.09,    17.89,    18.49,    19.62
      101.0,      17.95,    16.03,    17.80,    18.41,    19.56
      102.0,      17.88,    15.97,    17.71,    18.33,    19.49
      103.0,      17.81,    15.92,    17.63,    18.26,    19.43
      104.0,      17.74,    15.87,    17.55,    18.18,    19.37
      105.0,      17.68,    15.82,    17.47,    18.11,    19.32
      106.0,      17.61,    15.77,    17.39,    18.04,    19.26
      107.0,      17.55,    15.72,    17.32,    17.96,    19.20
      108.0,      17.49,    15.67,    17.24,    17.89,    19.15
      109.0,      17.43,    15.62,    17.17,    17.82,    19.10
      110.0,      17.37,    15.58,    17.10,    17.76,    19.04
      111.0,      17.31,    15.54,    17.02,    17.69,    18.99
      112.0,      17.25,    15.49,    16.95,    17.62,    18.94
      113.0,      17.20,    15.45,    16.89,    17.55,    18.89
      114.0,      17.14,    15.41,    16.82,    17.49,    18.85
      115.0,      17.09,    15.37,    16.75,    17.42,    18.80
      116.0,      17.03,    15.33,    16.69,    17.36,    18.75
      117.0,      16.98,    15.30,    16.62,    17.30,    18.71
      118.0,      16.93,    15.26,    16.56,    17.24,    18.66
      119.0,      16.88,    15.23,    16.50,    17.17,    18.62
      120.0,      16.83,    15.19,    16.44,    17.11,    18.58
      121.0,      16.78,    15.16,    16.38,    17.05,    18.53
      122.0,      16.73,    15.12,    16.32,    16.99,    18.49
      123.0,      16.68,    15.09,    16.26,    16.93,    18.45
      124.0,      16.64,    15.06,    16.20,    16.88,    18.41
      125.0,      16.59,    15.03,    16.15,    16.82,    18.37
      126.0,      16.54,    15.00,    16.09,    16.76,    18.33
      127.0,      16.50,    14.97,    16.03,    16.70,    18.29
      128.0,      16.46,    14.94,    15.98,    16.65,    18.26
      129.0,      16.41,    14.91,    15.93,    16.59,    18.22
      130.0,      16.37,    14.88,    15.87,    16.54,    18.18
      131.0,      16.33,    14.86,    15.82,    16.48,    18.15
      132.0,      16.28,    14.83,    15.77,    16.43,    18.11
      133.0,      16.24,    14.80,    15.72,    16.37,    18.07
      134.0,      16.20,    14.78,    15.67,    16.32,    18.04
      135.0,      16.16,    14.75,    15.62,    16.27,    18.00
      136.0,      16.12,    14.73,    15.57,    16.21,    17.97
      137.0,      16.08,    14.70,    15.52,    16.16,    17.94
      138.0,      16.04,    14.68,    15.47,    16.11,    17.90
      139.0,      16.00,    14.65,    15.42,    16.06,    17.87
      140.0,      15.96,    14.63,    15.38,    16.01,    17.84
      141.0,      15.92,    14.61,    15.33,    15.95,    17.81
      142.0,      15.89,    14.58,    15.28,    15.90,    17.77
      143.0,      15.85,    14.56,    15.24,    15.85,    17.74
      144.0,      15.81,    14.54,    15.19,    15.80,    17.71
      145.0,      15.77,    14.52,    15.15,    15.75,    17.68
      146.0,      15.74,    14.50,    15.10,    15.71,    17.65
      147.0,      15.70,    14.48,    15.06,    15.66,    17.62
      148.0,      15.67,    14.45,    15.01,    15.61,    17.59
      149.0,      15.63,    14.43,    14.97,    15.56,    17.56
      150.0,      15.60,    14.41,    14.93,    15.51,    17.53
      151.0,      15.56,    14.39,    14.89,    15.46,    17.50
      152.0,      15.53,    14.37,    14.84,    15.42,    17.47
      153.0,      15.49,    14.35,    14.80,    15.37,    17.44
      154.0,      15.46,    14.33,    14.76,    15.32,    17.41
      155.0,      15.42,    14.32,    14.72,    15.27,    17.38
      156.0,      15.39,    14.30,    14.68,    15.23,    17.36
      157.0,      15.36,    14.28,    14.64,    15.18,    17.33
      158.0,      15.32,    14.26,    14.60,    15.14,    17.30
      159.0,      15.29,    14.24,    14.56,    15.09,    17.27
      160.0,      15.26,    14.22,    14.52,    15.04,    17.25
      161.0,      15.23,    14.20,    14.48,    15.00,    17.22
      162.0,      15.19,    14.19,    14.44,    14.95,    17.19
      163.0,      15.16,    14.17,    14.40,    14.91,    17.16
      164.0,      15.13,    14.15,    14.36,    14.86,    17.14
      165.0,      15.10,    14.13,    14.32,    14.82,    17.11
      166.0,      15.07,    14.12,    14.28,    14.78,    17.08
      167.0,      15.03,    14.10,    14.25,    14.73,    17.06
      168.0,      15.00,    14.08,    14.21,    14.69,    17.03
      169.0,      14.97,    14.07,    14.17,    14.64,    17.00
      170.0,      14.94,    14.05,    14.13,    14.60,    16.98
      171.0,      14.91,    14.03,    14.10,    14.56,    16.95
      172.0,      14.88,    14.02,    14.06,    14.51,    16.93
      173.0,      14.85,    14.00,    14.02,    14.47,    16.90
      174.0,      14.82,    13.98,    13.99,    14.43,    16.88
      175.0,      14.79,    13.97,    13.95,    14.39,    16.85
      176.0,      14.76,    13.95,    13.91,    14.34,    16.83
      177.0,      14.73,    13.94,    13.88,    14.30,    16.80
      178.0,      14.70,    13.92,    13.84,    14.26,    16.78
      179.0,      14.67,    13.90,    13.81,    14.22,    16.75
      180.0,      14.64,    13.89,    13.77,    14.18,    16.73
      181.0,      14.61,    13.87,    13.74,    14.13,    16.70
      182.0,      14.58,    13.86,    13.70,    14.09,    16.68
      183.0,      14.55,    13.84,    13.67,    14.05,    16.65
      184.0,      14.52,    13.83,    13.63,    14.01,    16.63
      185.0,      14.50,    13.81,    13.60,    13.97,    16.60
      186.0,      14.47,    13.80,    13.56,    13.93,    16.58
      187.0,      14.44,    13.78,    13.53,    13.89,    16.55
      188.0,      14.41,    13.77,    13.49,    13.85,    16.53
      189.0,      14.38,    13.75,    13.46,    13.81,    16.51
      190.0,      14.35,    13.74,    13.43,    13.77,    16.48
      191.0,      14.32,    13.72,    13.39,    13.73,    16.46
      192.0,      14.30,    13.71,    13.36,    13.69,    16.43
      193.0,      14.27,    13.69,    13.33,    13.65,    16.41
      194.0,      14.24,    13.68,    13.29,    13.61,    16.39
      195.0,      14.21,    13.66,    13.26,    13.57,    16.36
      196.0,      14.19,    13.65,    13.23,    13.53,    16.34
      197.0,      14.16,    13.63,    13.19,    13.49,    16.31
      198.0,      14.13,    13.62,    13.16,    13.45,    16.29
      199.0,      14.10,    13.60,    13.13,    13.41,    16.27
      200.0,      14.08,    13.59,    13.10,    13.37,    16.24
      201.0,      14.05,    13.58,    13.06,    13.33,    16.22
      202.0,      14.02,    13.56,    13.03,    13.30,    16.20
      203.0,      13.99,    13.55,    13.00,    13.26,    16.17
      204.0,      13.97,    13.53,    12.97,    13.22,    16.15
      205.0,      13.94,    13.52,    12.94,    13.18,    16.13
      206.0,      13.91,    13.50,    12.90,    13.14,    16.11
      207.0,      13.89,    13.49,    12.87,    13.10,    16.08
      208.0,      13.86,    13.48,    12.84,    13.07,    16.06
      209.0,      13.83,    13.46,    12.81,    13.03,    16.04
      210.0,      13.81,    13.45,    12.78,    12.99,    16.01
      211.0,      13.78,    13.43,    12.75,    12.95,    15.99
      212.0,      13.75,    13.42,    12.71,    12.92,    15.97
      213.0,      13.73,    13.41,    12.68,    12.88,    15.95
      214.0,      13.70,    13.39,    12.65,    12.84,    15.92
      215.0,      13.68,    13.38,    12.62,    12.80,    15.90
      216.0,      13.65,    13.37,    12.59,    12.77,    15.88
      217.0,      13.62,    13.35,    12.56,    12.73,    15.86
      218.0,      13.60,    13.34,    12.53,    12.69,    15.83
      219.0,      13.57,    13.32,    12.50,    12.66,    15.81
      220.0,      13.55,    13.31,    12.47,    12.62,    15.79
      221.0,      13.52,    13.30,    12.44,    12.59,    15.77
      222.0,      13.50,    13.28,    12.41,    12.55,    15.74
      223.0,      13.47,    13.27,    12.38,    12.51,    15.72
      224.0,      13.44,    13.26,    12.35,    12.48,    15.70
      225.0,      13.42,    13.24,    12.32,    12.44,    15.68
      226.0,      13.39,    13.23,    12.29,    12.41,    15.66
      227.0,      13.37,    13.22,    12.26,    12.37,    15.63
      228.0,      13.34,    13.20,    12.23,    12.33,    15.61
      229.0,      13.32,    13.19,    12.20,    12.30,    15.59
      230.0,      13.29,    13.18,    12.17,    12.26,    15.57
      231.0,      13.27,    13.16,    12.14,    12.23,    15.55
      232.0,      13.24,    13.15,    12.11,    12.19,    15.52
      233.0,      13.22,    13.13,    12.08,    12.16,    15.50
      234.0,      13.19,    13.12,    12.05,    12.12,    15.48
      235.0,      13.17,    13.11,    12.02,    12.09,    15.46
      236.0,      13.14,    13.09,    11.99,    12.05,    15.44
      237.0,      13.12,    13.08,    11.96,    12.02,    15.41
      238.0,      13.10,    13.07,    11.94,    11.98,    15.39
      239.0,      13.07,    13.06,    11.91,    11.95,    15.37
      240.0,      13.05,    13.04,    11.88,    11.92,    15.35
      241.0,      13.02,    13.03,    11.85,    11.88,    15.33
      242.0,      13.00,    13.02,    11.82,    11.85,    15.31
      243.0,      12.97,    13.00,    11.79,    11.81,    15.29
      244.0,      12.95,    12.99,    11.76,    11.78,    15.26
      245.0,      12.93,    12.98,    11.74,    11.75,    15.24
      246.0,      12.90,    12.96,    11.71,    11.71,    15.22
      247.0,      12.88,    12.95,    11.68,    11.68,    15.20
      248.0,      12.85,    12.94,    11.65,    11.65,    15.18
      249.0,      12.83,    12.92,    11.62,    11.61,    15.16
      250.0,      12.81,    12.91,    11.59,    11.58,    15.14
      251.0,      12.78,    12.90,    11.57,    11.55,    15.11
      252.0,      12.76,    12.88,    11.54,    11.51,    15.09
      253.0,      12.73,    12.87,    11.51,    11.48,    15.07
      254.0,      12.71,    12.86,    11.48,    11.45,    15.05
      255.0,      12.69,    12.85,    11.46,    11.41,    15.03
      256.0,      12.66,    12.83,    11.43,    11.38,    15.01
      257.0,      12.64,    12.82,    11.40,    11.35,    14.99
      258.0,      12.62,    12.81,    11.37,    11.32,    14.97
      259.0,      12.59,    12.79,    11.35,    11.28,    14.95
      260.0,      12.57,    12.78,    11.32,    11.25,    14.93
      261.0,      12.55,    12.77,    11.29,    11.22,    14.90
      262.0,      12.52,    12.76,    11.26,    11.19,    14.88
      263.0,      12.50,    12.74,    11.24,    11.15,    14.86
      264.0,      12.48,    12.73,    11.21,    11.12,    14.84
      265.0,      12.45,    12.72,    11.18,    11.09,    14.82
      266.0,      12.43,    12.70,    11.16,    11.06,    14.80
      267.0,      12.41,    12.69,    11.13,    11.03,    14.78
      268.0,      12.38,    12.68,    11.10,    11.00,    14.76
      269.0,      12.36,    12.67,    11.08,    10.96,    14.74
      270.0,      12.34,    12.65,    11.05,    10.93,    14.72
      271.0,      12.32,    12.64,    11.02,    10.90,    14.70
      272.0,      12.29,    12.63,    11.00,    10.87,    14.68
      273.0,      12.27,    12.62,    10.97,    10.84,    14.66
      274.0,      12.25,    12.60,    10.94,    10.81,    14.64
      275.0,      12.23,    12.59,    10.92,    10.78,    14.62
      276.0,      12.20,    12.58,    10.89,    10.75,    14.60
      277.0,      12.18,    12.57,    10.87,    10.72,    14.58
      278.0,      12.16,    12.55,    10.84,    10.69,    14.55
      279.0,      12.14,    12.54,    10.81,    10.65,    14.53
      280.0,      12.11,    12.53,    10.79,    10.62,    14.51
      281.0,      12.09,    12.52,    10.76,    10.59,    14.49
      282.0,      12.07,    12.50,    10.74,    10.56,    14.47
      283.0,      12.05,    12.49,    10.71,    10.53,    14.45
      284.0,      12.02,    12.48,    10.68,    10.50,    14.43
      285.0,      12.00,    12.46,    10.66,    10.47,    14.41
      286.0,      11.98,    12.45,    10.63,    10.44,    14.39
      287.0,      11.96,    12.44,    10.61,    10.41,    14.37
      288.0,      11.94,    12.43,    10.58,    10.38,    14.35
      289.0,      11.91,    12.42,    10.56,    10.35,    14.33
      290.0,      11.89,    12.40,    10.53,    10.32,    14.31
      291.0,      11.87,    12.39,    10.51,    10.29,    14.29
      292.0,      11.85,    12.38,    10.48,    10.27,    14.27
      293.0,      11.83,    12.37,    10.46,    10.24,    14.25
      294.0,      11.81,    12.35,    10.43,    10.21,    14.23
      295.0,      11.78,    12.34,    10.41,    10.18,    14.21
      296.0,      11.76,    12.33,    10.38,    10.15,    14.19
      297.0,      11.74,    12.32,    10.36,    10.12,    14.17
      298.0,      11.72,    12.30,    10.33,    10.09,    14.15
      299.0,      11.70,    12.29,    10.31,    10.06,    14.13
      300.0,      11.68,    12.28,    10.28,    10.03,    14.11
      301.0,      11.66,    12.27,    10.26,    10.00,    14.09
      302.0,      11.63,    12.25,    10.23,     9.98,    14.08
      303.0,      11.61,    12.24,    10.21,     9.95,    14.06
      304.0,      11.59,    12.23,    10.18,     9.92,    14.04
      305.0,      11.57,    12.22,    10.16,     9.89,    14.02
      306.0,      11.55,    12.21,    10.14,     9.86,    14.00
      307.0,      11.53,    12.19,    10.11,     9.83,    13.98
      308.0,      11.51,    12.18,    10.09,     9.81,    13.96
      309.0,      11.49,    12.17,    10.06,     9.78,    13.94
      310.0,      11.47,    12.16,    10.04,     9.75,    13.92
