Radius (km), Mean (m/s), NE (m/s), SE (m/s), SW (m/s), NW (m/s)
        0.0,      19.50,    22.10,    20.42,    13.63,    21.85
        1.0,      27.67,    30.46,    28.74,    21.53,    29.95
        2.0,      35.56,    38.41,    36.76,    29.43,    37.64
        3.0,      42.39,    45.15,    43.68,    36.57,    44.16
        4.0,      47.80,    50.34,    49.11,    42.53,    49.21
        5.0,      51.65,    53.87,    52.91,    47.10,    52.72
        6.0,      53.99,    55.83,    55.15,    50.22,    54.78
        7.0,      55.02,    56.45,    56.03,    51.99,    55.62
        8.0,      55.02,    56.06,    55.86,    52.62,    55.55
        9.0,      54.34,    55.03,    54.99,    52.42,    54.91
       10.0,      53.27,    53.65,    53.75,    51.69,    53.98
       11.0,      52.06,    52.18,    52.37,    50.71,    52.96
       12.0,      50.85,    50.74,    51.02,    49.67,    51.95
       13.0,      49.70,    49.38,    49.74,    48.67,    50.99
       14.0,      48.61,    48.09,    48.53,    47.74,    50.07
       15.0,      47.56,    46.84,    47.37,    46.85,    49.18
       16.0,      46.55,    45.65,    46.26,    46.00,    48.31
       17.0,      45.58,    44.50,    45.18,    45.17,    47.47
       18.0,      44.64,    43.40,    44.15,    44.36,    46.65
       19.0,      43.73,    42.34,    43.16,    43.57,    45.86
       20.0,      42.86,    41.32,    42.21,    42.81,    45.09
       21.0,      42.01,    40.34,    41.29,    42.07,    44.34
       22.0,      41.19,    39.39,    40.41,    41.35,    43.61
       23.0,      40.40,    38.49,    39.56,    40.65,    42.91
       24.0,      39.64,    37.62,    38.74,    39.97,    42.23
       25.0,      38.90,    36.78,    37.96,    39.31,    41.56
       26.0,      38.19,    35.97,    37.20,    38.67,    40.92
       27.0,      37.50,    35.20,    36.47,    38.05,    40.30
       28.0,      36.84,    34.45,    35.77,    37.44,    39.69
       29.0,      36.20,    33.74,    35.10,    36.85,    39.10
       30.0,      35.58,    33.05,    34.45,    36.27,    38.53
       31.0,      34.98,    32.39,    33.83,    35.72,    37.97
       32.0,      34.40,    31.75,    33.23,    35.17,    37.43
       33.0,      33.83,    31.13,    32.65,    34.65,    36.91
       34.0,      33.29,    30.55,    32.09,    34.13,    36.40
       35.0,      32.77,    29.98,    31.56,    33.63,    35.91
       36.0,      32.26,    29.43,    31.04,    33.15,    35.43
       37.0,      31.77,    28.91,    30.55,    32.67,    34.96
       38.0,      31.30,    28.40,    30.07,    32.21,    34.51
       39.0,      30.84,    27.92,    29.61,    31.77,    34.07
       40.0,      30.40,    27.45,    29.17,    31.33,    33.65
       41.0,      29.97,    27.00,    28.74,    30.91,    33.23
       42.0,      29.56,    26.57,    28.33,    30.49,    32.83
       43.0,      29.15,    26.15,    27.93,    30.09,    32.44
       44.0,      28.77,    25.75,    27.55,    29.70,    32.06
       45.0,      28.39,    25.37,    27.18,    29.32,    31.69
       46.0,      28.03,    25.00,    26.83,    28.95,    31.33
       47.0,      27.68,    24.64,    26.49,    28.59,    30.99
       48.0,      27.34,    24.30,    26.16,    28.24,    30.65
       49.0,      27.01,    23.96,    25.84,    27.90,    30.32
       50.0,      26.69,    23.65,    25.54,    27.56,    30.00
       51.0,      26.38,    23.34,    25.24,    27.24,    29.69
       52.0,      26.08,    23.04,    24.96,    26.92,    29.39
       53.0,      25.79,    22.76,    24.69,    26.61,    29.10
       54.0,      25.51,    22.49,    24.42,    26.31,    28.81
       55.0,      25.24,    22.22,    24.17,    26.02,    28.54
       56.0,      24.97,    21.97,    23.92,    25.73,    28.27
       57.0,      24.72,    21.72,    23.69,    25.45,    28.01
       58.0,      24.47,    21.49,    23.46,    25.18,    27.75
       59.0,      24.23,    21.26,    23.24,    24.92,    27.50
       60.0,      24.00,    21.04,    23.03,    24.66,    27.26
       61.0,      23.77,    20.83,    22.82,    24.40,    27.03
       62.0,      23.55,    20.63,    22.62,    24.16,    26.80
       63.0,      23.34,    20.43,    22.43,    23.92,    26.58
       64.0,      23.14,    20.25,    22.24,    23.68,    26.37
       65.0,      22.94,    20.06,    22.07,    23.46,    26.16
       66.0,      22.74,    19.89,    21.89,    23.23,    25.96
       67.0,      22.56,    19.72,    21.73,    23.01,    25.76
       68.0,      22.37,    19.56,    21.57,    22.80,    25.57
       69.0,      22.20,    19.40,    21.41,    22.59,    25.38
       70.0,      22.02,    19.25,    21.26,    22.39,    25.20
       71.0,      21.86,    19.10,    21.11,    22.19,    25.02
       72.0,      21.69,    18.96,    20.97,    22.00,    24.85
       73.0,      21.54,    18.82,    20.83,    21.81,    24.68
       74.0,      21.38,    18.69,    20.70,    21.62,    24.52
       75.0,      21.24,    18.57,    20.57,    21.44,    24.36
       76.0,      21.09,    18.44,    20.45,    21.27,    24.21
       77.0,      20.95,    18.32,    20.33,    21.09,    24.06
       78.0,      20.81,    18.21,    20.22,    20.92,    23.91
       79.0,      20.68,    18.10,    20.10,    20.76,    23.77
       80.0,      20.55,    17.99,    19.99,    20.60,    23.63
       81.0,      20.43,    17.89,    19.89,    20.44,    23.49
       82.0,      20.30,    17.79,    19.79,    20.28,    23.36
       83.0,      20.19,    17.69,    19.69,    20.13,    23.23
       84.0,      20.07,    17.60,    19.59,    19.98,    23.11
       85.0,      19.96,    17.51,    19.50,    19.84,    22.99
       86.0,      19.85,    17.42,    19.40,    19.69,    22.87
       87.0,      19.74,    17.34,    19.32,    19.55,    22.75
       88.0,      19.64,    17.26,    19.23,    19.42,    22.64
       89.0,      19.53,    17.18,    19.15,    19.28,    22.53
       90.0,      19.43,    17.10,    19.07,    19.15,    22.42
       91.0,      19.34,    17.03,    18.99,    19.02,    22.32
       92.0,      19.24,    16.95,    18.91,    18.90,    22.21
       93.0,      19.15,    16.88,    18.84,    18.77,    22.11
       94.0,      19.06,    16.82,    18.76,    18.65,    22.02
       95.0,      18.97,    16.75,    18.69,    18.53,    21.92
       96.0,      18.89,    16.69,    18.62,    18.41,    21.83
       97.0,      18.81,    16.63,    18.56,    18.30,    21.74
       98.0,      18.72,    16.57,    18.49,    18.19,    21.65
       99.0,      18.64,    16.51,    18.43,    18.08,    21.57
      100.0,      18.57,    16.45,    18.37,    17.97,    21.48
      101.0,      18.49,    16.40,    18.31,    17.86,    21.40
      102.0,      18.42,    16.34,    18.25,    17.75,    21.32
      103.0,      18.34,    16.29,    18.19,    17.65,    21.24
      104.0,      18.27,    16.24,    18.13,    17.55,    21.16
      105.0,      18.20,    16.19,    18.08,    17.45,    21.09
      106.0,      18.13,    16.15,    18.02,    17.35,    21.02
      107.0,      18.07,    16.10,    17.97,    17.26,    20.95
      108.0,      18.00,    16.06,    17.92,    17.16,    20.88
      109.0,      17.94,    16.01,    17.87,    17.07,    20.81
      110.0,      17.88,    15.97,    17.82,    16.98,    20.74
      111.0,      17.82,    15.93,    17.77,    16.89,    20.68
      112.0,      17.76,    15.89,    17.72,    16.80,    20.61
      113.0,      17.70,    15.85,    17.68,    16.71,    20.55
      114.0,      17.64,    15.81,    17.63,    16.62,    20.49
      115.0,      17.58,    15.77,    17.59,    16.54,    20.43
      116.0,      17.53,    15.73,    17.54,    16.46,    20.37
      117.0,      17.47,    15.70,    17.50,    16.37,    20.31
      118.0,      17.42,    15.66,    17.46,    16.29,    20.26
      119.0,      17.37,    15.63,    17.42,    16.21,    20.20
      120.0,      17.31,    15.59,    17.38,    16.13,    20.15
      121.0,      17.26,    15.56,    17.34,    16.06,    20.09
      122.0,      17.21,    15.53,    17.30,    15.98,    20.04
      123.0,      17.16,    15.50,    17.26,    15.90,    19.99
      124.0,      17.12,    15.47,    17.22,    15.83,    19.94
      125.0,      17.07,    15.44,    17.18,    15.76,    19.89
      126.0,      17.02,    15.41,    17.15,    15.68,    19.84
      127.0,      16.97,    15.38,    17.11,    15.61,    19.80
      128.0,      16.93,    15.35,    17.08,    15.54,    19.75
      129.0,      16.89,    15.32,    17.04,    15.47,    19.71
      130.0,      16.84,    15.30,    17.01,    15.40,    19.66
      131.0,      16.80,    15.27,    16.97,    15.33,    19.62
      132.0,      16.76,    15.24,    16.94,    15.27,    19.57
      133.0,      16.71,    15.22,    16.90,    15.20,    19.53
      134.0,      16.67,    15.19,    16.87,    15.13,    19.49
      135.0,      16.63,    15.17,    16.84,    15.07,    19.45
      136.0,      16.59,    15.14,    16.81,    15.01,    19.41
      137.0,      16.55,    15.12,    16.77,    14.94,    19.37
      138.0,      16.51,    15.09,    16.74,    14.88,    19.33
      139.0,      16.47,    15.07,    16.71,    14.82,    19.29
      140.0,      16.43,    15.05,    16.68,    14.76,    19.26
      141.0,      16.40,    15.02,    16.65,    14.69,    19.22
      142.0,      16.36,    15.00,    16.62,    14.63,    19.18
      143.0,      16.32,    14.98,    16.59,    14.57,    19.15
      144.0,      16.29,    14.96,    16.56,    14.52,    19.11
      145.0,      16.25,    14.94,    16.53,    14.46,    19.08
      146.0,      16.22,    14.92,    16.50,    14.40,    19.04
      147.0,      16.18,    14.89,    16.48,    14.34,    19.01
      148.0,      16.15,    14.87,    16.45,    14.29,    18.97
      149.0,      16.11,    14.85,    16.42,    14.23,    18.94
      150.0,      16.08,    14.83,    16.39,    14.17,    18.91
      151.0,      16.04,    14.81,    16.36,    14.12,    18.88
      152.0,      16.01,    14.79,    16.34,    14.06,    18.85
      153.0,      15.98,    14.77,    16.31,    14.01,    18.81
      154.0,      15.94,    14.75,    16.28,    13.96,    18.78
      155.0,      15.91,    14.73,    16.26,    13.90,    18.75
      156.0,      15.88,    14.72,    16.23,    13.85,    18.72
      157.0,      15.85,    14.70,    16.20,    13.80,    18.69
      158.0,      15.82,    14.68,    16.18,    13.75,    18.66
      159.0,      15.79,    14.66,    16.15,    13.69,    18.64
      160.0,      15.75,    14.64,    16.13,    13.64,    18.61
      161.0,      15.72,    14.62,    16.10,    13.59,    18.58
      162.0,      15.69,    14.61,    16.07,    13.54,    18.55
      163.0,      15.66,    14.59,    16.05,    13.49,    18.52
      164.0,      15.63,    14.57,    16.02,    13.44,    18.50
      165.0,      15.60,    14.55,    16.00,    13.39,    18.47
      166.0,      15.57,    14.54,    15.97,    13.35,    18.44
      167.0,      15.55,    14.52,    15.95,    13.30,    18.42
      168.0,      15.52,    14.50,    15.93,    13.25,    18.39
      169.0,      15.49,    14.48,    15.90,    13.20,    18.36
      170.0,      15.46,    14.47,    15.88,    13.15,    18.34
      171.0,      15.43,    14.45,    15.85,    13.11,    18.31
      172.0,      15.40,    14.43,    15.83,    13.06,    18.29
      173.0,      15.37,    14.42,    15.80,    13.01,    18.26
      174.0,      15.35,    14.40,    15.78,    12.97,    18.24
      175.0,      15.32,    14.38,    15.76,    12.92,    18.21
      176.0,      15.29,    14.37,    15.73,    12.88,    18.19
      177.0,      15.26,    14.35,    15.71,    12.83,    18.16
      178.0,      15.24,    14.34,    15.69,    12.79,    18.14
      179.0,      15.21,    14.32,    15.66,    12.74,    18.12
      180.0,      15.18,    14.30,    15.64,    12.70,    18.09
      181.0,      15.16,    14.29,    15.62,    12.66,    18.07
      182.0,      15.13,    14.27,    15.59,    12.61,    18.05
      183.0,      15.10,    14.26,    15.57,    12.57,    18.02
      184.0,      15.08,    14.24,    15.55,    12.52,    18.00
      185.0,      15.05,    14.23,    15.52,    12.48,    17.98
      186.0,      15.03,    14.21,    15.50,    12.44,    17.96
      187.0,      15.00,    14.19,    15.48,    12.40,    17.93
      188.0,      14.98,    14.18,    15.46,    12.35,    17.91
      189.0,      14.95,    14.16,    15.43,    12.31,    17.89
      190.0,      14.92,    14.15,    15.41,    12.27,    17.87
      191.0,      14.90,    14.13,    15.39,    12.23,    17.85
      192.0,      14.87,    14.12,    15.37,    12.19,    17.83
      193.0,      14.85,    14.10,    15.34,    12.15,    17.80
      194.0,      14.82,    14.09,    15.32,    12.11,    17.78
      195.0,      14.80,    14.07,    15.30,    12.06,    17.76
      196.0,      14.77,    14.06,    15.28,    12.02,    17.74
      197.0,      14.75,    14.04,    15.26,    11.98,    17.72
      198.0,      14.73,    14.03,    15.23,    11.94,    17.70
      199.0,      14.70,    14.01,    15.21,    11.90,    17.68
      200.0,      14.68,    14.00,    15.19,    11.86,    17.66
      201.0,      14.65,    13.98,    15.17,    11.83,    17.64
      202.0,      14.63,    13.97,    15.15,    11.79,    17.62
      203.0,      14.61,    13.95,    15.12,    11.75,    17.60
      204.0,      14.58,    13.94,    15.10,    11.71,    17.58
      205.0,      14.56,    13.93,    15.08,    11.67,    17.56
      206.0,      14.53,    13.91,    15.06,    11.63,    17.54
      207.0,      14.51,    13.90,    15.04,    11.59,    17.52
      208.0,      14.49,    13.88,    15.02,    11.55,    17.50
      209.0,      14.46,    13.87,    15.00,    11.52,    17.48
      210.0,      14.44,    13.85,    14.97,    11.48,    17.46
      211.0,      14.42,    13.84,    14.95,    11.44,    17.44
      212.0,      14.39,    13.82,    14.93,    11.40,    17.42
      213.0,      14.37,    13.81,    14.91,    11.37,    17.40
      214.0,      14.35,    13.80,    14.89,    11.33,    17.38
      215.0,      14.33,    13.78,    14.87,    11.29,    17.36
      216.0,      14.30,    13.77,    14.85,    11.26,    17.34
      217.0,      14.28,    13.75,    14.83,    11.22,    17.32
      218.0,      14.26,    13.74,    14.80,    11.18,    17.30
      219.0,      14.23,    13.73,    14.78,    11.15,    17.28
      220.0,      14.21,    13.71,    14.76,    11.11,    17.27
      221.0,      14.19,    13.70,    14.74,    11.07,    17.25
      222.0,      14.17,    13.68,    14.72,    11.04,    17.23
      223.0,      14.15,    13.67,    14.70,    11.00,    17.21
      224.0,      14.12,    13.66,    14.68,    10.97,    17.19
      225.0,      14.10,    13.64,    14.66,    10.93,    17.17
      226.0,      14.08,    13.63,    14.64,    10.90,    17.15
      227.0,      14.06,    13.61,    14.62,    10.86,    17.13
      228.0,      14.03,    13.60,    14.60,    10.83,    17.12
      229.0,      14.01,    13.59,    14.58,    10.79,    17.10
      230.0,      13.99,    13.57,    14.56,    10.76,    17.08
      231.0,      13.97,    13.56,    14.54,    10.72,    17.06
      232.0,      13.95,    13.55,    14.52,    10.69,    17.04
      233.0,      13.93,    13.53,    14.50,    10.65,    17.03
      234.0,      13.90,    13.52,    14.47,    10.62,    17.01
      235.0,      13.88,    13.50,    14.45,    10.58,    16.99
      236.0,      13.86,    13.49,    14.43,    10.55,    16.97
      237.0,      13.84,    13.48,    14.41,    10.52,    16.95
      238.0,      13.82,    13.46,    14.39,    10.48,    16.94
      239.0,      13.80,    13.45,    14.37,    10.45,    16.92
      240.0,      13.78,    13.44,    14.35,    10.42,    16.90
      241.0,      13.76,    13.42,    14.33,    10.38,    16.88
      242.0,      13.73,    13.41,    14.31,    10.35,    16.86
      243.0,      13.71,    13.40,    14.29,    10.32,    16.85
      244.0,      13.69,    13.38,    14.27,    10.28,    16.83
      245.0,      13.67,    13.37,    14.25,    10.25,    16.81
      246.0,      13.65,    13.35,    14.23,    10.22,    16.79
      247.0,      13.63,    13.34,    14.21,    10.18,    16.78
      248.0,      13.61,    13.33,    14.19,    10.15,    16.76
      249.0,      13.59,    13.31,    14.17,    10.12,    16.74
      250.0,      13.57,    13.30,    14.15,    10.09,    16.72
      251.0,      13.55,    13.29,    14.13,    10.06,    16.71
      252.0,      13.53,    13.27,    14.11,    10.02,    16.69
      253.0,      13.51,    13.26,    14.09,     9.99,    16.67
      254.0,      13.48,    13.25,    14.07,     9.96,    16.66
      255.0,      13.46,    13.23,    14.06,     9.93,    16.64
      256.0,      13.44,    13.22,    14.04,     9.90,    16.62
      257.0,      13.42,    13.21,    14.02,     9.87,    16.60
      258.0,      13.40,    13.19,    14.00,     9.83,    16.59
      259.0,      13.38,    13.18,    13.98,     9.80,    16.57
      260.0,      13.36,    13.17,    13.96,     9.77,    16.55
      261.0,      13.34,    13.15,    13.94,     9.74,    16.54
      262.0,      13.32,    13.14,    13.92,     9.71,    16.52
      263.0,      13.30,    13.13,    13.90,     9.68,    16.50
      264.0,      13.28,    13.12,    13.88,     9.65,    16.49
      265.0,      13.26,    13.10,    13.86,     9.62,    16.47
      266.0,      13.24,    13.09,    13.84,     9.59,    16.45
      267.0,      13.22,    13.08,    13.82,     9.56,    16.43
      268.0,      13.20,    13.06,    13.80,     9.53,    16.42
      269.0,      13.18,    13.05,    13.78,     9.50,    16.40
      270.0,      13.16,    13.04,    13.76,     9.47,    16.38
      271.0,      13.14,    13.02,    13.74,     9.44,    16.37
      272.0,      13.12,    13.01,    13.73,     9.41,    16.35
      273.0,      13.10,    13.00,    13.71,     9.38,    16.33
      274.0,      13.08,    12.98,    13.69,     9.35,    16.32
      275.0,      13.06,    12.97,    13.67,     9.32,    16.30
      276.0,      13.05,    12.96,    13.65,     9.29,    16.28
      277.0,      13.03,    12.95,    13.63,     9.26,    16.27
      278.0,      13.01,    12.93,    13.61,     9.23,    16.25
      279.0,      12.99,    12.92,    13.59,     9.20,    16.24
      280.0,      12.97,    12.91,    13.57,     9.17,    16.22
      281.0,      12.95,    12.89,    13.55,     9.14,    16.20
      282.0,      12.93,    12.88,    13.54,     9.11,    16.19
      283.0,      12.91,    12.87,    13.52,     9.09,    16.17
      284.0,      12.89,    12.85,    13.50,     9.06,    16.15
      285.0,      12.87,    12.84,    13.48,     9.03,    16.14
      286.0,      12.85,    12.83,    13.46,     9.00,    16.12
      287.0,      12.83,    12.82,    13.44,     8.97,    16.10
      288.0,      12.81,    12.80,    13.42,     8.94,    16.09
      289.0,      12.80,    12.79,    13.40,     8.91,    16.07
      290.0,      12.78,    12.78,    13.39,     8.89,    16.06
      291.0,      12.76,    12.76,    13.37,     8.86,    16.04
      292.0,      12.74,    12.75,    13.35,     8.83,    16.02
      293.0,      12.72,    12.74,    13.33,     8.80,    16.01
      294.0,      12.70,    12.73,    13.31,     8.78,    15.99
      295.0,      12.68,    12.71,    13.29,     8.75,    15.97
      296.0,      12.66,    12.70,    13.27,     8.72,    15.96
      297.0,      12.64,    12.69,    13.26,     8.69,    15.94
      298.0,      12.63,    12.68,    13.24,     8.67,    15.93
      299.0,      12.61,    12.66,    13.22,     8.64,    15.91
      300.0,      12.59,    12.65,    13.20,     8.61,    15.89
      301.0,      12.57,    12.64,    13.18,     8.58,    15.88
      302.0,      12.55,    12.62,    13.16,     8.56,    15.86
      303.0,      12.53,    12.61,    13.14,     8.53,    15.85
      304.0,      12.51,    12.60,    13.13,     8.50,    15.83
      305.0,      12.50,    12.59,    13.11,     8.48,    15.81
      306.0,      12.48,    12.57,    13.09,     8.45,    15.80
      307.0,      12.46,    12.56,    13.07,     8.42,    15.78
      308.0,      12.44,    12.55,    13.05,     8.40,    15.77
      309.0,      12.42,    12.54,    13.04,     8.37,    15.75
      310.0,      12.40,    12.52,    13.02,     8.34,    15.73
