Radius (km), Mean (m/s), NE (m/s), SE (m/s), SW (m/s), NW (m/s)
        0.0,      10.25,    12.01,    10.24,     6.82,    11.92
        1.0,      17.40,    19.47,    17.28,    13.52,    19.31
        2.0,      24.97,    27.24,    24.70,    20.93,    27.00
        3.0,      32.23,    34.56,    31.79,    28.33,    34.25
        4.0,      38.74,    40.98,    38.13,    35.24,    40.62
        5.0,      44.18,    46.20,    43.43,    41.28,    45.80
        6.0,      48.36,    50.06,    47.54,    46.16,    49.66
        7.0,      51.23,    52.56,    50.42,    49.75,    52.19
        8.0,      52.90,    53.84,    52.18,    52.04,    53.53
        9.0,      53.55,    54.12,    53.03,    53.17,    53.90
       10.0,      53.46,    53.69,    53.20,    53.36,    53.58
       11.0,      52.88,    52.83,    52.94,    52.88,    52.85
       12.0,      52.05,    51.77,    52.48,    52.02,    51.93
       13.0,      51.14,    50.67,    51.95,    50.99,    50.97
       14.0,      50.26,    49.60,    51.43,    49.95,    50.04
       15.0,      49.41,    48.59,    50.94,    48.97,    49.15
       16.0,      48.61,    47.62,    50.46,    48.05,    48.30
       17.0,      47.83,    46.68,    49.98,    47.18,    47.48
       18.0,      47.07,    45.76,    49.52,    46.33,    46.68
       19.0,      46.33,    44.88,    49.05,    45.50,    45.91
       20.0,      45.62,    44.02,    48.60,    44.70,    45.16
       21.0,      44.92,    43.19,    48.15,    43.92,    44.43
       22.0,      44.24,    42.38,    47.70,    43.16,    43.72
       23.0,      43.58,    41.60,    47.26,    42.42,    43.03
       24.0,      42.94,    40.84,    46.83,    41.71,    42.37
       25.0,      42.31,    40.10,    46.40,    41.01,    41.72
       26.0,      41.70,    39.39,    45.98,    40.33,    41.10
       27.0,      41.11,    38.70,    45.56,    39.67,    40.49
       28.0,      40.53,    38.03,    45.15,    39.03,    39.90
       29.0,      39.97,    37.38,    44.74,    38.41,    39.33
       30.0,      39.42,    36.75,    44.34,    37.81,    38.78
       31.0,      38.89,    36.14,    43.95,    37.22,    38.24
       32.0,      38.37,    35.54,    43.56,    36.64,    37.72
       33.0,      37.86,    34.97,    43.17,    36.09,    37.21
       34.0,      37.37,    34.41,    42.79,    35.54,    36.72
       35.0,      36.89,    33.87,    42.41,    35.02,    36.25
       36.0,      36.42,    33.35,    42.04,    34.50,    35.78
       37.0,      35.96,    32.84,    41.67,    34.00,    35.33
       38.0,      35.52,    32.34,    41.31,    33.52,    34.90
       39.0,      35.08,    31.87,    40.95,    33.04,    34.48
       40.0,      34.66,    31.40,    40.59,    32.58,    34.07
       41.0,      34.25,    30.95,    40.24,    32.13,    33.67
       42.0,      33.85,    30.51,    39.90,    31.70,    33.28
       43.0,      33.46,    30.09,    39.56,    31.27,    32.91
       44.0,      33.07,    29.68,    39.22,    30.86,    32.54
       45.0,      32.70,    29.28,    38.89,    30.45,    32.19
       46.0,      32.34,    28.89,    38.56,    30.06,    31.84
       47.0,      31.99,    28.52,    38.24,    29.68,    31.51
       48.0,      31.64,    28.15,    37.92,    29.31,    31.19
       49.0,      31.30,    27.80,    37.60,    28.94,    30.87
       50.0,      30.98,    27.46,    37.29,    28.59,    30.56
       51.0,      30.65,    27.12,    36.98,    28.25,    30.27
       52.0,      30.34,    26.80,    36.68,    27.91,    29.98
       53.0,      30.04,    26.49,    36.38,    27.58,    29.70
       54.0,      29.74,    26.18,    36.08,    27.26,    29.43
       55.0,      29.45,    25.89,    35.79,    26.95,    29.16
       56.0,      29.16,    25.60,    35.50,    26.65,    28.91
       57.0,      28.89,    25.32,    35.21,    26.35,    28.66
       58.0,      28.62,    25.05,    34.93,    26.07,    28.41
       59.0,      28.35,    24.79,    34.65,    25.79,    28.18
       60.0,      28.09,    24.54,    34.37,    25.51,    27.95
       61.0,      27.84,    24.29,    34.10,    25.24,    27.72
       62.0,      27.59,    24.05,    33.83,    24.98,    27.51
       63.0,      27.35,    23.82,    33.57,    24.73,    27.30
       64.0,      27.12,    23.59,    33.31,    24.48,    27.09
       65.0,      26.89,    23.37,    33.05,    24.24,    26.89
       66.0,      26.66,    23.16,    32.79,    24.00,    26.70
       67.0,      26.44,    22.95,    32.54,    23.77,    26.51
       68.0,      26.23,    22.75,    32.29,    23.54,    26.33
       69.0,      26.02,    22.55,    32.04,    23.32,    26.15
       70.0,      25.81,    22.36,    31.80,    23.11,    25.97
       71.0,      25.61,    22.18,    31.56,    22.90,    25.80
       72.0,      25.41,    22.00,    31.32,    22.69,    25.64
       73.0,      25.22,    21.82,    31.09,    22.49,    25.48
       74.0,      25.03,    21.65,    30.86,    22.29,    25.32
       75.0,      24.85,    21.49,    30.63,    22.10,    25.17
       76.0,      24.67,    21.33,    30.40,    21.91,    25.02
       77.0,      24.49,    21.17,    30.18,    21.73,    24.88
       78.0,      24.32,    21.02,    29.96,    21.55,    24.74
       79.0,      24.15,    20.88,    29.74,    21.37,    24.60
       80.0,      23.98,    20.73,    29.53,    21.20,    24.47
       81.0,      23.82,    20.59,    29.31,    21.03,    24.34
       82.0,      23.66,    20.46,    29.10,    20.87,    24.21
       83.0,      23.50,    20.33,    28.90,    20.71,    24.09
       84.0,      23.35,    20.20,    28.69,    20.55,    23.97
       85.0,      23.20,    20.07,    28.49,    20.40,    23.85
       86.0,      23.06,    19.95,    28.29,    20.24,    23.74
       87.0,      22.91,    19.84,    28.09,    20.10,    23.62
       88.0,      22.77,    19.72,    27.90,    19.95,    23.52
       89.0,      22.63,    19.61,    27.71,    19.81,    23.41
       90.0,      22.50,    19.50,    27.52,    19.67,    23.31
       91.0,      22.37,    19.39,    27.33,    19.53,    23.20
       92.0,      22.23,    19.29,    27.14,    19.40,    23.11
       93.0,      22.11,    19.19,    26.96,    19.27,    23.01
       94.0,      21.98,    19.09,    26.78,    19.14,    22.91
       95.0,      21.86,    19.00,    26.60,    19.01,    22.82
       96.0,      21.74,    18.91,    26.42,    18.89,    22.73
       97.0,      21.62,    18.82,    26.25,    18.77,    22.65
       98.0,      21.50,    18.73,    26.07,    18.65,    22.56
       99.0,      21.39,    18.64,    25.90,    18.53,    22.48
      100.0,      21.28,    18.56,    25.74,    18.42,    22.39
      101.0,      21.17,    18.48,    25.57,    18.30,    22.31
      102.0,      21.06,    18.40,    25.41,    18.19,    22.23
      103.0,      20.95,    18.32,    25.24,    18.08,    22.16
      104.0,      20.85,    18.25,    25.08,    17.98,    22.08
      105.0,      20.74,    18.17,    24.92,    17.87,    22.01
      106.0,      20.64,    18.10,    24.77,    17.77,    21.94
      107.0,      20.54,    18.03,    24.61,    17.67,    21.87
      108.0,      20.45,    17.96,    24.46,    17.57,    21.80
      109.0,      20.35,    17.89,    24.31,    17.47,    21.73
      110.0,      20.26,    17.83,    24.16,    17.37,    21.66
      111.0,      20.16,    17.77,    24.01,    17.28,    21.60
      112.0,      20.07,    17.70,    23.87,    17.18,    21.54
      113.0,      19.98,    17.64,    23.72,    17.09,    21.47
      114.0,      19.89,    17.58,    23.58,    17.00,    21.41
      115.0,      19.81,    17.53,    23.44,    16.91,    21.35
      116.0,      19.72,    17.47,    23.30,    16.82,    21.29
      117.0,      19.64,    17.41,    23.16,    16.74,    21.24
      118.0,      19.55,    17.36,    23.03,    16.65,    21.18
      119.0,      19.47,    17.31,    22.89,    16.57,    21.12
      120.0,      19.39,    17.25,    22.76,    16.48,    21.07
      121.0,      19.31,    17.20,    22.63,    16.40,    21.02
      122.0,      19.23,    17.15,    22.50,    16.32,    20.96
      123.0,      19.16,    17.11,    22.37,    16.24,    20.91
      124.0,      19.08,    17.06,    22.25,    16.16,    20.86
      125.0,      19.01,    17.01,    22.12,    16.09,    20.81
      126.0,      18.93,    16.97,    22.00,    16.01,    20.76
      127.0,      18.86,    16.92,    21.88,    15.93,    20.71
      128.0,      18.79,    16.88,    21.75,    15.86,    20.66
      129.0,      18.72,    16.84,    21.64,    15.79,    20.62
      130.0,      18.65,    16.79,    21.52,    15.71,    20.57
      131.0,      18.58,    16.75,    21.40,    15.64,    20.53
      132.0,      18.51,    16.71,    21.29,    15.57,    20.48
      133.0,      18.45,    16.67,    21.17,    15.50,    20.44
      134.0,      18.38,    16.63,    21.06,    15.43,    20.39
      135.0,      18.32,    16.60,    20.95,    15.37,    20.35
      136.0,      18.25,    16.56,    20.84,    15.30,    20.31
      137.0,      18.19,    16.52,    20.73,    15.23,    20.27
      138.0,      18.13,    16.49,    20.62,    15.17,    20.23
      139.0,      18.06,    16.45,    20.52,    15.10,    20.19
      140.0,      18.00,    16.42,    20.41,    15.04,    20.15
      141.0,      17.94,    16.38,    20.31,    14.97,    20.11
      142.0,      17.88,    16.35,    20.21,    14.91,    20.07
      143.0,      17.82,    16.31,    20.10,    14.85,    20.03
      144.0,      17.77,    16.28,    20.00,    14.79,    19.99
      145.0,      17.71,    16.25,    19.91,    14.73,    19.96
      146.0,      17.65,    16.22,    19.81,    14.67,    19.92
      147.0,      17.60,    16.19,    19.71,    14.61,    19.88
      148.0,      17.54,    16.16,    19.62,    14.55,    19.85
      149.0,      17.49,    16.13,    19.52,    14.49,    19.81
      150.0,      17.43,    16.10,    19.43,    14.43,    19.78
      151.0,      17.38,    16.07,    19.34,    14.37,    19.74
      152.0,      17.33,    16.04,    19.24,    14.32,    19.71
      153.0,      17.27,    16.01,    19.15,    14.26,    19.67
      154.0,      17.22,    15.98,    19.06,    14.20,    19.64
      155.0,      17.17,    15.96,    18.98,    14.15,    19.61
      156.0,      17.12,    15.93,    18.89,    14.09,    19.57
      157.0,      17.07,    15.90,    18.80,    14.04,    19.54
      158.0,      17.02,    15.88,    18.72,    13.99,    19.51
      159.0,      16.97,    15.85,    18.63,    13.93,    19.48
      160.0,      16.92,    15.83,    18.55,    13.88,    19.44
      161.0,      16.88,    15.80,    18.47,    13.83,    19.41
      162.0,      16.83,    15.78,    18.38,    13.77,    19.38
      163.0,      16.78,    15.75,    18.30,    13.72,    19.35
      164.0,      16.74,    15.73,    18.22,    13.67,    19.32
      165.0,      16.69,    15.70,    18.14,    13.62,    19.29
      166.0,      16.64,    15.68,    18.07,    13.57,    19.26
      167.0,      16.60,    15.66,    17.99,    13.52,    19.23
      168.0,      16.55,    15.63,    17.91,    13.47,    19.20
      169.0,      16.51,    15.61,    17.84,    13.42,    19.17
      170.0,      16.47,    15.59,    17.76,    13.37,    19.14
      171.0,      16.42,    15.56,    17.69,    13.32,    19.11
      172.0,      16.38,    15.54,    17.62,    13.27,    19.08
      173.0,      16.34,    15.52,    17.54,    13.23,    19.06
      174.0,      16.29,    15.50,    17.47,    13.18,    19.03
      175.0,      16.25,    15.48,    17.40,    13.13,    19.00
      176.0,      16.21,    15.45,    17.33,    13.09,    18.97
      177.0,      16.17,    15.43,    17.26,    13.04,    18.94
      178.0,      16.13,    15.41,    17.19,    12.99,    18.92
      179.0,      16.09,    15.39,    17.13,    12.95,    18.89
      180.0,      16.05,    15.37,    17.06,    12.90,    18.86
      181.0,      16.01,    15.35,    16.99,    12.85,    18.83
      182.0,      15.97,    15.33,    16.93,    12.81,    18.81
      183.0,      15.93,    15.31,    16.86,    12.76,    18.78
      184.0,      15.89,    15.29,    16.80,    12.72,    18.75
      185.0,      15.85,    15.27,    16.73,    12.68,    18.73
      186.0,      15.81,    15.25,    16.67,    12.63,    18.70
      187.0,      15.78,    15.23,    16.61,    12.59,    18.68
      188.0,      15.74,    15.21,    16.55,    12.54,    18.65
      189.0,      15.70,    15.19,    16.49,    12.50,    18.62
      190.0,      15.66,    15.18,    16.43,    12.46,    18.60
      191.0,      15.63,    15.16,    16.37,    12.41,    18.57
      192.0,      15.59,    15.14,    16.31,    12.37,    18.55
      193.0,      15.56,    15.12,    16.25,    12.33,    18.52
      194.0,      15.52,    15.10,    16.19,    12.29,    18.50
      195.0,      15.48,    15.08,    16.13,    12.25,    18.47
      196.0,      15.45,    15.06,    16.08,    12.20,    18.45
      197.0,      15.41,    15.05,    16.02,    12.16,    18.42
      198.0,      15.38,    15.03,    15.97,    12.12,    18.40
      199.0,      15.34,    15.01,    15.91,    12.08,    18.37
      200.0,      15.31,    14.99,    15.86,    12.04,    18.35
      201.0,      15.28,    14.97,    15.80,    12.00,    18.32
      202.0,      15.24,    14.96,    15.75,    11.96,    18.30
      203.0,      15.21,    14.94,    15.70,    11.92,    18.28
      204.0,      15.17,    14.92,    15.64,    11.88,    18.25
      205.0,      15.14,    14.91,    15.59,    11.84,    18.23
      206.0,      15.11,    14.89,    15.54,    11.80,    18.20
      207.0,      15.08,    14.87,    15.49,    11.76,    18.18
      208.0,      15.04,    14.85,    15.44,    11.72,    18.16
      209.0,      15.01,    14.84,    15.39,    11.68,    18.13
      210.0,      14.98,    14.82,    15.34,    11.64,    18.11
      211.0,      14.95,    14.80,    15.29,    11.60,    18.09
      212.0,      14.92,    14.79,    15.25,    11.57,    18.06
      213.0,      14.88,    14.77,    15.20,    11.53,    18.04
      214.0,      14.85,    14.75,    15.15,    11.49,    18.02
      215.0,      14.82,    14.74,    15.10,    11.45,    17.99
      216.0,      14.79,    14.72,    15.06,    11.41,    17.97
      217.0,      14.76,    14.70,    15.01,    11.38,    17.95
      218.0,      14.73,    14.69,    14.97,    11.34,    17.92
      219.0,      14.70,    14.67,    14.92,    11.30,    17.90
      220.0,      14.67,    14.66,    14.88,    11.26,    17.88
      221.0,      14.64,    14.64,    14.83,    11.23,    17.85
      222.0,      14.61,    14.62,    14.79,    11.19,    17.83
      223.0,      14.58,    14.61,    14.75,    11.15,    17.81
      224.0,      14.55,    14.59,    14.70,    11.12,    17.79
      225.0,      14.52,    14.58,    14.66,    11.08,    17.76
      226.0,      14.49,    14.56,    14.62,    11.04,    17.74
      227.0,      14.46,    14.54,    14.58,    11.01,    17.72
      228.0,      14.43,    14.53,    14.54,    10.97,    17.70
      229.0,      14.41,    14.51,    14.50,    10.94,    17.67
      230.0,      14.38,    14.50,    14.46,    10.90,    17.65
      231.0,      14.35,    14.48,    14.42,    10.87,    17.63
      232.0,      14.32,    14.47,    14.38,    10.83,    17.61
      233.0,      14.29,    14.45,    14.34,    10.79,    17.59
      234.0,      14.26,    14.44,    14.30,    10.76,    17.56
      235.0,      14.24,    14.42,    14.26,    10.72,    17.54
      236.0,      14.21,    14.41,    14.22,    10.69,    17.52
      237.0,      14.18,    14.39,    14.18,    10.66,    17.50
      238.0,      14.15,    14.37,    14.15,    10.62,    17.48
      239.0,      14.13,    14.36,    14.11,    10.59,    17.45
      240.0,      14.10,    14.34,    14.07,    10.55,    17.43
      241.0,      14.07,    14.33,    14.04,    10.52,    17.41
      242.0,      14.05,    14.31,    14.00,    10.48,    17.39
      243.0,      14.02,    14.30,    13.96,    10.45,    17.37
      244.0,      13.99,    14.28,    13.93,    10.42,    17.35
      245.0,      13.97,    14.27,    13.89,    10.38,    17.32
      246.0,      13.94,    14.25,    13.86,    10.35,    17.30
      247.0,      13.92,    14.24,    13.82,    10.32,    17.28
      248.0,      13.89,    14.22,    13.79,    10.28,    17.26
      249.0,      13.86,    14.21,    13.76,    10.25,    17.24
      250.0,      13.84,    14.20,    13.72,    10.22,    17.22
      251.0,      13.81,    14.18,    13.69,    10.18,    17.20
      252.0,      13.79,    14.17,    13.66,    10.15,    17.18
      253.0,      13.76,    14.15,    13.62,    10.12,    17.15
      254.0,      13.74,    14.14,    13.59,    10.09,    17.13
      255.0,      13.71,    14.12,    13.56,    10.05,    17.11
      256.0,      13.69,    14.11,    13.53,    10.02,    17.09
      257.0,      13.66,    14.09,    13.49,     9.99,    17.07
      258.0,      13.64,    14.08,    13.46,     9.96,    17.05
      259.0,      13.61,    14.06,    13.43,     9.93,    17.03
      260.0,      13.59,    14.05,    13.40,     9.89,    17.01
      261.0,      13.56,    14.03,    13.37,     9.86,    16.99
      262.0,      13.54,    14.02,    13.34,     9.83,    16.97
      263.0,      13.51,    14.01,    13.31,     9.80,    16.94
      264.0,      13.49,    13.99,    13.28,     9.77,    16.92
      265.0,      13.47,    13.98,    13.25,     9.74,    16.90
      266.0,      13.44,    13.96,    13.22,     9.71,    16.88
      267.0,      13.42,    13.95,    13.19,     9.67,    16.86
      268.0,      13.40,    13.93,    13.16,     9.64,    16.84
      269.0,      13.37,    13.92,    13.13,     9.61,    16.82
      270.0,      13.35,    13.91,    13.10,     9.58,    16.80
      271.0,      13.32,    13.89,    13.08,     9.55,    16.78
      272.0,      13.30,    13.88,    13.05,     9.52,    16.76
      273.0,      13.28,    13.86,    13.02,     9.49,    16.74
      274.0,      13.26,    13.85,    12.99,     9.46,    16.72
      275.0,      13.23,    13.84,    12.97,     9.43,    16.70
      276.0,      13.21,    13.82,    12.94,     9.40,    16.68
      277.0,      13.19,    13.81,    12.91,     9.37,    16.66
      278.0,      13.16,    13.79,    12.89,     9.34,    16.64
      279.0,      13.14,    13.78,    12.86,     9.31,    16.62
      280.0,      13.12,    13.77,    12.83,     9.28,    16.60
      281.0,      13.10,    13.75,    12.81,     9.25,    16.58
      282.0,      13.07,    13.74,    12.78,     9.22,    16.56
      283.0,      13.05,    13.72,    12.75,     9.19,    16.54
      284.0,      13.03,    13.71,    12.73,     9.16,    16.52
      285.0,      13.01,    13.70,    12.70,     9.13,    16.49
      286.0,      12.99,    13.68,    12.68,     9.11,    16.47
      287.0,      12.96,    13.67,    12.65,     9.08,    16.45
      288.0,      12.94,    13.65,    12.63,     9.05,    16.43
      289.0,      12.92,    13.64,    12.60,     9.02,    16.41
      290.0,      12.90,    13.63,    12.58,     8.99,    16.39
      291.0,      12.88,    13.61,    12.56,     8.96,    16.37
      292.0,      12.85,    13.60,    12.53,     8.93,    16.35
      293.0,      12.83,    13.59,    12.51,     8.90,    16.34
      294.0,      12.81,    13.57,    12.48,     8.88,    16.32
      295.0,      12.79,    13.56,    12.46,     8.85,    16.30
      296.0,      12.77,    13.54,    12.44,     8.82,    16.28
      297.0,      12.75,    13.53,    12.41,     8.79,    16.26
      298.0,      12.73,    13.52,    12.39,     8.76,    16.24
      299.0,      12.71,    13.50,    12.37,     8.74,    16.22
      300.0,      12.68,    13.49,    12.35,     8.71,    16.20
      301.0,      12.66,    13.48,    12.32,     8.68,    16.18
      302.0,      12.64,    13.46,    12.30,     8.65,    16.16
      303.0,      12.62,    13.45,    12.28,     8.63,    16.14
      304.0,      12.60,    13.44,    12.26,     8.60,    16.12
      305.0,      12.58,    13.42,    12.23,     8.57,    16.10
      306.0,      12.56,    13.41,    12.21,     8.54,    16.08
      307.0,      12.54,    13.39,    12.19,     8.52,    16.06
      308.0,      12.52,    13.38,    12.17,     8.49,    16.04
      309.0,      12.50,    13.37,    12.15,     8.46,    16.02
      310.0,      12.48,    13.35,    12.13,     8.44,    16.00
