Radius (km), Mean (m/s), NE (m/s), SE (m/s), SW (m/s), NW (m/s)
        0.0,       0.00,     0.00,     0.00,     0.00,     0.00
        1.0,       3.19,     3.14,     3.14,     3.31,     3.14
        2.0,       5.41,     5.49,     5.50,     5.19,     5.48
        3.0,       7.43,     7.66,     7.68,     6.78,     7.60
        4.0,       9.39,     9.78,     9.87,     8.27,     9.65
        5.0,      11.41,    11.96,    12.18,     9.76,    11.74
        6.0,      13.54,    14.24,    14.66,    11.31,    13.94
        7.0,      15.79,    16.63,    17.32,    12.92,    16.29
        8.0,      18.14,    19.09,    20.11,    14.58,    18.79
        9.0,      20.53,    21.57,    22.92,    16.24,    21.38
       10.0,      22.84,    23.96,    25.62,    17.83,    23.96
       11.0,      24.98,    26.17,    28.08,    19.26,    26.40
       12.0,      26.83,    28.11,    30.17,    20.47,    28.58
       13.0,      28.33,    29.72,    31.79,    21.41,    30.40
       14.0,      29.42,    30.96,    32.90,    22.05,    31.76
       15.0,      30.09,    31.83,    33.51,    22.39,    32.66
       16.0,      30.39,    32.35,    33.65,    22.46,    33.09
       17.0,      30.36,    32.59,    33.42,    22.32,    33.12
       18.0,      30.09,    32.63,    32.92,    22.01,    32.83
       19.0,      29.67,    32.52,    32.25,    21.60,    32.32
       20.0,      29.17,    32.34,    31.50,    21.14,    31.68
       21.0,      28.65,    32.14,    30.75,    20.68,    31.00
       22.0,      28.14,    31.94,    30.03,    20.24,    30.34
       23.0,      27.65,    31.75,    29.34,    19.82,    29.71
       24.0,      27.20,    31.56,    28.69,    19.42,    29.11
       25.0,      26.76,    31.38,    28.06,    19.04,    28.55
       26.0,      26.34,    31.20,    27.46,    18.67,    28.01
       27.0,      25.93,    31.03,    26.89,    18.31,    27.50
       28.0,      25.54,    30.85,    26.33,    17.97,    27.00
       29.0,      25.16,    30.67,    25.80,    17.64,    26.51
       30.0,      24.79,    30.50,    25.28,    17.33,    26.05
       31.0,      24.44,    30.33,    24.79,    17.03,    25.60
       32.0,      24.09,    30.15,    24.31,    16.73,    25.17
       33.0,      23.76,    29.99,    23.86,    16.45,    24.76
       34.0,      23.44,    29.82,    23.42,    16.18,    24.36
       35.0,      23.14,    29.65,    22.99,    15.92,    23.97
       36.0,      22.84,    29.48,    22.59,    15.67,    23.60
       37.0,      22.55,    29.32,    22.20,    15.43,    23.24
       38.0,      22.27,    29.16,    21.82,    15.20,    22.90
       39.0,      22.00,    28.99,    21.46,    14.98,    22.57
       40.0,      21.74,    28.83,    21.11,    14.77,    22.25
       41.0,      21.49,    28.67,    20.77,    14.56,    21.94
       42.0,      21.24,    28.52,    20.45,    14.36,    21.64
       43.0,      21.00,    28.36,    20.14,    14.17,    21.35
       44.0,      20.78,    28.20,    19.84,    13.99,    21.07
       45.0,      20.55,    28.05,    19.55,    13.81,    20.80
       46.0,      20.34,    27.90,    19.28,    13.64,    20.54
       47.0,      20.13,    27.75,    19.01,    13.47,    20.29
       48.0,      19.93,    27.60,    18.75,    13.31,    20.05
       49.0,      19.73,    27.45,    18.51,    13.16,    19.82
       50.0,      19.54,    27.30,    18.27,    13.02,    19.59
       51.0,      19.36,    27.15,    18.04,    12.87,    19.38
       52.0,      19.18,    27.01,    17.82,    12.74,    19.17
       53.0,      19.01,    26.86,    17.61,    12.61,    18.96
       54.0,      18.84,    26.72,    17.40,    12.48,    18.77
       55.0,      18.68,    26.57,    17.21,    12.36,    18.58
       56.0,      18.52,    26.43,    17.02,    12.24,    18.39
       57.0,      18.37,    26.29,    16.83,    12.13,    18.22
       58.0,      18.22,    26.15,    16.66,    12.02,    18.05
       59.0,      18.07,    26.02,    16.49,    11.91,    17.88
       60.0,      17.93,    25.88,    16.32,    11.81,    17.72
       61.0,      17.80,    25.74,    16.17,    11.71,    17.56
       62.0,      17.66,    25.61,    16.02,    11.62,    17.41
       63.0,      17.54,    25.48,    15.87,    11.53,    17.27
       64.0,      17.41,    25.34,    15.73,    11.44,    17.13
       65.0,      17.29,    25.21,    15.59,    11.36,    16.99
       66.0,      17.17,    25.08,    15.46,    11.27,    16.86
       67.0,      17.05,    24.95,    15.33,    11.19,    16.73
       68.0,      16.94,    24.83,    15.21,    11.12,    16.60
       69.0,      16.83,    24.70,    15.09,    11.04,    16.48
       70.0,      16.72,    24.57,    14.98,    10.97,    16.37
       71.0,      16.62,    24.45,    14.87,    10.90,    16.25
       72.0,      16.52,    24.32,    14.77,    10.84,    16.14
       73.0,      16.42,    24.20,    14.66,    10.77,    16.04
       74.0,      16.32,    24.08,    14.56,    10.71,    15.93
       75.0,      16.23,    23.96,    14.47,    10.65,    15.83
       76.0,      16.13,    23.83,    14.38,    10.59,    15.73
       77.0,      16.04,    23.72,    14.29,    10.54,    15.64
       78.0,      15.96,    23.60,    14.20,    10.48,    15.54
       79.0,      15.87,    23.48,    14.12,    10.43,    15.45
       80.0,      15.79,    23.36,    14.04,    10.38,    15.37
       81.0,      15.71,    23.25,    13.96,    10.33,    15.28
       82.0,      15.63,    23.13,    13.89,    10.28,    15.20
       83.0,      15.55,    23.02,    13.81,    10.24,    15.12
       84.0,      15.47,    22.91,    13.74,    10.19,    15.04
       85.0,      15.40,    22.79,    13.68,    10.15,    14.96
       86.0,      15.32,    22.68,    13.61,    10.11,    14.88
       87.0,      15.25,    22.57,    13.55,    10.07,    14.81
       88.0,      15.18,    22.46,    13.49,    10.03,    14.74
       89.0,      15.11,    22.35,    13.43,     9.99,    14.67
       90.0,      15.04,    22.25,    13.37,     9.95,    14.60
       91.0,      14.98,    22.14,    13.31,     9.92,    14.54
       92.0,      14.91,    22.03,    13.26,     9.88,    14.47
       93.0,      14.85,    21.93,    13.21,     9.85,    14.41
       94.0,      14.79,    21.82,    13.16,     9.82,    14.35
       95.0,      14.72,    21.72,    13.11,     9.78,    14.29
       96.0,      14.66,    21.62,    13.06,     9.75,    14.23
       97.0,      14.60,    21.51,    13.01,     9.72,    14.17
       98.0,      14.55,    21.41,    12.97,     9.69,    14.11
       99.0,      14.49,    21.31,    12.92,     9.67,    14.06
      100.0,      14.43,    21.21,    12.88,     9.64,    14.00
      101.0,      14.38,    21.11,    12.84,     9.61,    13.95
      102.0,      14.32,    21.02,    12.80,     9.58,    13.89
      103.0,      14.27,    20.92,    12.76,     9.56,    13.84
      104.0,      14.22,    20.82,    12.72,     9.53,    13.79
      105.0,      14.17,    20.73,    12.68,     9.51,    13.74
      106.0,      14.11,    20.63,    12.65,     9.49,    13.69
      107.0,      14.06,    20.54,    12.61,     9.46,    13.65
      108.0,      14.02,    20.44,    12.58,     9.44,    13.60
      109.0,      13.97,    20.35,    12.55,     9.42,    13.55
      110.0,      13.92,    20.26,    12.51,     9.40,    13.51
      111.0,      13.87,    20.17,    12.48,     9.38,    13.46
      112.0,      13.83,    20.07,    12.45,     9.36,    13.42
      113.0,      13.78,    19.98,    12.42,     9.34,    13.38
      114.0,      13.73,    19.89,    12.39,     9.32,    13.34
      115.0,      13.69,    19.81,    12.36,     9.30,    13.29
      116.0,      13.65,    19.72,    12.33,     9.28,    13.25
      117.0,      13.60,    19.63,    12.31,     9.26,    13.21
      118.0,      13.56,    19.54,    12.28,     9.24,    13.17
      119.0,      13.52,    19.46,    12.25,     9.22,    13.13
      120.0,      13.48,    19.37,    12.23,     9.21,    13.09
      121.0,      13.43,    19.29,    12.20,     9.19,    13.05
      122.0,      13.39,    19.20,    12.18,     9.17,    13.02
      123.0,      13.35,    19.12,    12.16,     9.16,    12.98
      124.0,      13.31,    19.04,    12.13,     9.14,    12.94
      125.0,      13.27,    18.95,    12.11,     9.12,    12.91
      126.0,      13.23,    18.87,    12.09,     9.11,    12.87
      127.0,      13.20,    18.79,    12.06,     9.09,    12.83
      128.0,      13.16,    18.71,    12.04,     9.08,    12.80
      129.0,      13.12,    18.63,    12.02,     9.06,    12.76
      130.0,      13.08,    18.55,    12.00,     9.05,    12.73
      131.0,      13.05,    18.47,    11.98,     9.03,    12.70
      132.0,      13.01,    18.40,    11.96,     9.02,    12.66
      133.0,      12.97,    18.32,    11.94,     9.01,    12.63
      134.0,      12.94,    18.24,    11.92,     8.99,    12.60
      135.0,      12.90,    18.17,    11.90,     8.98,    12.56
      136.0,      12.87,    18.09,    11.88,     8.97,    12.53
      137.0,      12.83,    18.02,    11.86,     8.95,    12.50
      138.0,      12.80,    17.94,    11.84,     8.94,    12.47
      139.0,      12.76,    17.87,    11.83,     8.93,    12.43
      140.0,      12.73,    17.79,    11.81,     8.92,    12.40
      141.0,      12.70,    17.72,    11.79,     8.90,    12.37
      142.0,      12.66,    17.65,    11.77,     8.89,    12.34
      143.0,      12.63,    17.58,    11.76,     8.88,    12.31
      144.0,      12.60,    17.51,    11.74,     8.87,    12.28
      145.0,      12.57,    17.43,    11.72,     8.85,    12.25
      146.0,      12.53,    17.36,    11.71,     8.84,    12.22
      147.0,      12.50,    17.29,    11.69,     8.83,    12.19
      148.0,      12.47,    17.23,    11.67,     8.82,    12.16
      149.0,      12.44,    17.16,    11.66,     8.81,    12.13
      150.0,      12.41,    17.09,    11.64,     8.80,    12.10
      151.0,      12.38,    17.02,    11.63,     8.79,    12.07
      152.0,      12.35,    16.95,    11.61,     8.77,    12.05
      153.0,      12.32,    16.89,    11.60,     8.76,    12.02
      154.0,      12.29,    16.82,    11.58,     8.75,    11.99
      155.0,      12.26,    16.76,    11.57,     8.74,    11.96
      156.0,      12.23,    16.69,    11.55,     8.73,    11.93
      157.0,      12.20,    16.63,    11.54,     8.72,    11.90
      158.0,      12.17,    16.56,    11.52,     8.71,    11.88
      159.0,      12.14,    16.50,    11.51,     8.70,    11.85
      160.0,      12.11,    16.44,    11.50,     8.69,    11.82
      161.0,      12.08,    16.37,    11.48,     8.68,    11.80
      162.0,      12.05,    16.31,    11.47,     8.67,    11.77
      163.0,      12.03,    16.25,    11.45,     8.66,    11.74
      164.0,      12.00,    16.19,    11.44,     8.65,    11.71
      165.0,      11.97,    16.13,    11.43,     8.64,    11.69
      166.0,      11.94,    16.07,    11.41,     8.63,    11.66
      167.0,      11.91,    16.01,    11.40,     8.62,    11.64
      168.0,      11.89,    15.95,    11.39,     8.61,    11.61
      169.0,      11.86,    15.89,    11.37,     8.60,    11.58
      170.0,      11.83,    15.83,    11.36,     8.59,    11.56
      171.0,      11.81,    15.77,    11.35,     8.58,    11.53
      172.0,      11.78,    15.71,    11.33,     8.57,    11.51
      173.0,      11.75,    15.65,    11.32,     8.56,    11.48
      174.0,      11.73,    15.60,    11.31,     8.55,    11.45
      175.0,      11.70,    15.54,    11.29,     8.54,    11.43
      176.0,      11.68,    15.48,    11.28,     8.53,    11.40
      177.0,      11.65,    15.43,    11.27,     8.52,    11.38
      178.0,      11.62,    15.37,    11.26,     8.51,    11.35
      179.0,      11.60,    15.32,    11.24,     8.51,    11.33
      180.0,      11.57,    15.26,    11.23,     8.50,    11.30
      181.0,      11.55,    15.21,    11.22,     8.49,    11.28
      182.0,      11.52,    15.16,    11.21,     8.48,    11.25
      183.0,      11.50,    15.10,    11.19,     8.47,    11.23
      184.0,      11.47,    15.05,    11.18,     8.46,    11.20
      185.0,      11.45,    15.00,    11.17,     8.45,    11.18
      186.0,      11.42,    14.94,    11.16,     8.44,    11.15
      187.0,      11.40,    14.89,    11.15,     8.43,    11.13
      188.0,      11.38,    14.84,    11.13,     8.42,    11.11
      189.0,      11.35,    14.79,    11.12,     8.41,    11.08
      190.0,      11.33,    14.74,    11.11,     8.41,    11.06
      191.0,      11.30,    14.69,    11.10,     8.40,    11.03
      192.0,      11.28,    14.64,    11.09,     8.39,    11.01
      193.0,      11.26,    14.59,    11.07,     8.38,    10.99
      194.0,      11.23,    14.54,    11.06,     8.37,    10.96
      195.0,      11.21,    14.49,    11.05,     8.36,    10.94
      196.0,      11.19,    14.44,    11.04,     8.35,    10.91
      197.0,      11.16,    14.39,    11.03,     8.34,    10.89
      198.0,      11.14,    14.34,    11.02,     8.34,    10.87
      199.0,      11.12,    14.30,    11.00,     8.33,    10.84
      200.0,      11.09,    14.25,    10.99,     8.32,    10.82
      201.0,      11.07,    14.20,    10.98,     8.31,    10.80
      202.0,      11.05,    14.15,    10.97,     8.30,    10.77
      203.0,      11.03,    14.11,    10.96,     8.29,    10.75
      204.0,      11.00,    14.06,    10.95,     8.28,    10.73
      205.0,      10.98,    14.02,    10.94,     8.27,    10.70
      206.0,      10.96,    13.97,    10.92,     8.27,    10.68
      207.0,      10.94,    13.93,    10.91,     8.26,    10.66
      208.0,      10.92,    13.88,    10.90,     8.25,    10.64
      209.0,      10.90,    13.84,    10.89,     8.24,    10.61
      210.0,      10.87,    13.79,    10.88,     8.23,    10.59
      211.0,      10.85,    13.75,    10.87,     8.22,    10.57
      212.0,      10.83,    13.70,    10.86,     8.22,    10.54
      213.0,      10.81,    13.66,    10.85,     8.21,    10.52
      214.0,      10.79,    13.62,    10.83,     8.20,    10.50
      215.0,      10.77,    13.58,    10.82,     8.19,    10.48
      216.0,      10.75,    13.53,    10.81,     8.18,    10.45
      217.0,      10.72,    13.49,    10.80,     8.17,    10.43
      218.0,      10.70,    13.45,    10.79,     8.17,    10.41
      219.0,      10.68,    13.41,    10.78,     8.16,    10.39
      220.0,      10.66,    13.37,    10.77,     8.15,    10.37
      221.0,      10.64,    13.33,    10.76,     8.14,    10.34
      222.0,      10.62,    13.28,    10.75,     8.13,    10.32
      223.0,      10.60,    13.24,    10.74,     8.12,    10.30
      224.0,      10.58,    13.20,    10.72,     8.12,    10.28
      225.0,      10.56,    13.16,    10.71,     8.11,    10.26
      226.0,      10.54,    13.12,    10.70,     8.10,    10.23
      227.0,      10.52,    13.09,    10.69,     8.09,    10.21
      228.0,      10.50,    13.05,    10.68,     8.08,    10.19
      229.0,      10.48,    13.01,    10.67,     8.07,    10.17
      230.0,      10.46,    12.97,    10.66,     8.07,    10.15
      231.0,      10.44,    12.93,    10.65,     8.06,    10.12
      232.0,      10.42,    12.89,    10.64,     8.05,    10.10
      233.0,      10.40,    12.85,    10.63,     8.04,    10.08
      234.0,      10.38,    12.82,    10.62,     8.03,    10.06
      235.0,      10.36,    12.78,    10.61,     8.03,    10.04
      236.0,      10.34,    12.74,    10.59,     8.02,    10.02
      237.0,      10.32,    12.71,    10.58,     8.01,    10.00
      238.0,      10.30,    12.67,    10.57,     8.00,     9.98
      239.0,      10.29,    12.63,    10.56,     7.99,     9.95
      240.0,      10.27,    12.60,    10.55,     7.99,     9.93
      241.0,      10.25,    12.56,    10.54,     7.98,     9.91
      242.0,      10.23,    12.53,    10.53,     7.97,     9.89
      243.0,      10.21,    12.49,    10.52,     7.96,     9.87
      244.0,      10.19,    12.46,    10.51,     7.95,     9.85
      245.0,      10.17,    12.42,    10.50,     7.95,     9.83
      246.0,      10.15,    12.39,    10.49,     7.94,     9.81
      247.0,      10.14,    12.35,    10.48,     7.93,     9.79
      248.0,      10.12,    12.32,    10.47,     7.92,     9.77
      249.0,      10.10,    12.28,    10.46,     7.91,     9.74
      250.0,      10.08,    12.25,    10.45,     7.91,     9.72
      251.0,      10.06,    12.22,    10.44,     7.90,     9.70
      252.0,      10.04,    12.18,    10.42,     7.89,     9.68
      253.0,      10.03,    12.15,    10.41,     7.88,     9.66
      254.0,      10.01,    12.12,    10.40,     7.87,     9.64
      255.0,       9.99,    12.08,    10.39,     7.87,     9.62
      256.0,       9.97,    12.05,    10.38,     7.86,     9.60
      257.0,       9.96,    12.02,    10.37,     7.85,     9.58
      258.0,       9.94,    11.99,    10.36,     7.84,     9.56
      259.0,       9.92,    11.95,    10.35,     7.83,     9.54
      260.0,       9.90,    11.92,    10.34,     7.83,     9.52
      261.0,       9.89,    11.89,    10.33,     7.82,     9.50
      262.0,       9.87,    11.86,    10.32,     7.81,     9.48
      263.0,       9.85,    11.83,    10.31,     7.80,     9.46
      264.0,       9.83,    11.80,    10.30,     7.79,     9.44
      265.0,       9.82,    11.77,    10.29,     7.79,     9.42
      266.0,       9.80,    11.74,    10.28,     7.78,     9.40
      267.0,       9.78,    11.71,    10.27,     7.77,     9.38
      268.0,       9.76,    11.68,    10.26,     7.76,     9.36
      269.0,       9.75,    11.65,    10.25,     7.76,     9.34
      270.0,       9.73,    11.62,    10.24,     7.75,     9.32
      271.0,       9.71,    11.59,    10.23,     7.74,     9.30
      272.0,       9.70,    11.56,    10.22,     7.73,     9.28
      273.0,       9.68,    11.53,    10.21,     7.72,     9.26
      274.0,       9.66,    11.50,    10.20,     7.72,     9.24
      275.0,       9.65,    11.47,    10.19,     7.71,     9.22
      276.0,       9.63,    11.44,    10.18,     7.70,     9.20
      277.0,       9.61,    11.41,    10.17,     7.69,     9.18
      278.0,       9.60,    11.39,    10.16,     7.69,     9.16
      279.0,       9.58,    11.36,    10.15,     7.68,     9.14
      280.0,       9.57,    11.33,    10.14,     7.67,     9.12
      281.0,       9.55,    11.30,    10.13,     7.66,     9.10
      282.0,       9.53,    11.27,    10.12,     7.66,     9.09
      283.0,       9.52,    11.25,    10.11,     7.65,     9.07
      284.0,       9.50,    11.22,    10.10,     7.64,     9.05
      285.0,       9.48,    11.19,    10.09,     7.63,     9.03
      286.0,       9.47,    11.17,    10.08,     7.62,     9.01
      287.0,       9.45,    11.14,    10.06,     7.62,     8.99
      288.0,       9.44,    11.11,    10.05,     7.61,     8.97
      289.0,       9.42,    11.09,    10.04,     7.60,     8.95
      290.0,       9.41,    11.06,    10.03,     7.59,     8.93
      291.0,       9.39,    11.03,    10.02,     7.59,     8.91
      292.0,       9.37,    11.01,    10.01,     7.58,     8.89
      293.0,       9.36,    10.98,    10.00,     7.57,     8.88
      294.0,       9.34,    10.96,     9.99,     7.56,     8.86
      295.0,       9.33,    10.93,     9.98,     7.56,     8.84
      296.0,       9.31,    10.90,     9.97,     7.55,     8.82
      297.0,       9.30,    10.88,     9.96,     7.54,     8.80
      298.0,       9.28,    10.85,     9.95,     7.53,     8.78
      299.0,       9.27,    10.83,     9.94,     7.53,     8.76
      300.0,       9.25,    10.80,     9.93,     7.52,     8.75
      301.0,       9.24,    10.78,     9.92,     7.51,     8.73
      302.0,       9.22,    10.76,     9.91,     7.50,     8.71
      303.0,       9.21,    10.73,     9.90,     7.50,     8.69
      304.0,       9.19,    10.71,     9.90,     7.49,     8.67
      305.0,       9.18,    10.68,     9.89,     7.48,     8.65
      306.0,       9.16,    10.66,     9.88,     7.47,     8.63
      307.0,       9.15,    10.63,     9.87,     7.47,     8.62
      308.0,       9.13,    10.61,     9.86,     7.46,     8.60
      309.0,       9.12,    10.59,     9.85,     7.45,     8.58
      310.0,       9.10,    10.56,     9.84,     7.44,     8.56
