Radius (km), Mean (m/s), NE (m/s), SE (m/s), SW (m/s), NW (m/s)
        0.0,       0.00,     0.00,     0.00,     0.00,     0.00
        1.0,       3.17,     3.13,     3.13,     3.30,     3.13
        2.0,       5.39,     5.47,     5.47,     5.16,     5.46
        3.0,       7.39,     7.62,     7.63,     6.72,     7.58
        4.0,       9.32,     9.72,     9.76,     8.15,     9.63
        5.0,      11.27,    11.88,    11.95,     9.53,    11.71
        6.0,      13.31,    14.14,    14.26,    10.94,    13.89
        7.0,      15.46,    16.52,    16.70,    12.41,    16.21
        8.0,      17.71,    18.99,    19.24,    13.94,    18.67
        9.0,      20.00,    21.50,    21.79,    15.49,    21.20
       10.0,      22.24,    23.94,    24.27,    17.02,    23.72
       11.0,      24.33,    26.21,    26.56,    18.46,    26.10
       12.0,      26.19,    28.22,    28.57,    19.72,    28.24
       13.0,      27.72,    29.88,    30.21,    20.76,    30.03
       14.0,      28.88,    31.15,    31.44,    21.53,    31.41
       15.0,      29.66,    32.02,    32.26,    22.02,    32.34
       16.0,      30.07,    32.53,    32.70,    22.23,    32.84
       17.0,      30.17,    32.72,    32.82,    22.19,    32.95
       18.0,      30.03,    32.67,    32.71,    21.97,    32.77
       19.0,      29.73,    32.47,    32.44,    21.62,    32.38
       20.0,      29.33,    32.18,    32.09,    21.20,    31.86
       21.0,      28.91,    31.87,    31.71,    20.75,    31.30
       22.0,      28.49,    31.55,    31.34,    20.30,    30.75
       23.0,      28.09,    31.26,    30.99,    19.87,    30.22
       24.0,      27.70,    30.97,    30.64,    19.47,    29.73
       25.0,      27.34,    30.69,    30.31,    19.09,    29.25
       26.0,      26.98,    30.42,    29.98,    18.71,    28.80
       27.0,      26.63,    30.15,    29.66,    18.35,    28.35
       28.0,      26.29,    29.88,    29.34,    18.00,    27.92
       29.0,      25.95,    29.62,    29.03,    17.67,    27.50
       30.0,      25.63,    29.37,    28.72,    17.34,    27.09
       31.0,      25.31,    29.12,    28.42,    17.02,    26.70
       32.0,      25.00,    28.87,    28.12,    16.71,    26.32
       33.0,      24.70,    28.63,    27.82,    16.41,    25.95
       34.0,      24.41,    28.39,    27.54,    16.12,    25.58
       35.0,      24.12,    28.15,    27.25,    15.84,    25.23
       36.0,      23.84,    27.92,    26.98,    15.57,    24.89
       37.0,      23.57,    27.69,    26.70,    15.31,    24.56
       38.0,      23.30,    27.47,    26.43,    15.05,    24.24
       39.0,      23.04,    27.25,    26.17,    14.80,    23.93
       40.0,      22.78,    27.03,    25.91,    14.56,    23.63
       41.0,      22.53,    26.82,    25.65,    14.33,    23.33
       42.0,      22.29,    26.61,    25.40,    14.11,    23.05
       43.0,      22.05,    26.41,    25.15,    13.89,    22.77
       44.0,      21.82,    26.20,    24.91,    13.68,    22.50
       45.0,      21.60,    26.01,    24.67,    13.47,    22.24
       46.0,      21.38,    25.81,    24.44,    13.27,    21.98
       47.0,      21.16,    25.62,    24.20,    13.08,    21.74
       48.0,      20.95,    25.43,    23.98,    12.89,    21.50
       49.0,      20.74,    25.24,    23.75,    12.71,    21.26
       50.0,      20.54,    25.06,    23.53,    12.53,    21.03
       51.0,      20.34,    24.88,    23.32,    12.36,    20.81
       52.0,      20.15,    24.70,    23.10,    12.20,    20.60
       53.0,      19.96,    24.53,    22.89,    12.03,    20.39
       54.0,      19.78,    24.36,    22.69,    11.88,    20.18
       55.0,      19.60,    24.19,    22.48,    11.73,    19.99
       56.0,      19.42,    24.02,    22.28,    11.58,    19.79
       57.0,      19.25,    23.86,    22.09,    11.44,    19.61
       58.0,      19.08,    23.70,    21.90,    11.30,    19.42
       59.0,      18.91,    23.54,    21.71,    11.17,    19.25
       60.0,      18.75,    23.38,    21.52,    11.04,    19.07
       61.0,      18.60,    23.23,    21.34,    10.91,    18.91
       62.0,      18.44,    23.08,    21.16,    10.79,    18.74
       63.0,      18.29,    22.93,    20.98,    10.67,    18.58
       64.0,      18.14,    22.78,    20.80,    10.55,    18.43
       65.0,      18.00,    22.64,    20.63,    10.44,    18.28
       66.0,      17.86,    22.50,    20.46,    10.33,    18.13
       67.0,      17.72,    22.36,    20.30,    10.23,    17.98
       68.0,      17.58,    22.22,    20.13,    10.12,    17.84
       69.0,      17.45,    22.09,    19.97,    10.02,    17.71
       70.0,      17.32,    21.95,    19.81,     9.93,    17.58
       71.0,      17.19,    21.82,    19.66,     9.83,    17.45
       72.0,      17.06,    21.69,    19.50,     9.74,    17.32
       73.0,      16.94,    21.57,    19.35,     9.65,    17.20
       74.0,      16.82,    21.44,    19.20,     9.57,    17.08
       75.0,      16.70,    21.32,    19.06,     9.48,    16.96
       76.0,      16.59,    21.20,    18.91,     9.40,    16.84
       77.0,      16.48,    21.08,    18.77,     9.32,    16.73
       78.0,      16.37,    20.96,    18.63,     9.25,    16.62
       79.0,      16.26,    20.84,    18.50,     9.17,    16.52
       80.0,      16.15,    20.73,    18.36,     9.10,    16.41
       81.0,      16.05,    20.62,    18.23,     9.03,    16.31
       82.0,      15.94,    20.51,    18.10,     8.96,    16.21
       83.0,      15.84,    20.40,    17.97,     8.89,    16.11
       84.0,      15.75,    20.29,    17.84,     8.83,    16.02
       85.0,      15.65,    20.18,    17.72,     8.77,    15.93
       86.0,      15.55,    20.08,    17.60,     8.71,    15.84
       87.0,      15.46,    19.98,    17.48,     8.65,    15.75
       88.0,      15.37,    19.88,    17.36,     8.59,    15.66
       89.0,      15.28,    19.78,    17.24,     8.53,    15.58
       90.0,      15.19,    19.68,    17.13,     8.48,    15.49
       91.0,      15.11,    19.58,    17.01,     8.42,    15.41
       92.0,      15.02,    19.48,    16.90,     8.37,    15.33
       93.0,      14.94,    19.39,    16.79,     8.32,    15.26
       94.0,      14.86,    19.30,    16.69,     8.27,    15.18
       95.0,      14.78,    19.21,    16.58,     8.22,    15.10
       96.0,      14.70,    19.11,    16.48,     8.18,    15.03
       97.0,      14.62,    19.03,    16.37,     8.13,    14.96
       98.0,      14.55,    18.94,    16.27,     8.09,    14.89
       99.0,      14.47,    18.85,    16.17,     8.04,    14.82
      100.0,      14.40,    18.77,    16.07,     8.00,    14.75
      101.0,      14.33,    18.68,    15.98,     7.96,    14.69
      102.0,      14.26,    18.60,    15.88,     7.92,    14.62
      103.0,      14.19,    18.52,    15.79,     7.88,    14.56
      104.0,      14.12,    18.44,    15.70,     7.84,    14.50
      105.0,      14.05,    18.36,    15.61,     7.81,    14.44
      106.0,      13.98,    18.28,    15.52,     7.77,    14.38
      107.0,      13.92,    18.20,    15.43,     7.73,    14.32
      108.0,      13.86,    18.12,    15.34,     7.70,    14.26
      109.0,      13.79,    18.05,    15.26,     7.67,    14.20
      110.0,      13.73,    17.97,    15.17,     7.63,    14.15
      111.0,      13.67,    17.90,    15.09,     7.60,    14.09
      112.0,      13.61,    17.83,    15.01,     7.57,    14.04
      113.0,      13.55,    17.76,    14.93,     7.54,    13.98
      114.0,      13.49,    17.68,    14.85,     7.51,    13.93
      115.0,      13.44,    17.61,    14.77,     7.48,    13.88
      116.0,      13.38,    17.55,    14.69,     7.45,    13.83
      117.0,      13.32,    17.48,    14.62,     7.42,    13.78
      118.0,      13.27,    17.41,    14.54,     7.40,    13.73
      119.0,      13.22,    17.34,    14.47,     7.37,    13.68
      120.0,      13.16,    17.28,    14.40,     7.34,    13.63
      121.0,      13.11,    17.21,    14.33,     7.32,    13.59
      122.0,      13.06,    17.15,    14.26,     7.29,    13.54
      123.0,      13.01,    17.09,    14.19,     7.27,    13.49
      124.0,      12.96,    17.02,    14.12,     7.25,    13.45
      125.0,      12.91,    16.96,    14.05,     7.22,    13.40
      126.0,      12.86,    16.90,    13.99,     7.20,    13.36
      127.0,      12.81,    16.84,    13.92,     7.18,    13.32
      128.0,      12.77,    16.78,    13.86,     7.15,    13.28
      129.0,      12.72,    16.72,    13.79,     7.13,    13.23
      130.0,      12.68,    16.67,    13.73,     7.11,    13.19
      131.0,      12.63,    16.61,    13.67,     7.09,    13.15
      132.0,      12.59,    16.55,    13.61,     7.07,    13.11
      133.0,      12.54,    16.50,    13.55,     7.05,    13.07
      134.0,      12.50,    16.44,    13.49,     7.03,    13.03
      135.0,      12.46,    16.39,    13.43,     7.01,    12.99
      136.0,      12.41,    16.33,    13.38,     6.99,    12.95
      137.0,      12.37,    16.28,    13.32,     6.97,    12.92
      138.0,      12.33,    16.23,    13.27,     6.96,    12.88
      139.0,      12.29,    16.17,    13.21,     6.94,    12.84
      140.0,      12.25,    16.12,    13.16,     6.92,    12.80
      141.0,      12.21,    16.07,    13.10,     6.90,    12.77
      142.0,      12.17,    16.02,    13.05,     6.89,    12.73
      143.0,      12.13,    15.97,    13.00,     6.87,    12.70
      144.0,      12.10,    15.92,    12.95,     6.85,    12.66
      145.0,      12.06,    15.87,    12.90,     6.84,    12.63
      146.0,      12.02,    15.83,    12.85,     6.82,    12.59
      147.0,      11.98,    15.78,    12.80,     6.80,    12.56
      148.0,      11.95,    15.73,    12.75,     6.79,    12.52
      149.0,      11.91,    15.68,    12.70,     6.77,    12.49
      150.0,      11.88,    15.64,    12.66,     6.76,    12.46
      151.0,      11.84,    15.59,    12.61,     6.74,    12.42
      152.0,      11.81,    15.55,    12.57,     6.73,    12.39
      153.0,      11.77,    15.50,    12.52,     6.71,    12.36
      154.0,      11.74,    15.46,    12.48,     6.70,    12.33
      155.0,      11.71,    15.41,    12.43,     6.69,    12.29
      156.0,      11.67,    15.37,    12.39,     6.67,    12.26
      157.0,      11.64,    15.33,    12.35,     6.66,    12.23
      158.0,      11.61,    15.28,    12.30,     6.65,    12.20
      159.0,      11.58,    15.24,    12.26,     6.63,    12.17
      160.0,      11.54,    15.20,    12.22,     6.62,    12.14
      161.0,      11.51,    15.16,    12.18,     6.61,    12.11
      162.0,      11.48,    15.12,    12.14,     6.59,    12.08
      163.0,      11.45,    15.08,    12.10,     6.58,    12.05
      164.0,      11.42,    15.04,    12.06,     6.57,    12.02
      165.0,      11.39,    15.00,    12.03,     6.56,    11.99
      166.0,      11.36,    14.96,    11.99,     6.54,    11.96
      167.0,      11.33,    14.92,    11.95,     6.53,    11.93
      168.0,      11.30,    14.88,    11.91,     6.52,    11.90
      169.0,      11.27,    14.84,    11.88,     6.51,    11.87
      170.0,      11.25,    14.80,    11.84,     6.50,    11.84
      171.0,      11.22,    14.76,    11.81,     6.48,    11.81
      172.0,      11.19,    14.73,    11.77,     6.47,    11.79
      173.0,      11.16,    14.69,    11.74,     6.46,    11.76
      174.0,      11.13,    14.65,    11.70,     6.45,    11.73
      175.0,      11.11,    14.62,    11.67,     6.44,    11.70
      176.0,      11.08,    14.58,    11.63,     6.43,    11.68
      177.0,      11.05,    14.54,    11.60,     6.42,    11.65
      178.0,      11.03,    14.51,    11.57,     6.41,    11.62
      179.0,      11.00,    14.47,    11.54,     6.40,    11.59
      180.0,      10.97,    14.44,    11.50,     6.39,    11.57
      181.0,      10.95,    14.40,    11.47,     6.37,    11.54
      182.0,      10.92,    14.37,    11.44,     6.36,    11.51
      183.0,      10.90,    14.34,    11.41,     6.35,    11.49
      184.0,      10.87,    14.30,    11.38,     6.34,    11.46
      185.0,      10.85,    14.27,    11.35,     6.33,    11.43
      186.0,      10.82,    14.23,    11.32,     6.32,    11.41
      187.0,      10.80,    14.20,    11.29,     6.31,    11.38
      188.0,      10.77,    14.17,    11.26,     6.30,    11.36
      189.0,      10.75,    14.14,    11.24,     6.29,    11.33
      190.0,      10.72,    14.10,    11.21,     6.28,    11.30
      191.0,      10.70,    14.07,    11.18,     6.27,    11.28
      192.0,      10.68,    14.04,    11.15,     6.26,    11.25
      193.0,      10.65,    14.01,    11.12,     6.25,    11.23
      194.0,      10.63,    13.98,    11.10,     6.24,    11.20
      195.0,      10.61,    13.95,    11.07,     6.24,    11.18
      196.0,      10.58,    13.91,    11.04,     6.23,    11.15
      197.0,      10.56,    13.88,    11.02,     6.22,    11.13
      198.0,      10.54,    13.85,    10.99,     6.21,    11.10
      199.0,      10.52,    13.82,    10.97,     6.20,    11.08
      200.0,      10.49,    13.79,    10.94,     6.19,    11.05
      201.0,      10.47,    13.76,    10.92,     6.18,    11.03
      202.0,      10.45,    13.73,    10.89,     6.17,    11.01
      203.0,      10.43,    13.70,    10.87,     6.16,    10.98
      204.0,      10.41,    13.68,    10.84,     6.15,    10.96
      205.0,      10.39,    13.65,    10.82,     6.14,    10.93
      206.0,      10.36,    13.62,    10.80,     6.13,    10.91
      207.0,      10.34,    13.59,    10.77,     6.13,    10.89
      208.0,      10.32,    13.56,    10.75,     6.12,    10.86
      209.0,      10.30,    13.53,    10.73,     6.11,    10.84
      210.0,      10.28,    13.50,    10.70,     6.10,    10.81
      211.0,      10.26,    13.48,    10.68,     6.09,    10.79
      212.0,      10.24,    13.45,    10.66,     6.08,    10.77
      213.0,      10.22,    13.42,    10.64,     6.07,    10.74
      214.0,      10.20,    13.39,    10.62,     6.06,    10.72
      215.0,      10.18,    13.37,    10.59,     6.06,    10.70
      216.0,      10.16,    13.34,    10.57,     6.05,    10.67
      217.0,      10.14,    13.31,    10.55,     6.04,    10.65
      218.0,      10.12,    13.28,    10.53,     6.03,    10.63
      219.0,      10.10,    13.26,    10.51,     6.02,    10.60
      220.0,      10.08,    13.23,    10.49,     6.01,    10.58
      221.0,      10.06,    13.20,    10.47,     6.01,    10.56
      222.0,      10.04,    13.18,    10.45,     6.00,    10.54
      223.0,      10.02,    13.15,    10.43,     5.99,    10.51
      224.0,      10.00,    13.13,    10.41,     5.98,    10.49
      225.0,       9.98,    13.10,    10.39,     5.97,    10.47
      226.0,       9.96,    13.08,    10.37,     5.96,    10.45
      227.0,       9.94,    13.05,    10.35,     5.96,    10.42
      228.0,       9.93,    13.02,    10.33,     5.95,    10.40
      229.0,       9.91,    13.00,    10.31,     5.94,    10.38
      230.0,       9.89,    12.97,    10.29,     5.93,    10.36
      231.0,       9.87,    12.95,    10.27,     5.92,    10.33
      232.0,       9.85,    12.92,    10.26,     5.91,    10.31
      233.0,       9.83,    12.90,    10.24,     5.91,    10.29
      234.0,       9.82,    12.87,    10.22,     5.90,    10.27
      235.0,       9.80,    12.85,    10.20,     5.89,    10.25
      236.0,       9.78,    12.83,    10.18,     5.88,    10.22
      237.0,       9.76,    12.80,    10.17,     5.87,    10.20
      238.0,       9.74,    12.78,    10.15,     5.87,    10.18
      239.0,       9.73,    12.75,    10.13,     5.86,    10.16
      240.0,       9.71,    12.73,    10.11,     5.85,    10.14
      241.0,       9.69,    12.71,    10.10,     5.84,    10.12
      242.0,       9.67,    12.68,    10.08,     5.84,    10.10
      243.0,       9.66,    12.66,    10.06,     5.83,    10.07
      244.0,       9.64,    12.64,    10.05,     5.82,    10.05
      245.0,       9.62,    12.61,    10.03,     5.81,    10.03
      246.0,       9.60,    12.59,    10.01,     5.80,    10.01
      247.0,       9.59,    12.57,    10.00,     5.80,     9.99
      248.0,       9.57,    12.54,     9.98,     5.79,     9.97
      249.0,       9.55,    12.52,     9.97,     5.78,     9.95
      250.0,       9.54,    12.50,     9.95,     5.77,     9.93
      251.0,       9.52,    12.47,     9.93,     5.77,     9.90
      252.0,       9.50,    12.45,     9.92,     5.76,     9.88
      253.0,       9.49,    12.43,     9.90,     5.75,     9.86
      254.0,       9.47,    12.41,     9.89,     5.74,     9.84
      255.0,       9.45,    12.38,     9.87,     5.74,     9.82
      256.0,       9.44,    12.36,     9.86,     5.73,     9.80
      257.0,       9.42,    12.34,     9.84,     5.72,     9.78
      258.0,       9.40,    12.32,     9.83,     5.71,     9.76
      259.0,       9.39,    12.30,     9.81,     5.70,     9.74
      260.0,       9.37,    12.27,     9.80,     5.70,     9.72
      261.0,       9.36,    12.25,     9.78,     5.69,     9.70
      262.0,       9.34,    12.23,     9.77,     5.68,     9.68
      263.0,       9.32,    12.21,     9.75,     5.67,     9.66
      264.0,       9.31,    12.19,     9.74,     5.67,     9.64
      265.0,       9.29,    12.17,     9.72,     5.66,     9.62
      266.0,       9.28,    12.14,     9.71,     5.65,     9.60
      267.0,       9.26,    12.12,     9.70,     5.65,     9.58
      268.0,       9.24,    12.10,     9.68,     5.64,     9.56
      269.0,       9.23,    12.08,     9.67,     5.63,     9.54
      270.0,       9.21,    12.06,     9.65,     5.62,     9.52
      271.0,       9.20,    12.04,     9.64,     5.62,     9.50
      272.0,       9.18,    12.02,     9.63,     5.61,     9.48
      273.0,       9.17,    12.00,     9.61,     5.60,     9.46
      274.0,       9.15,    11.98,     9.60,     5.59,     9.44
      275.0,       9.14,    11.95,     9.58,     5.59,     9.42
      276.0,       9.12,    11.93,     9.57,     5.58,     9.40
      277.0,       9.10,    11.91,     9.56,     5.57,     9.38
      278.0,       9.09,    11.89,     9.55,     5.56,     9.36
      279.0,       9.07,    11.87,     9.53,     5.56,     9.34
      280.0,       9.06,    11.85,     9.52,     5.55,     9.32
      281.0,       9.04,    11.83,     9.51,     5.54,     9.30
      282.0,       9.03,    11.81,     9.49,     5.54,     9.28
      283.0,       9.01,    11.79,     9.48,     5.53,     9.26
      284.0,       9.00,    11.77,     9.47,     5.52,     9.24
      285.0,       8.98,    11.75,     9.45,     5.51,     9.22
      286.0,       8.97,    11.73,     9.44,     5.51,     9.20
      287.0,       8.96,    11.71,     9.43,     5.50,     9.18
      288.0,       8.94,    11.69,     9.42,     5.49,     9.16
      289.0,       8.93,    11.67,     9.40,     5.49,     9.14
      290.0,       8.91,    11.65,     9.39,     5.48,     9.12
      291.0,       8.90,    11.63,     9.38,     5.47,     9.11
      292.0,       8.88,    11.61,     9.37,     5.46,     9.09
      293.0,       8.87,    11.59,     9.36,     5.46,     9.07
      294.0,       8.85,    11.57,     9.34,     5.45,     9.05
      295.0,       8.84,    11.55,     9.33,     5.44,     9.03
      296.0,       8.82,    11.53,     9.32,     5.44,     9.01
      297.0,       8.81,    11.51,     9.31,     5.43,     8.99
      298.0,       8.80,    11.50,     9.30,     5.42,     8.97
      299.0,       8.78,    11.48,     9.28,     5.41,     8.95
      300.0,       8.77,    11.46,     9.27,     5.41,     8.94
      301.0,       8.75,    11.44,     9.26,     5.40,     8.92
      302.0,       8.74,    11.42,     9.25,     5.39,     8.90
      303.0,       8.73,    11.40,     9.24,     5.39,     8.88
      304.0,       8.71,    11.38,     9.22,     5.38,     8.86
      305.0,       8.70,    11.36,     9.21,     5.37,     8.84
      306.0,       8.68,    11.34,     9.20,     5.37,     8.82
      307.0,       8.67,    11.32,     9.19,     5.36,     8.81
      308.0,       8.66,    11.31,     9.18,     5.35,     8.79
      309.0,       8.64,    11.29,     9.17,     5.34,     8.77
      310.0,       8.63,    11.27,     9.16,     5.34,     8.75
