Radius (km), Mean (m/s), NE (m/s), SE (m/s), SW (m/s), NW (m/s)
        0.0,       0.00,     0.00,     0.00,     0.00,     0.00
        1.0,       3.19,     3.20,     3.20,     3.15,     3.22
        2.0,       5.01,     5.01,     5.01,     5.00,     5.02
        3.0,       6.52,     6.52,     6.52,     6.55,     6.50
        4.0,       7.86,     7.86,     7.86,     7.93,     7.81
        5.0,       9.09,     9.08,     9.08,     9.21,     9.00
        6.0,      10.24,    10.22,    10.22,    10.40,    10.12
        7.0,      11.32,    11.29,    11.29,    11.53,    11.16
        8.0,      12.35,    12.31,    12.31,    12.60,    12.16
        9.0,      13.33,    13.29,    13.29,    13.63,    13.10
       10.0,      14.27,    14.23,    14.23,    14.63,    14.02
       11.0,      15.19,    15.13,    15.14,    15.59,    14.90
       12.0,      16.08,    16.01,    16.03,    16.52,    15.75
       13.0,      16.95,    16.88,    16.92,    17.43,    16.58
       14.0,      17.84,    17.76,    17.85,    18.35,    17.42
       15.0,      18.77,    18.67,    18.82,    19.29,    18.29
       16.0,      19.75,    19.63,    19.84,    20.28,    19.23
       17.0,      20.79,    20.65,    20.92,    21.32,    20.25
       18.0,      21.87,    21.72,    22.01,    22.41,    21.34
       19.0,      22.98,    22.81,    23.09,    23.52,    22.48
       20.0,      24.06,    23.87,    24.12,    24.62,    23.61
       21.0,      25.06,    24.86,    25.05,    25.66,    24.68
       22.0,      25.94,    25.73,    25.84,    26.59,    25.61
       23.0,      26.67,    26.45,    26.49,    27.39,    26.36
       24.0,      27.22,    27.00,    26.97,    28.02,    26.88
       25.0,      27.58,    27.37,    27.30,    28.47,    27.18
       26.0,      27.76,    27.57,    27.49,    28.76,    27.25
       27.0,      27.80,    27.62,    27.58,    28.90,    27.12
       28.0,      27.73,    27.57,    27.59,    28.92,    26.84
       29.0,      27.58,    27.45,    27.56,    28.87,    26.46
       30.0,      27.40,    27.29,    27.51,    28.77,    26.02
       31.0,      27.20,    27.12,    27.45,    28.66,    25.58
       32.0,      27.01,    26.95,    27.40,    28.55,    25.14
       33.0,      26.83,    26.79,    27.36,    28.45,    24.74
       34.0,      26.67,    26.64,    27.31,    28.35,    24.36
       35.0,      26.50,    26.50,    27.27,    28.26,    23.99
       36.0,      26.35,    26.35,    27.22,    28.17,    23.65
       37.0,      26.20,    26.21,    27.18,    28.08,    23.31
       38.0,      26.05,    26.07,    27.13,    27.99,    22.99
       39.0,      25.90,    25.93,    27.09,    27.90,    22.68
       40.0,      25.76,    25.79,    27.05,    27.81,    22.38
       41.0,      25.62,    25.65,    27.00,    27.72,    22.09
       42.0,      25.48,    25.52,    26.96,    27.64,    21.81
       43.0,      25.34,    25.38,    26.91,    27.55,    21.54
       44.0,      25.21,    25.25,    26.87,    27.46,    21.28
       45.0,      25.08,    25.12,    26.83,    27.37,    21.02
       46.0,      24.96,    24.99,    26.78,    27.28,    20.78
       47.0,      24.84,    24.86,    26.74,    27.20,    20.55
       48.0,      24.71,    24.73,    26.70,    27.11,    20.32
       49.0,      24.60,    24.61,    26.65,    27.02,    20.10
       50.0,      24.48,    24.48,    26.61,    26.94,    19.89
       51.0,      24.36,    24.36,    26.57,    26.85,    19.68
       52.0,      24.25,    24.24,    26.52,    26.76,    19.48
       53.0,      24.14,    24.12,    26.48,    26.68,    19.29
       54.0,      24.03,    24.00,    26.44,    26.59,    19.10
       55.0,      23.93,    23.88,    26.40,    26.51,    18.92
       56.0,      23.82,    23.76,    26.35,    26.42,    18.75
       57.0,      23.72,    23.65,    26.31,    26.34,    18.58
       58.0,      23.62,    23.53,    26.27,    26.26,    18.42
       59.0,      23.52,    23.42,    26.23,    26.17,    18.26
       60.0,      23.42,    23.31,    26.18,    26.09,    18.11
       61.0,      23.33,    23.20,    26.14,    26.01,    17.96
       62.0,      23.23,    23.09,    26.10,    25.92,    17.82
       63.0,      23.14,    22.98,    26.06,    25.84,    17.68
       64.0,      23.05,    22.87,    26.01,    25.76,    17.54
       65.0,      22.96,    22.76,    25.97,    25.67,    17.41
       66.0,      22.87,    22.66,    25.93,    25.59,    17.28
       67.0,      22.78,    22.55,    25.89,    25.51,    17.16
       68.0,      22.69,    22.45,    25.85,    25.43,    17.04
       69.0,      22.61,    22.35,    25.81,    25.35,    16.92
       70.0,      22.52,    22.25,    25.76,    25.27,    16.81
       71.0,      22.44,    22.15,    25.72,    25.19,    16.70
       72.0,      22.36,    22.05,    25.68,    25.11,    16.59
       73.0,      22.28,    21.95,    25.64,    25.03,    16.49
       74.0,      22.20,    21.85,    25.60,    24.95,    16.39
       75.0,      22.12,    21.75,    25.56,    24.87,    16.29
       76.0,      22.04,    21.66,    25.52,    24.79,    16.20
       77.0,      21.96,    21.56,    25.48,    24.71,    16.10
       78.0,      21.89,    21.47,    25.44,    24.63,    16.01
       79.0,      21.81,    21.38,    25.40,    24.55,    15.92
       80.0,      21.74,    21.29,    25.35,    24.47,    15.84
       81.0,      21.66,    21.20,    25.31,    24.39,    15.75
       82.0,      21.59,    21.11,    25.27,    24.32,    15.67
       83.0,      21.52,    21.02,    25.23,    24.24,    15.59
       84.0,      21.45,    20.93,    25.19,    24.16,    15.52
       85.0,      21.38,    20.84,    25.15,    24.08,    15.44
       86.0,      21.31,    20.75,    25.11,    24.01,    15.37
       87.0,      21.24,    20.67,    25.07,    23.93,    15.29
       88.0,      21.17,    20.58,    25.03,    23.85,    15.22
       89.0,      21.11,    20.50,    24.99,    23.78,    15.15
       90.0,      21.04,    20.42,    24.95,    23.70,    15.09
       91.0,      20.97,    20.33,    24.91,    23.63,    15.02
       92.0,      20.91,    20.25,    24.87,    23.55,    14.95
       93.0,      20.84,    20.17,    24.83,    23.48,    14.89
       94.0,      20.78,    20.09,    24.79,    23.40,    14.83
       95.0,      20.72,    20.01,    24.75,    23.33,    14.77
       96.0,      20.65,    19.93,    24.72,    23.25,    14.71
       97.0,      20.59,    19.85,    24.68,    23.18,    14.65
       98.0,      20.53,    19.77,    24.64,    23.11,    14.59
       99.0,      20.47,    19.70,    24.60,    23.03,    14.54
      100.0,      20.41,    19.62,    24.56,    22.96,    14.48
      101.0,      20.34,    19.55,    24.52,    22.88,    14.43
      102.0,      20.28,    19.47,    24.48,    22.81,    14.38
      103.0,      20.23,    19.40,    24.44,    22.74,    14.32
      104.0,      20.17,    19.32,    24.40,    22.67,    14.27
      105.0,      20.11,    19.25,    24.36,    22.59,    14.22
      106.0,      20.05,    19.18,    24.33,    22.52,    14.17
      107.0,      19.99,    19.11,    24.29,    22.45,    14.12
      108.0,      19.93,    19.04,    24.25,    22.38,    14.08
      109.0,      19.88,    18.97,    24.21,    22.31,    14.03
      110.0,      19.82,    18.90,    24.17,    22.24,    13.98
      111.0,      19.77,    18.83,    24.13,    22.17,    13.94
      112.0,      19.71,    18.76,    24.10,    22.10,    13.89
      113.0,      19.65,    18.69,    24.06,    22.03,    13.85
      114.0,      19.60,    18.62,    24.02,    21.96,    13.80
      115.0,      19.55,    18.56,    23.98,    21.89,    13.76
      116.0,      19.49,    18.49,    23.94,    21.82,    13.72
      117.0,      19.44,    18.42,    23.91,    21.75,    13.67
      118.0,      19.38,    18.36,    23.87,    21.68,    13.63
      119.0,      19.33,    18.29,    23.83,    21.61,    13.59
      120.0,      19.28,    18.23,    23.79,    21.54,    13.55
      121.0,      19.23,    18.17,    23.76,    21.47,    13.51
      122.0,      19.17,    18.10,    23.72,    21.40,    13.47
      123.0,      19.12,    18.04,    23.68,    21.33,    13.43
      124.0,      19.07,    17.98,    23.64,    21.27,    13.39
      125.0,      19.02,    17.92,    23.61,    21.20,    13.36
      126.0,      18.97,    17.86,    23.57,    21.13,    13.32
      127.0,      18.92,    17.79,    23.53,    21.06,    13.28
      128.0,      18.87,    17.73,    23.49,    21.00,    13.24
      129.0,      18.82,    17.68,    23.46,    20.93,    13.21
      130.0,      18.77,    17.62,    23.42,    20.86,    13.17
      131.0,      18.72,    17.56,    23.38,    20.80,    13.14
      132.0,      18.67,    17.50,    23.35,    20.73,    13.10
      133.0,      18.62,    17.44,    23.31,    20.67,    13.06
      134.0,      18.57,    17.38,    23.27,    20.60,    13.03
      135.0,      18.52,    17.33,    23.24,    20.53,    13.00
      136.0,      18.48,    17.27,    23.20,    20.47,    12.96
      137.0,      18.43,    17.21,    23.16,    20.40,    12.93
      138.0,      18.38,    17.16,    23.13,    20.34,    12.89
      139.0,      18.33,    17.10,    23.09,    20.27,    12.86
      140.0,      18.29,    17.05,    23.06,    20.21,    12.83
      141.0,      18.24,    16.99,    23.02,    20.15,    12.79
      142.0,      18.19,    16.94,    22.98,    20.08,    12.76
      143.0,      18.15,    16.89,    22.95,    20.02,    12.73
      144.0,      18.10,    16.83,    22.91,    19.95,    12.70
      145.0,      18.05,    16.78,    22.88,    19.89,    12.66
      146.0,      18.01,    16.73,    22.84,    19.83,    12.63
      147.0,      17.96,    16.68,    22.80,    19.76,    12.60
      148.0,      17.92,    16.62,    22.77,    19.70,    12.57
      149.0,      17.87,    16.57,    22.73,    19.64,    12.54
      150.0,      17.83,    16.52,    22.70,    19.58,    12.51
      151.0,      17.78,    16.47,    22.66,    19.51,    12.48
      152.0,      17.74,    16.42,    22.63,    19.45,    12.45
      153.0,      17.69,    16.37,    22.59,    19.39,    12.42
      154.0,      17.65,    16.32,    22.56,    19.33,    12.38
      155.0,      17.60,    16.27,    22.52,    19.27,    12.35
      156.0,      17.56,    16.22,    22.49,    19.21,    12.32
      157.0,      17.52,    16.18,    22.45,    19.14,    12.30
      158.0,      17.47,    16.13,    22.42,    19.08,    12.27
      159.0,      17.43,    16.08,    22.38,    19.02,    12.24
      160.0,      17.39,    16.03,    22.35,    18.96,    12.21
      161.0,      17.34,    15.99,    22.31,    18.90,    12.18
      162.0,      17.30,    15.94,    22.28,    18.84,    12.15
      163.0,      17.26,    15.89,    22.24,    18.78,    12.12
      164.0,      17.22,    15.85,    22.21,    18.72,    12.09
      165.0,      17.17,    15.80,    22.17,    18.66,    12.06
      166.0,      17.13,    15.75,    22.14,    18.60,    12.03
      167.0,      17.09,    15.71,    22.10,    18.55,    12.01
      168.0,      17.05,    15.66,    22.07,    18.49,    11.98
      169.0,      17.01,    15.62,    22.04,    18.43,    11.95
      170.0,      16.97,    15.57,    22.00,    18.37,    11.92
      171.0,      16.93,    15.53,    21.97,    18.31,    11.89
      172.0,      16.88,    15.49,    21.93,    18.25,    11.87
      173.0,      16.84,    15.44,    21.90,    18.19,    11.84
      174.0,      16.80,    15.40,    21.87,    18.14,    11.81
      175.0,      16.76,    15.36,    21.83,    18.08,    11.78
      176.0,      16.72,    15.31,    21.80,    18.02,    11.76
      177.0,      16.68,    15.27,    21.76,    17.97,    11.73
      178.0,      16.64,    15.23,    21.73,    17.91,    11.70
      179.0,      16.60,    15.19,    21.70,    17.85,    11.67
      180.0,      16.56,    15.15,    21.66,    17.79,    11.65
      181.0,      16.52,    15.10,    21.63,    17.74,    11.62
      182.0,      16.48,    15.06,    21.60,    17.68,    11.59
      183.0,      16.44,    15.02,    21.56,    17.63,    11.57
      184.0,      16.41,    14.98,    21.53,    17.57,    11.54
      185.0,      16.37,    14.94,    21.50,    17.51,    11.51
      186.0,      16.33,    14.90,    21.46,    17.46,    11.49
      187.0,      16.29,    14.86,    21.43,    17.40,    11.46
      188.0,      16.25,    14.82,    21.40,    17.35,    11.43
      189.0,      16.21,    14.78,    21.36,    17.29,    11.41
      190.0,      16.17,    14.74,    21.33,    17.24,    11.38
      191.0,      16.14,    14.70,    21.30,    17.18,    11.36
      192.0,      16.10,    14.66,    21.26,    17.13,    11.33
      193.0,      16.06,    14.63,    21.23,    17.07,    11.31
      194.0,      16.02,    14.59,    21.20,    17.02,    11.28
      195.0,      15.98,    14.55,    21.17,    16.97,    11.25
      196.0,      15.95,    14.51,    21.13,    16.91,    11.23
      197.0,      15.91,    14.47,    21.10,    16.86,    11.20
      198.0,      15.87,    14.43,    21.07,    16.81,    11.18
      199.0,      15.83,    14.40,    21.04,    16.75,    11.15
      200.0,      15.80,    14.36,    21.00,    16.70,    11.13
      201.0,      15.76,    14.32,    20.97,    16.65,    11.10
      202.0,      15.72,    14.29,    20.94,    16.59,    11.08
      203.0,      15.69,    14.25,    20.91,    16.54,    11.05
      204.0,      15.65,    14.21,    20.87,    16.49,    11.03
      205.0,      15.61,    14.18,    20.84,    16.44,    11.00
      206.0,      15.58,    14.14,    20.81,    16.38,    10.98
      207.0,      15.54,    14.11,    20.78,    16.33,    10.95
      208.0,      15.51,    14.07,    20.75,    16.28,    10.93
      209.0,      15.47,    14.03,    20.71,    16.23,    10.90
      210.0,      15.43,    14.00,    20.68,    16.18,    10.88
      211.0,      15.40,    13.96,    20.65,    16.13,    10.85
      212.0,      15.36,    13.93,    20.62,    16.08,    10.83
      213.0,      15.33,    13.89,    20.59,    16.02,    10.80
      214.0,      15.29,    13.86,    20.56,    15.97,    10.78
      215.0,      15.26,    13.83,    20.52,    15.92,    10.76
      216.0,      15.22,    13.79,    20.49,    15.87,    10.73
      217.0,      15.19,    13.76,    20.46,    15.82,    10.71
      218.0,      15.15,    13.72,    20.43,    15.77,    10.68
      219.0,      15.12,    13.69,    20.40,    15.72,    10.66
      220.0,      15.08,    13.66,    20.37,    15.67,    10.64
      221.0,      15.05,    13.62,    20.34,    15.62,    10.61
      222.0,      15.01,    13.59,    20.31,    15.57,    10.59
      223.0,      14.98,    13.56,    20.27,    15.52,    10.56
      224.0,      14.95,    13.52,    20.24,    15.47,    10.54
      225.0,      14.91,    13.49,    20.21,    15.43,    10.52
      226.0,      14.88,    13.46,    20.18,    15.38,    10.49
      227.0,      14.84,    13.43,    20.15,    15.33,    10.47
      228.0,      14.81,    13.39,    20.12,    15.28,    10.45
      229.0,      14.78,    13.36,    20.09,    15.23,    10.42
      230.0,      14.74,    13.33,    20.06,    15.18,    10.40
      231.0,      14.71,    13.30,    20.03,    15.13,    10.38
      232.0,      14.68,    13.27,    20.00,    15.09,    10.35
      233.0,      14.64,    13.24,    19.97,    15.04,    10.33
      234.0,      14.61,    13.20,    19.94,    14.99,    10.31
      235.0,      14.58,    13.17,    19.91,    14.94,    10.28
      236.0,      14.54,    13.14,    19.88,    14.90,    10.26
      237.0,      14.51,    13.11,    19.85,    14.85,    10.24
      238.0,      14.48,    13.08,    19.81,    14.80,    10.22
      239.0,      14.45,    13.05,    19.78,    14.76,    10.19
      240.0,      14.41,    13.02,    19.75,    14.71,    10.17
      241.0,      14.38,    12.99,    19.72,    14.66,    10.15
      242.0,      14.35,    12.96,    19.69,    14.62,    10.12
      243.0,      14.32,    12.93,    19.66,    14.57,    10.10
      244.0,      14.28,    12.90,    19.63,    14.52,    10.08
      245.0,      14.25,    12.87,    19.60,    14.48,    10.06
      246.0,      14.22,    12.84,    19.57,    14.43,    10.03
      247.0,      14.19,    12.81,    19.55,    14.39,    10.01
      248.0,      14.16,    12.78,    19.52,    14.34,     9.99
      249.0,      14.12,    12.75,    19.49,    14.30,     9.97
      250.0,      14.09,    12.72,    19.46,    14.25,     9.94
      251.0,      14.06,    12.69,    19.43,    14.21,     9.92
      252.0,      14.03,    12.66,    19.40,    14.16,     9.90
      253.0,      14.00,    12.63,    19.37,    14.12,     9.88
      254.0,      13.97,    12.60,    19.34,    14.07,     9.86
      255.0,      13.94,    12.58,    19.31,    14.03,     9.83
      256.0,      13.91,    12.55,    19.28,    13.98,     9.81
      257.0,      13.87,    12.52,    19.25,    13.94,     9.79
      258.0,      13.84,    12.49,    19.22,    13.89,     9.77
      259.0,      13.81,    12.46,    19.19,    13.85,     9.75
      260.0,      13.78,    12.43,    19.16,    13.81,     9.72
      261.0,      13.75,    12.41,    19.13,    13.76,     9.70
      262.0,      13.72,    12.38,    19.10,    13.72,     9.68
      263.0,      13.69,    12.35,    19.08,    13.68,     9.66
      264.0,      13.66,    12.32,    19.05,    13.63,     9.64
      265.0,      13.63,    12.30,    19.02,    13.59,     9.62
      266.0,      13.60,    12.27,    18.99,    13.55,     9.60
      267.0,      13.57,    12.24,    18.96,    13.50,     9.57
      268.0,      13.54,    12.21,    18.93,    13.46,     9.55
      269.0,      13.51,    12.19,    18.90,    13.42,     9.53
      270.0,      13.48,    12.16,    18.87,    13.38,     9.51
      271.0,      13.45,    12.13,    18.85,    13.33,     9.49
      272.0,      13.42,    12.11,    18.82,    13.29,     9.47
      273.0,      13.39,    12.08,    18.79,    13.25,     9.45
      274.0,      13.36,    12.05,    18.76,    13.21,     9.43
      275.0,      13.33,    12.03,    18.73,    13.17,     9.40
      276.0,      13.30,    12.00,    18.70,    13.12,     9.38
      277.0,      13.27,    11.97,    18.68,    13.08,     9.36
      278.0,      13.24,    11.95,    18.65,    13.04,     9.34
      279.0,      13.22,    11.92,    18.62,    13.00,     9.32
      280.0,      13.19,    11.89,    18.59,    12.96,     9.30
      281.0,      13.16,    11.87,    18.56,    12.92,     9.28
      282.0,      13.13,    11.84,    18.53,    12.88,     9.26
      283.0,      13.10,    11.82,    18.51,    12.84,     9.24
      284.0,      13.07,    11.79,    18.48,    12.80,     9.22
      285.0,      13.04,    11.76,    18.45,    12.76,     9.20
      286.0,      13.01,    11.74,    18.42,    12.72,     9.18
      287.0,      12.99,    11.71,    18.40,    12.68,     9.16
      288.0,      12.96,    11.69,    18.37,    12.64,     9.14
      289.0,      12.93,    11.66,    18.34,    12.60,     9.12
      290.0,      12.90,    11.64,    18.31,    12.56,     9.09
      291.0,      12.87,    11.61,    18.28,    12.52,     9.07
      292.0,      12.84,    11.59,    18.26,    12.48,     9.05
      293.0,      12.82,    11.56,    18.23,    12.44,     9.03
      294.0,      12.79,    11.54,    18.20,    12.40,     9.01
      295.0,      12.76,    11.51,    18.17,    12.36,     8.99
      296.0,      12.73,    11.49,    18.15,    12.32,     8.97
      297.0,      12.70,    11.46,    18.12,    12.28,     8.95
      298.0,      12.68,    11.44,    18.09,    12.24,     8.93
      299.0,      12.65,    11.42,    18.07,    12.20,     8.91
      300.0,      12.62,    11.39,    18.04,    12.17,     8.89
      301.0,      12.59,    11.37,    18.01,    12.13,     8.87
      302.0,      12.57,    11.34,    17.98,    12.09,     8.85
      303.0,      12.54,    11.32,    17.96,    12.05,     8.84
      304.0,      12.51,    11.29,    17.93,    12.01,     8.82
      305.0,      12.49,    11.27,    17.90,    11.97,     8.80
      306.0,      12.46,    11.25,    17.88,    11.94,     8.78
      307.0,      12.43,    11.22,    17.85,    11.90,     8.76
      308.0,      12.40,    11.20,    17.82,    11.86,     8.74
      309.0,      12.38,    11.18,    17.80,    11.82,     8.72
      310.0,      12.35,    11.15,    17.77,    11.79,     8.70
