Radius (km), Mean (m/s), NE (m/s), SE (m/s), SW (m/s), NW (m/s)
        0.0,       0.00,     0.00,     0.00,     0.00,     0.00
        1.0,       3.58,     3.52,     3.52,     3.64,     3.64
        2.0,       6.21,     6.17,     6.19,     6.26,     6.23
        3.0,       8.62,     8.60,     8.67,     8.65,     8.55
        4.0,      10.96,    10.97,    11.13,    11.01,    10.73
        5.0,      13.33,    13.38,    13.67,    13.42,    12.87
        6.0,      15.82,    15.92,    16.33,    15.94,    15.08
        7.0,      18.44,    18.64,    19.13,    18.57,    17.40
        8.0,      21.17,    21.50,    22.02,    21.28,    19.85
        9.0,      23.94,    24.45,    24.92,    23.98,    22.41
       10.0,      26.66,    27.36,    27.72,    26.56,    24.99
       11.0,      29.20,    30.11,    30.29,    28.92,    27.48
       12.0,      31.46,    32.55,    32.54,    30.97,    29.77
       13.0,      33.34,    34.59,    34.38,    32.63,    31.76
       14.0,      34.78,    36.14,    35.78,    33.88,    33.34
       15.0,      35.78,    37.18,    36.74,    34.71,    34.47
       16.0,      36.34,    37.73,    37.29,    35.17,    35.15
       17.0,      36.53,    37.85,    37.52,    35.33,    35.41
       18.0,      36.43,    37.63,    37.50,    35.26,    35.32
       19.0,      36.13,    37.18,    37.32,    35.06,    34.98
       20.0,      35.73,    36.60,    37.06,    34.78,    34.48
       21.0,      35.29,    35.98,    36.77,    34.49,    33.90
       22.0,      34.84,    35.36,    36.49,    34.20,    33.32
       23.0,      34.42,    34.78,    36.22,    33.92,    32.77
       24.0,      34.02,    34.22,    35.96,    33.65,    32.25
       25.0,      33.64,    33.69,    35.70,    33.38,    31.77
       26.0,      33.26,    33.17,    35.45,    33.12,    31.30
       27.0,      32.90,    32.67,    35.20,    32.86,    30.86
       28.0,      32.54,    32.18,    34.95,    32.61,    30.43
       29.0,      32.19,    31.71,    34.70,    32.36,    30.01
       30.0,      31.85,    31.24,    34.46,    32.11,    29.60
       31.0,      31.52,    30.80,    34.22,    31.87,    29.21
       32.0,      31.20,    30.36,    33.98,    31.63,    28.83
       33.0,      30.88,    29.93,    33.75,    31.39,    28.47
       34.0,      30.58,    29.52,    33.52,    31.15,    28.11
       35.0,      30.27,    29.12,    33.29,    30.92,    27.77
       36.0,      29.98,    28.73,    33.06,    30.69,    27.43
       37.0,      29.69,    28.35,    32.83,    30.47,    27.11
       38.0,      29.41,    27.97,    32.61,    30.25,    26.80
       39.0,      29.13,    27.61,    32.39,    30.03,    26.50
       40.0,      28.86,    27.26,    32.18,    29.81,    26.20
       41.0,      28.60,    26.92,    31.96,    29.60,    25.92
       42.0,      28.34,    26.59,    31.75,    29.39,    25.64
       43.0,      28.09,    26.27,    31.54,    29.18,    25.37
       44.0,      27.84,    25.95,    31.33,    28.98,    25.11
       45.0,      27.60,    25.65,    31.13,    28.78,    24.86
       46.0,      27.36,    25.35,    30.92,    28.58,    24.61
       47.0,      27.13,    25.06,    30.72,    28.38,    24.37
       48.0,      26.91,    24.78,    30.52,    28.19,    24.14
       49.0,      26.68,    24.50,    30.33,    28.00,    23.91
       50.0,      26.47,    24.24,    30.13,    27.81,    23.69
       51.0,      26.25,    23.97,    29.94,    27.62,    23.48
       52.0,      26.05,    23.72,    29.75,    27.44,    23.27
       53.0,      25.84,    23.47,    29.56,    27.26,    23.07
       54.0,      25.64,    23.23,    29.38,    27.08,    22.87
       55.0,      25.44,    23.00,    29.19,    26.90,    22.68
       56.0,      25.25,    22.77,    29.01,    26.73,    22.49
       57.0,      25.06,    22.55,    28.83,    26.56,    22.31
       58.0,      24.88,    22.33,    28.65,    26.39,    22.13
       59.0,      24.69,    22.12,    28.48,    26.22,    21.96
       60.0,      24.52,    21.91,    28.30,    26.06,    21.79
       61.0,      24.34,    21.71,    28.13,    25.89,    21.63
       62.0,      24.17,    21.52,    27.96,    25.73,    21.46
       63.0,      24.00,    21.33,    27.79,    25.58,    21.31
       64.0,      23.84,    21.14,    27.62,    25.42,    21.15
       65.0,      23.67,    20.96,    27.46,    25.27,    21.00
       66.0,      23.51,    20.78,    27.30,    25.11,    20.86
       67.0,      23.36,    20.61,    27.14,    24.96,    20.71
       68.0,      23.20,    20.44,    26.98,    24.82,    20.57
       69.0,      23.05,    20.28,    26.82,    24.67,    20.44
       70.0,      22.90,    20.12,    26.66,    24.53,    20.30
       71.0,      22.76,    19.96,    26.51,    24.38,    20.17
       72.0,      22.61,    19.81,    26.35,    24.24,    20.04
       73.0,      22.47,    19.66,    26.20,    24.10,    19.92
       74.0,      22.33,    19.52,    26.05,    23.97,    19.79
       75.0,      22.20,    19.38,    25.91,    23.83,    19.67
       76.0,      22.06,    19.24,    25.76,    23.70,    19.55
       77.0,      21.93,    19.11,    25.61,    23.57,    19.44
       78.0,      21.80,    18.97,    25.47,    23.44,    19.32
       79.0,      21.67,    18.85,    25.33,    23.31,    19.21
       80.0,      21.55,    18.72,    25.19,    23.18,    19.10
       81.0,      21.43,    18.60,    25.05,    23.06,    18.99
       82.0,      21.30,    18.48,    24.91,    22.94,    18.89
       83.0,      21.18,    18.36,    24.78,    22.81,    18.78
       84.0,      21.07,    18.25,    24.64,    22.69,    18.68
       85.0,      20.95,    18.13,    24.51,    22.57,    18.58
       86.0,      20.84,    18.02,    24.38,    22.46,    18.48
       87.0,      20.72,    17.92,    24.25,    22.34,    18.38
       88.0,      20.61,    17.81,    24.12,    22.23,    18.29
       89.0,      20.50,    17.71,    23.99,    22.12,    18.19
       90.0,      20.40,    17.61,    23.87,    22.00,    18.10
       91.0,      20.29,    17.51,    23.74,    21.89,    18.01
       92.0,      20.19,    17.42,    23.62,    21.79,    17.92
       93.0,      20.08,    17.32,    23.50,    21.68,    17.83
       94.0,      19.98,    17.23,    23.38,    21.57,    17.74
       95.0,      19.88,    17.14,    23.26,    21.47,    17.65
       96.0,      19.78,    17.06,    23.14,    21.37,    17.57
       97.0,      19.68,    16.97,    23.02,    21.26,    17.48
       98.0,      19.59,    16.89,    22.91,    21.16,    17.40
       99.0,      19.49,    16.80,    22.79,    21.07,    17.32
      100.0,      19.40,    16.72,    22.68,    20.97,    17.24
      101.0,      19.31,    16.64,    22.57,    20.87,    17.16
      102.0,      19.22,    16.57,    22.46,    20.77,    17.08
      103.0,      19.13,    16.49,    22.35,    20.68,    17.00
      104.0,      19.04,    16.42,    22.24,    20.59,    16.92
      105.0,      18.95,    16.34,    22.13,    20.50,    16.84
      106.0,      18.87,    16.27,    22.02,    20.40,    16.77
      107.0,      18.78,    16.20,    21.92,    20.31,    16.69
      108.0,      18.70,    16.13,    21.81,    20.23,    16.62
      109.0,      18.61,    16.06,    21.71,    20.14,    16.55
      110.0,      18.53,    16.00,    21.61,    20.05,    16.47
      111.0,      18.45,    15.93,    21.51,    19.97,    16.40
      112.0,      18.37,    15.87,    21.41,    19.88,    16.33
      113.0,      18.29,    15.81,    21.31,    19.80,    16.26
      114.0,      18.22,    15.74,    21.21,    19.72,    16.19
      115.0,      18.14,    15.68,    21.11,    19.64,    16.12
      116.0,      18.06,    15.62,    21.02,    19.55,    16.05
      117.0,      17.99,    15.56,    20.92,    19.48,    15.99
      118.0,      17.91,    15.51,    20.83,    19.40,    15.92
      119.0,      17.84,    15.45,    20.74,    19.32,    15.85
      120.0,      17.77,    15.39,    20.64,    19.24,    15.79
      121.0,      17.70,    15.34,    20.55,    19.17,    15.72
      122.0,      17.62,    15.29,    20.46,    19.09,    15.66
      123.0,      17.55,    15.23,    20.37,    19.02,    15.59
      124.0,      17.48,    15.18,    20.28,    18.95,    15.53
      125.0,      17.42,    15.13,    20.20,    18.87,    15.46
      126.0,      17.35,    15.08,    20.11,    18.80,    15.40
      127.0,      17.28,    15.03,    20.02,    18.73,    15.34
      128.0,      17.21,    14.98,    19.94,    18.66,    15.28
      129.0,      17.15,    14.93,    19.85,    18.59,    15.22
      130.0,      17.08,    14.88,    19.77,    18.52,    15.16
      131.0,      17.02,    14.84,    19.69,    18.46,    15.09
      132.0,      16.96,    14.79,    19.61,    18.39,    15.03
      133.0,      16.89,    14.75,    19.53,    18.33,    14.97
      134.0,      16.83,    14.70,    19.45,    18.26,    14.92
      135.0,      16.77,    14.66,    19.37,    18.20,    14.86
      136.0,      16.71,    14.61,    19.29,    18.13,    14.80
      137.0,      16.65,    14.57,    19.21,    18.07,    14.74
      138.0,      16.59,    14.53,    19.13,    18.01,    14.68
      139.0,      16.53,    14.49,    19.06,    17.95,    14.62
      140.0,      16.47,    14.44,    18.98,    17.89,    14.57
      141.0,      16.41,    14.40,    18.91,    17.83,    14.51
      142.0,      16.35,    14.36,    18.83,    17.77,    14.45
      143.0,      16.30,    14.32,    18.76,    17.71,    14.40
      144.0,      16.24,    14.28,    18.69,    17.65,    14.34
      145.0,      16.19,    14.24,    18.62,    17.59,    14.29
      146.0,      16.13,    14.21,    18.55,    17.54,    14.23
      147.0,      16.08,    14.17,    18.48,    17.48,    14.18
      148.0,      16.02,    14.13,    18.41,    17.42,    14.12
      149.0,      15.97,    14.09,    18.34,    17.37,    14.07
      150.0,      15.91,    14.06,    18.27,    17.32,    14.02
      151.0,      15.86,    14.02,    18.20,    17.26,    13.96
      152.0,      15.81,    13.98,    18.13,    17.21,    13.91
      153.0,      15.76,    13.95,    18.07,    17.16,    13.86
      154.0,      15.71,    13.91,    18.00,    17.10,    13.80
      155.0,      15.65,    13.88,    17.94,    17.05,    13.75
      156.0,      15.60,    13.84,    17.87,    17.00,    13.70
      157.0,      15.55,    13.81,    17.81,    16.95,    13.65
      158.0,      15.50,    13.78,    17.75,    16.90,    13.59
      159.0,      15.46,    13.74,    17.68,    16.85,    13.54
      160.0,      15.41,    13.71,    17.62,    16.80,    13.49
      161.0,      15.36,    13.68,    17.56,    16.76,    13.44
      162.0,      15.31,    13.64,    17.50,    16.71,    13.39
      163.0,      15.26,    13.61,    17.44,    16.66,    13.34
      164.0,      15.22,    13.58,    17.38,    16.62,    13.29
      165.0,      15.17,    13.55,    17.32,    16.57,    13.24
      166.0,      15.12,    13.52,    17.26,    16.52,    13.19
      167.0,      15.08,    13.48,    17.20,    16.48,    13.14
      168.0,      15.03,    13.45,    17.14,    16.43,    13.09
      169.0,      14.99,    13.42,    17.09,    16.39,    13.04
      170.0,      14.94,    13.39,    17.03,    16.35,    12.99
      171.0,      14.90,    13.36,    16.97,    16.30,    12.95
      172.0,      14.85,    13.33,    16.92,    16.26,    12.90
      173.0,      14.81,    13.30,    16.86,    16.22,    12.85
      174.0,      14.76,    13.27,    16.81,    16.17,    12.80
      175.0,      14.72,    13.24,    16.76,    16.13,    12.75
      176.0,      14.68,    13.21,    16.70,    16.09,    12.71
      177.0,      14.64,    13.19,    16.65,    16.05,    12.66
      178.0,      14.59,    13.16,    16.60,    16.01,    12.61
      179.0,      14.55,    13.13,    16.54,    15.97,    12.57
      180.0,      14.51,    13.10,    16.49,    15.93,    12.52
      181.0,      14.47,    13.07,    16.44,    15.89,    12.47
      182.0,      14.43,    13.04,    16.39,    15.85,    12.43
      183.0,      14.39,    13.02,    16.34,    15.81,    12.38
      184.0,      14.35,    12.99,    16.29,    15.78,    12.33
      185.0,      14.31,    12.96,    16.24,    15.74,    12.29
      186.0,      14.27,    12.93,    16.19,    15.70,    12.24
      187.0,      14.23,    12.91,    16.14,    15.66,    12.20
      188.0,      14.19,    12.88,    16.10,    15.63,    12.15
      189.0,      14.15,    12.85,    16.05,    15.59,    12.11
      190.0,      14.11,    12.83,    16.00,    15.55,    12.06
      191.0,      14.07,    12.80,    15.96,    15.52,    12.02
      192.0,      14.03,    12.77,    15.91,    15.48,    11.97
      193.0,      14.00,    12.75,    15.86,    15.45,    11.93
      194.0,      13.96,    12.72,    15.82,    15.41,    11.89
      195.0,      13.92,    12.70,    15.77,    15.38,    11.84
      196.0,      13.89,    12.67,    15.73,    15.34,    11.80
      197.0,      13.85,    12.64,    15.68,    15.31,    11.75
      198.0,      13.81,    12.62,    15.64,    15.28,    11.71
      199.0,      13.78,    12.59,    15.60,    15.24,    11.67
      200.0,      13.74,    12.57,    15.55,    15.21,    11.63
      201.0,      13.70,    12.54,    15.51,    15.18,    11.58
      202.0,      13.67,    12.52,    15.47,    15.15,    11.54
      203.0,      13.63,    12.49,    15.42,    15.11,    11.50
      204.0,      13.60,    12.47,    15.38,    15.08,    11.45
      205.0,      13.56,    12.44,    15.34,    15.05,    11.41
      206.0,      13.53,    12.42,    15.30,    15.02,    11.37
      207.0,      13.49,    12.40,    15.26,    14.99,    11.33
      208.0,      13.46,    12.37,    15.22,    14.96,    11.29
      209.0,      13.42,    12.35,    15.18,    14.93,    11.25
      210.0,      13.39,    12.32,    15.14,    14.90,    11.20
      211.0,      13.36,    12.30,    15.10,    14.87,    11.16
      212.0,      13.32,    12.27,    15.06,    14.84,    11.12
      213.0,      13.29,    12.25,    15.02,    14.81,    11.08
      214.0,      13.26,    12.23,    14.98,    14.78,    11.04
      215.0,      13.23,    12.20,    14.95,    14.75,    11.00
      216.0,      13.19,    12.18,    14.91,    14.72,    10.96
      217.0,      13.16,    12.16,    14.87,    14.69,    10.92
      218.0,      13.13,    12.13,    14.83,    14.67,    10.88
      219.0,      13.10,    12.11,    14.80,    14.64,    10.84
      220.0,      13.06,    12.09,    14.76,    14.61,    10.80
      221.0,      13.03,    12.06,    14.72,    14.58,    10.76
      222.0,      13.00,    12.04,    14.69,    14.55,    10.72
      223.0,      12.97,    12.02,    14.65,    14.53,    10.68
      224.0,      12.94,    11.99,    14.62,    14.50,    10.64
      225.0,      12.91,    11.97,    14.58,    14.47,    10.60
      226.0,      12.88,    11.95,    14.55,    14.45,    10.56
      227.0,      12.85,    11.93,    14.51,    14.42,    10.53
      228.0,      12.82,    11.90,    14.48,    14.39,    10.49
      229.0,      12.79,    11.88,    14.44,    14.37,    10.45
      230.0,      12.76,    11.86,    14.41,    14.34,    10.41
      231.0,      12.73,    11.84,    14.38,    14.32,    10.37
      232.0,      12.70,    11.81,    14.34,    14.29,    10.33
      233.0,      12.67,    11.79,    14.31,    14.27,    10.30
      234.0,      12.64,    11.77,    14.28,    14.24,    10.26
      235.0,      12.61,    11.75,    14.24,    14.22,    10.22
      236.0,      12.58,    11.73,    14.21,    14.19,    10.18
      237.0,      12.55,    11.70,    14.18,    14.17,    10.15
      238.0,      12.52,    11.68,    14.15,    14.14,    10.11
      239.0,      12.49,    11.66,    14.12,    14.12,    10.07
      240.0,      12.46,    11.64,    14.09,    14.10,    10.04
      241.0,      12.44,    11.62,    14.05,    14.07,    10.00
      242.0,      12.41,    11.59,    14.02,    14.05,     9.96
      243.0,      12.38,    11.57,    13.99,    14.03,     9.93
      244.0,      12.35,    11.55,    13.96,    14.00,     9.89
      245.0,      12.32,    11.53,    13.93,    13.98,     9.85
      246.0,      12.30,    11.51,    13.90,    13.96,     9.82
      247.0,      12.27,    11.49,    13.87,    13.93,     9.78
      248.0,      12.24,    11.47,    13.84,    13.91,     9.75
      249.0,      12.21,    11.44,    13.81,    13.89,     9.71
      250.0,      12.19,    11.42,    13.78,    13.87,     9.67
      251.0,      12.16,    11.40,    13.76,    13.84,     9.64
      252.0,      12.13,    11.38,    13.73,    13.82,     9.60
      253.0,      12.11,    11.36,    13.70,    13.80,     9.57
      254.0,      12.08,    11.34,    13.67,    13.78,     9.53
      255.0,      12.05,    11.32,    13.64,    13.76,     9.50
      256.0,      12.03,    11.30,    13.61,    13.73,     9.46
      257.0,      12.00,    11.28,    13.59,    13.71,     9.43
      258.0,      11.98,    11.26,    13.56,    13.69,     9.39
      259.0,      11.95,    11.24,    13.53,    13.67,     9.36
      260.0,      11.92,    11.21,    13.50,    13.65,     9.33
      261.0,      11.90,    11.19,    13.48,    13.63,     9.29
      262.0,      11.87,    11.17,    13.45,    13.61,     9.26
      263.0,      11.85,    11.15,    13.42,    13.59,     9.22
      264.0,      11.82,    11.13,    13.40,    13.57,     9.19
      265.0,      11.80,    11.11,    13.37,    13.55,     9.16
      266.0,      11.77,    11.09,    13.35,    13.53,     9.12
      267.0,      11.75,    11.07,    13.32,    13.51,     9.09
      268.0,      11.72,    11.05,    13.29,    13.49,     9.06
      269.0,      11.70,    11.03,    13.27,    13.47,     9.02
      270.0,      11.67,    11.01,    13.24,    13.45,     8.99
      271.0,      11.65,    10.99,    13.22,    13.43,     8.96
      272.0,      11.62,    10.97,    13.19,    13.41,     8.93
      273.0,      11.60,    10.95,    13.17,    13.39,     8.89
      274.0,      11.58,    10.93,    13.14,    13.37,     8.86
      275.0,      11.55,    10.91,    13.12,    13.35,     8.83
      276.0,      11.53,    10.89,    13.09,    13.33,     8.80
      277.0,      11.50,    10.87,    13.07,    13.31,     8.76
      278.0,      11.48,    10.85,    13.05,    13.29,     8.73
      279.0,      11.46,    10.83,    13.02,    13.27,     8.70
      280.0,      11.43,    10.81,    13.00,    13.26,     8.67
      281.0,      11.41,    10.79,    12.97,    13.24,     8.64
      282.0,      11.39,    10.77,    12.95,    13.22,     8.60
      283.0,      11.36,    10.75,    12.93,    13.20,     8.57
      284.0,      11.34,    10.73,    12.90,    13.18,     8.54
      285.0,      11.32,    10.71,    12.88,    13.16,     8.51
      286.0,      11.29,    10.69,    12.86,    13.15,     8.48
      287.0,      11.27,    10.67,    12.84,    13.13,     8.45
      288.0,      11.25,    10.66,    12.81,    13.11,     8.42
      289.0,      11.23,    10.64,    12.79,    13.09,     8.39
      290.0,      11.20,    10.62,    12.77,    13.07,     8.36
      291.0,      11.18,    10.60,    12.75,    13.06,     8.33
      292.0,      11.16,    10.58,    12.72,    13.04,     8.29
      293.0,      11.14,    10.56,    12.70,    13.02,     8.26
      294.0,      11.11,    10.54,    12.68,    13.00,     8.23
      295.0,      11.09,    10.52,    12.66,    12.99,     8.20
      296.0,      11.07,    10.50,    12.64,    12.97,     8.17
      297.0,      11.05,    10.48,    12.62,    12.95,     8.14
      298.0,      11.03,    10.46,    12.59,    12.93,     8.11
      299.0,      11.01,    10.44,    12.57,    12.92,     8.08
      300.0,      10.98,    10.43,    12.55,    12.90,     8.06
      301.0,      10.96,    10.41,    12.53,    12.88,     8.03
      302.0,      10.94,    10.39,    12.51,    12.87,     8.00
      303.0,      10.92,    10.37,    12.49,    12.85,     7.97
      304.0,      10.90,    10.35,    12.47,    12.83,     7.94
      305.0,      10.88,    10.33,    12.45,    12.82,     7.91
      306.0,      10.86,    10.31,    12.43,    12.80,     7.88
      307.0,      10.83,    10.29,    12.41,    12.78,     7.85
      308.0,      10.81,    10.28,    12.39,    12.77,     7.82
      309.0,      10.79,    10.26,    12.37,    12.75,     7.79
      310.0,      10.77,    10.24,    12.35,    12.73,     7.77
