Radius (km), Mean (m/s), NE (m/s), SE (m/s), SW (m/s), NW (m/s)
        0.0,       0.00,     0.00,     0.00,     0.00,     0.00
        1.0,       2.82,     2.77,     2.74,     2.74,     3.04
        2.0,       4.71,     4.68,     4.66,     4.66,     4.84
        3.0,       6.36,     6.36,     6.35,     6.35,     6.36
        4.0,       7.86,     7.91,     7.91,     7.91,     7.72
        5.0,       9.27,     9.36,     9.38,     9.38,     8.97
        6.0,      10.62,    10.74,    10.79,    10.79,    10.14
        7.0,      11.90,    12.07,    12.14,    12.14,    11.25
        8.0,      13.14,    13.35,    13.44,    13.44,    12.31
        9.0,      14.34,    14.59,    14.71,    14.71,    13.33
       10.0,      15.50,    15.80,    15.95,    15.95,    14.31
       11.0,      16.64,    16.98,    17.15,    17.15,    15.26
       12.0,      17.75,    18.14,    18.34,    18.34,    16.18
       13.0,      18.85,    19.27,    19.52,    19.52,    17.07
       14.0,      19.96,    20.40,    20.72,    20.74,    17.96
       15.0,      21.11,    21.57,    21.98,    22.04,    18.86
       16.0,      22.34,    22.79,    23.33,    23.44,    19.80
       17.0,      23.65,    24.11,    24.76,    24.96,    20.78
       18.0,      25.04,    25.51,    26.27,    26.56,    21.81
       19.0,      26.46,    26.97,    27.80,    28.20,    22.88
       20.0,      27.88,    28.45,    29.30,    29.81,    23.96
       21.0,      29.22,    29.88,    30.71,    31.30,    24.99
       22.0,      30.42,    31.18,    31.96,    32.60,    25.94
       23.0,      31.43,    32.30,    33.01,    33.65,    26.77
       24.0,      32.21,    33.19,    33.81,    34.41,    27.44
       25.0,      32.75,    33.80,    34.38,    34.87,    27.94
       26.0,      33.05,    34.16,    34.71,    35.06,    28.26
       27.0,      33.14,    34.26,    34.85,    35.01,    28.43
       28.0,      33.06,    34.17,    34.84,    34.79,    28.46
       29.0,      32.88,    33.94,    34.73,    34.45,    28.39
       30.0,      32.63,    33.62,    34.57,    34.06,    28.27
       31.0,      32.36,    33.26,    34.39,    33.66,    28.12
       32.0,      32.09,    32.91,    34.22,    33.27,    27.97
       33.0,      31.84,    32.57,    34.06,    32.91,    27.83
       34.0,      31.61,    32.26,    33.91,    32.56,    27.70
       35.0,      31.38,    31.96,    33.76,    32.22,    27.57
       36.0,      31.16,    31.68,    33.62,    31.89,    27.45
       37.0,      30.94,    31.40,    33.47,    31.56,    27.33
       38.0,      30.73,    31.12,    33.33,    31.25,    27.21
       39.0,      30.52,    30.85,    33.18,    30.94,    27.09
       40.0,      30.31,    30.59,    33.04,    30.64,    26.98
       41.0,      30.11,    30.33,    32.90,    30.35,    26.86
       42.0,      29.91,    30.07,    32.76,    30.06,    26.74
       43.0,      29.71,    29.82,    32.62,    29.78,    26.62
       44.0,      29.52,    29.58,    32.48,    29.50,    26.51
       45.0,      29.33,    29.34,    32.34,    29.24,    26.39
       46.0,      29.14,    29.10,    32.21,    28.97,    26.28
       47.0,      28.95,    28.87,    32.07,    28.72,    26.16
       48.0,      28.77,    28.64,    31.93,    28.47,    26.05
       49.0,      28.59,    28.42,    31.80,    28.22,    25.93
       50.0,      28.42,    28.20,    31.67,    27.98,    25.82
       51.0,      28.24,    27.99,    31.53,    27.75,    25.71
       52.0,      28.07,    27.77,    31.40,    27.52,    25.59
       53.0,      27.90,    27.57,    31.27,    27.30,    25.48
       54.0,      27.74,    27.36,    31.14,    27.08,    25.37
       55.0,      27.57,    27.16,    31.01,    26.86,    25.26
       56.0,      27.41,    26.96,    30.88,    26.65,    25.15
       57.0,      27.25,    26.77,    30.76,    26.45,    25.04
       58.0,      27.10,    26.58,    30.63,    26.25,    24.93
       59.0,      26.94,    26.39,    30.50,    26.05,    24.82
       60.0,      26.79,    26.21,    30.38,    25.86,    24.71
       61.0,      26.64,    26.02,    30.25,    25.67,    24.60
       62.0,      26.49,    25.84,    30.13,    25.49,    24.50
       63.0,      26.34,    25.67,    30.01,    25.31,    24.39
       64.0,      26.20,    25.50,    29.88,    25.13,    24.28
       65.0,      26.06,    25.32,    29.76,    24.96,    24.18
       66.0,      25.92,    25.16,    29.64,    24.79,    24.07
       67.0,      25.78,    24.99,    29.52,    24.62,    23.97
       68.0,      25.64,    24.83,    29.40,    24.46,    23.86
       69.0,      25.50,    24.67,    29.29,    24.30,    23.76
       70.0,      25.37,    24.51,    29.17,    24.15,    23.65
       71.0,      25.24,    24.35,    29.05,    23.99,    23.55
       72.0,      25.11,    24.20,    28.94,    23.84,    23.45
       73.0,      24.98,    24.05,    28.82,    23.70,    23.34
       74.0,      24.85,    23.90,    28.71,    23.55,    23.24
       75.0,      24.73,    23.75,    28.59,    23.41,    23.14
       76.0,      24.60,    23.61,    28.48,    23.28,    23.04
       77.0,      24.48,    23.47,    28.37,    23.14,    22.94
       78.0,      24.36,    23.33,    28.25,    23.01,    22.84
       79.0,      24.24,    23.19,    28.14,    22.88,    22.74
       80.0,      24.12,    23.05,    28.03,    22.75,    22.64
       81.0,      24.00,    22.91,    27.92,    22.62,    22.54
       82.0,      23.88,    22.78,    27.81,    22.50,    22.44
       83.0,      23.77,    22.65,    27.71,    22.38,    22.34
       84.0,      23.66,    22.52,    27.60,    22.26,    22.25
       85.0,      23.54,    22.39,    27.49,    22.15,    22.15
       86.0,      23.43,    22.26,    27.38,    22.03,    22.05
       87.0,      23.32,    22.14,    27.28,    21.92,    21.96
       88.0,      23.21,    22.02,    27.17,    21.81,    21.86
       89.0,      23.11,    21.89,    27.07,    21.70,    21.76
       90.0,      23.00,    21.77,    26.97,    21.60,    21.67
       91.0,      22.90,    21.65,    26.86,    21.49,    21.57
       92.0,      22.79,    21.53,    26.76,    21.39,    21.48
       93.0,      22.69,    21.42,    26.66,    21.29,    21.39
       94.0,      22.59,    21.30,    26.56,    21.19,    21.29
       95.0,      22.48,    21.19,    26.45,    21.09,    21.20
       96.0,      22.38,    21.08,    26.35,    21.00,    21.11
       97.0,      22.29,    20.97,    26.25,    20.91,    21.01
       98.0,      22.19,    20.86,    26.16,    20.81,    20.92
       99.0,      22.09,    20.75,    26.06,    20.72,    20.83
      100.0,      21.99,    20.64,    25.96,    20.63,    20.74
      101.0,      21.90,    20.53,    25.86,    20.55,    20.65
      102.0,      21.80,    20.43,    25.77,    20.46,    20.56
      103.0,      21.71,    20.32,    25.67,    20.37,    20.47
      104.0,      21.62,    20.22,    25.57,    20.29,    20.38
      105.0,      21.52,    20.12,    25.48,    20.21,    20.29
      106.0,      21.43,    20.02,    25.38,    20.13,    20.20
      107.0,      21.34,    19.92,    25.29,    20.05,    20.11
      108.0,      21.25,    19.82,    25.20,    19.97,    20.03
      109.0,      21.16,    19.72,    25.10,    19.89,    19.94
      110.0,      21.07,    19.62,    25.01,    19.81,    19.85
      111.0,      20.99,    19.52,    24.92,    19.74,    19.76
      112.0,      20.90,    19.43,    24.83,    19.67,    19.68
      113.0,      20.81,    19.33,    24.74,    19.59,    19.59
      114.0,      20.73,    19.24,    24.65,    19.52,    19.51
      115.0,      20.64,    19.15,    24.56,    19.45,    19.42
      116.0,      20.56,    19.06,    24.47,    19.38,    19.34
      117.0,      20.48,    18.97,    24.38,    19.31,    19.25
      118.0,      20.39,    18.88,    24.29,    19.24,    19.17
      119.0,      20.31,    18.79,    24.20,    19.18,    19.08
      120.0,      20.23,    18.70,    24.12,    19.11,    19.00
      121.0,      20.15,    18.61,    24.03,    19.04,    18.92
      122.0,      20.07,    18.52,    23.94,    18.98,    18.83
      123.0,      19.99,    18.43,    23.86,    18.92,    18.75
      124.0,      19.91,    18.35,    23.77,    18.85,    18.67
      125.0,      19.83,    18.26,    23.69,    18.79,    18.59
      126.0,      19.76,    18.18,    23.60,    18.73,    18.51
      127.0,      19.68,    18.10,    23.52,    18.67,    18.43
      128.0,      19.60,    18.01,    23.44,    18.61,    18.35
      129.0,      19.53,    17.93,    23.35,    18.55,    18.27
      130.0,      19.45,    17.85,    23.27,    18.49,    18.19
      131.0,      19.37,    17.77,    23.19,    18.44,    18.11
      132.0,      19.30,    17.69,    23.11,    18.38,    18.03
      133.0,      19.23,    17.61,    23.03,    18.32,    17.95
      134.0,      19.15,    17.53,    22.94,    18.27,    17.87
      135.0,      19.08,    17.45,    22.86,    18.21,    17.79
      136.0,      19.01,    17.37,    22.78,    18.16,    17.71
      137.0,      18.93,    17.29,    22.71,    18.10,    17.64
      138.0,      18.86,    17.22,    22.63,    18.05,    17.56
      139.0,      18.79,    17.14,    22.55,    18.00,    17.48
      140.0,      18.72,    17.06,    22.47,    17.95,    17.41
      141.0,      18.65,    16.99,    22.39,    17.90,    17.33
      142.0,      18.58,    16.91,    22.31,    17.84,    17.25
      143.0,      18.51,    16.84,    22.24,    17.79,    17.18
      144.0,      18.44,    16.76,    22.16,    17.74,    17.10
      145.0,      18.38,    16.69,    22.09,    17.69,    17.03
      146.0,      18.31,    16.62,    22.01,    17.65,    16.96
      147.0,      18.24,    16.55,    21.93,    17.60,    16.88
      148.0,      18.17,    16.47,    21.86,    17.55,    16.81
      149.0,      18.11,    16.40,    21.79,    17.50,    16.73
      150.0,      18.04,    16.33,    21.71,    17.45,    16.66
      151.0,      17.97,    16.26,    21.64,    17.41,    16.59
      152.0,      17.91,    16.19,    21.56,    17.36,    16.52
      153.0,      17.84,    16.12,    21.49,    17.32,    16.44
      154.0,      17.78,    16.05,    21.42,    17.27,    16.37
      155.0,      17.71,    15.98,    21.35,    17.23,    16.30
      156.0,      17.65,    15.91,    21.28,    17.18,    16.23
      157.0,      17.59,    15.85,    21.20,    17.14,    16.16
      158.0,      17.52,    15.78,    21.13,    17.09,    16.09
      159.0,      17.46,    15.71,    21.06,    17.05,    16.02
      160.0,      17.40,    15.64,    20.99,    17.01,    15.95
      161.0,      17.34,    15.58,    20.92,    16.96,    15.88
      162.0,      17.27,    15.51,    20.85,    16.92,    15.81
      163.0,      17.21,    15.45,    20.78,    16.88,    15.74
      164.0,      17.15,    15.38,    20.71,    16.84,    15.67
      165.0,      17.09,    15.32,    20.65,    16.79,    15.60
      166.0,      17.03,    15.25,    20.58,    16.75,    15.53
      167.0,      16.97,    15.19,    20.51,    16.71,    15.47
      168.0,      16.91,    15.12,    20.44,    16.67,    15.40
      169.0,      16.85,    15.06,    20.38,    16.63,    15.33
      170.0,      16.79,    15.00,    20.31,    16.59,    15.26
      171.0,      16.73,    14.94,    20.24,    16.55,    15.20
      172.0,      16.67,    14.87,    20.18,    16.51,    15.13
      173.0,      16.61,    14.81,    20.11,    16.47,    15.06
      174.0,      16.56,    14.75,    20.05,    16.43,    15.00
      175.0,      16.50,    14.69,    19.98,    16.39,    14.93
      176.0,      16.44,    14.63,    19.92,    16.36,    14.87
      177.0,      16.38,    14.57,    19.85,    16.32,    14.80
      178.0,      16.33,    14.51,    19.79,    16.28,    14.74
      179.0,      16.27,    14.45,    19.72,    16.24,    14.67
      180.0,      16.21,    14.39,    19.66,    16.20,    14.61
      181.0,      16.16,    14.33,    19.60,    16.17,    14.55
      182.0,      16.10,    14.27,    19.53,    16.13,    14.48
      183.0,      16.05,    14.21,    19.47,    16.09,    14.42
      184.0,      15.99,    14.15,    19.41,    16.06,    14.36
      185.0,      15.94,    14.09,    19.35,    16.02,    14.29
      186.0,      15.88,    14.03,    19.28,    15.98,    14.23
      187.0,      15.83,    13.98,    19.22,    15.95,    14.17
      188.0,      15.77,    13.92,    19.16,    15.91,    14.11
      189.0,      15.72,    13.86,    19.10,    15.88,    14.05
      190.0,      15.67,    13.81,    19.04,    15.84,    13.98
      191.0,      15.61,    13.75,    18.98,    15.80,    13.92
      192.0,      15.56,    13.69,    18.92,    15.77,    13.86
      193.0,      15.51,    13.64,    18.86,    15.73,    13.80
      194.0,      15.46,    13.58,    18.80,    15.70,    13.74
      195.0,      15.40,    13.53,    18.74,    15.66,    13.68
      196.0,      15.35,    13.47,    18.68,    15.63,    13.62
      197.0,      15.30,    13.42,    18.63,    15.60,    13.56
      198.0,      15.25,    13.36,    18.57,    15.56,    13.50
      199.0,      15.20,    13.31,    18.51,    15.53,    13.44
      200.0,      15.15,    13.25,    18.45,    15.49,    13.38
      201.0,      15.09,    13.20,    18.39,    15.46,    13.33
      202.0,      15.04,    13.14,    18.34,    15.43,    13.27
      203.0,      14.99,    13.09,    18.28,    15.39,    13.21
      204.0,      14.94,    13.04,    18.22,    15.36,    13.15
      205.0,      14.89,    12.99,    18.17,    15.33,    13.09
      206.0,      14.84,    12.93,    18.11,    15.29,    13.04
      207.0,      14.79,    12.88,    18.06,    15.26,    12.98
      208.0,      14.75,    12.83,    18.00,    15.23,    12.92
      209.0,      14.70,    12.78,    17.95,    15.20,    12.87
      210.0,      14.65,    12.72,    17.89,    15.16,    12.81
      211.0,      14.60,    12.67,    17.84,    15.13,    12.76
      212.0,      14.55,    12.62,    17.78,    15.10,    12.70
      213.0,      14.50,    12.57,    17.73,    15.07,    12.64
      214.0,      14.45,    12.52,    17.67,    15.04,    12.59
      215.0,      14.41,    12.47,    17.62,    15.00,    12.53
      216.0,      14.36,    12.42,    17.57,    14.97,    12.48
      217.0,      14.31,    12.37,    17.51,    14.94,    12.42
      218.0,      14.26,    12.32,    17.46,    14.91,    12.37
      219.0,      14.22,    12.27,    17.41,    14.88,    12.32
      220.0,      14.17,    12.22,    17.35,    14.85,    12.26
      221.0,      14.12,    12.17,    17.30,    14.82,    12.21
      222.0,      14.08,    12.12,    17.25,    14.79,    12.16
      223.0,      14.03,    12.07,    17.20,    14.75,    12.10
      224.0,      13.99,    12.03,    17.15,    14.72,    12.05
      225.0,      13.94,    11.98,    17.09,    14.69,    12.00
      226.0,      13.89,    11.93,    17.04,    14.66,    11.94
      227.0,      13.85,    11.88,    16.99,    14.63,    11.89
      228.0,      13.80,    11.83,    16.94,    14.60,    11.84
      229.0,      13.76,    11.79,    16.89,    14.57,    11.79
      230.0,      13.71,    11.74,    16.84,    14.54,    11.74
      231.0,      13.67,    11.69,    16.79,    14.51,    11.69
      232.0,      13.63,    11.65,    16.74,    14.48,    11.64
      233.0,      13.58,    11.60,    16.69,    14.45,    11.58
      234.0,      13.54,    11.55,    16.64,    14.42,    11.53
      235.0,      13.49,    11.51,    16.59,    14.39,    11.48
      236.0,      13.45,    11.46,    16.54,    14.36,    11.43
      237.0,      13.41,    11.41,    16.49,    14.33,    11.38
      238.0,      13.36,    11.37,    16.45,    14.31,    11.33
      239.0,      13.32,    11.32,    16.40,    14.28,    11.28
      240.0,      13.28,    11.28,    16.35,    14.25,    11.23
      241.0,      13.23,    11.23,    16.30,    14.22,    11.19
      242.0,      13.19,    11.19,    16.25,    14.19,    11.14
      243.0,      13.15,    11.14,    16.21,    14.16,    11.09
      244.0,      13.11,    11.10,    16.16,    14.13,    11.04
      245.0,      13.06,    11.05,    16.11,    14.10,    10.99
      246.0,      13.02,    11.01,    16.06,    14.07,    10.94
      247.0,      12.98,    10.97,    16.02,    14.05,    10.90
      248.0,      12.94,    10.92,    15.97,    14.02,    10.85
      249.0,      12.90,    10.88,    15.92,    13.99,    10.80
      250.0,      12.86,    10.84,    15.88,    13.96,    10.75
      251.0,      12.82,    10.79,    15.83,    13.93,    10.71
      252.0,      12.77,    10.75,    15.79,    13.90,    10.66
      253.0,      12.73,    10.71,    15.74,    13.88,    10.61
      254.0,      12.69,    10.66,    15.70,    13.85,    10.57
      255.0,      12.65,    10.62,    15.65,    13.82,    10.52
      256.0,      12.61,    10.58,    15.61,    13.79,    10.47
      257.0,      12.57,    10.54,    15.56,    13.76,    10.43
      258.0,      12.53,    10.49,    15.52,    13.74,    10.38
      259.0,      12.49,    10.45,    15.47,    13.71,    10.34
      260.0,      12.45,    10.41,    15.43,    13.68,    10.29
      261.0,      12.41,    10.37,    15.38,    13.65,    10.25
      262.0,      12.37,    10.33,    15.34,    13.63,    10.20
      263.0,      12.34,    10.29,    15.30,    13.60,    10.16
      264.0,      12.30,    10.25,    15.25,    13.57,    10.11
      265.0,      12.26,    10.21,    15.21,    13.55,    10.07
      266.0,      12.22,    10.17,    15.17,    13.52,    10.03
      267.0,      12.18,    10.12,    15.12,    13.49,     9.98
      268.0,      12.14,    10.08,    15.08,    13.46,     9.94
      269.0,      12.10,    10.04,    15.04,    13.44,     9.90
      270.0,      12.07,    10.00,    14.99,    13.41,     9.85
      271.0,      12.03,     9.96,    14.95,    13.38,     9.81
      272.0,      11.99,     9.93,    14.91,    13.36,     9.77
      273.0,      11.95,     9.89,    14.87,    13.33,     9.72
      274.0,      11.91,     9.85,    14.83,    13.30,     9.68
      275.0,      11.88,     9.81,    14.78,    13.28,     9.64
      276.0,      11.84,     9.77,    14.74,    13.25,     9.60
      277.0,      11.80,     9.73,    14.70,    13.22,     9.55
      278.0,      11.77,     9.69,    14.66,    13.20,     9.51
      279.0,      11.73,     9.65,    14.62,    13.17,     9.47
      280.0,      11.69,     9.61,    14.58,    13.15,     9.43
      281.0,      11.66,     9.58,    14.54,    13.12,     9.39
      282.0,      11.62,     9.54,    14.50,    13.09,     9.35
      283.0,      11.58,     9.50,    14.46,    13.07,     9.31
      284.0,      11.55,     9.46,    14.42,    13.04,     9.27
      285.0,      11.51,     9.42,    14.38,    13.02,     9.23
      286.0,      11.47,     9.39,    14.34,    12.99,     9.19
      287.0,      11.44,     9.35,    14.30,    12.96,     9.15
      288.0,      11.40,     9.31,    14.26,    12.94,     9.11
      289.0,      11.37,     9.28,    14.22,    12.91,     9.07
      290.0,      11.33,     9.24,    14.18,    12.89,     9.03
      291.0,      11.30,     9.20,    14.14,    12.86,     8.99
      292.0,      11.26,     9.17,    14.10,    12.84,     8.95
      293.0,      11.23,     9.13,    14.06,    12.81,     8.91
      294.0,      11.19,     9.09,    14.02,    12.79,     8.87
      295.0,      11.16,     9.06,    13.98,    12.76,     8.83
      296.0,      11.12,     9.02,    13.95,    12.73,     8.79
      297.0,      11.09,     8.99,    13.91,    12.71,     8.75
      298.0,      11.05,     8.95,    13.87,    12.68,     8.72
      299.0,      11.02,     8.91,    13.83,    12.66,     8.68
      300.0,      10.99,     8.88,    13.79,    12.63,     8.64
      301.0,      10.95,     8.84,    13.76,    12.61,     8.60
      302.0,      10.92,     8.81,    13.72,    12.58,     8.56
      303.0,      10.89,     8.77,    13.68,    12.56,     8.53
      304.0,      10.85,     8.74,    13.64,    12.53,     8.49
      305.0,      10.82,     8.70,    13.61,    12.51,     8.45
      306.0,      10.79,     8.67,    13.57,    12.49,     8.42
      307.0,      10.75,     8.64,    13.53,    12.46,     8.38
      308.0,      10.72,     8.60,    13.50,    12.44,     8.34
      309.0,      10.69,     8.57,    13.46,    12.41,     8.31
      310.0,      10.65,     8.53,    13.42,    12.39,     8.27
