Radius (km), Mean (m/s), NE (m/s), SE (m/s), SW (m/s), NW (m/s)
        0.0,       0.00,     0.00,     0.00,     0.00,     0.00
        1.0,       2.95,     2.90,     2.91,     2.91,     3.10
        2.0,       4.83,     4.80,     4.81,     4.80,     4.91
        3.0,       6.44,     6.45,     6.45,     6.45,     6.41
        4.0,       7.90,     7.95,     7.94,     7.94,     7.76
        5.0,       9.25,     9.35,     9.34,     9.34,     8.99
        6.0,      10.53,    10.67,    10.66,    10.66,    10.14
        7.0,      11.75,    11.94,    11.92,    11.92,    11.23
        8.0,      12.92,    13.15,    13.13,    13.13,    12.27
        9.0,      14.05,    14.33,    14.30,    14.31,    13.26
       10.0,      15.14,    15.47,    15.44,    15.44,    14.22
       11.0,      16.20,    16.58,    16.54,    16.55,    15.14
       12.0,      17.24,    17.66,    17.63,    17.63,    16.04
       13.0,      18.26,    18.73,    18.72,    18.69,    16.91
       14.0,      19.30,    19.80,    19.86,    19.77,    17.77
       15.0,      20.38,    20.91,    21.07,    20.88,    18.64
       16.0,      21.52,    22.10,    22.38,    22.08,    19.55
       17.0,      22.75,    23.38,    23.77,    23.35,    20.51
       18.0,      24.05,    24.74,    25.22,    24.70,    21.52
       19.0,      25.38,    26.17,    26.67,    26.10,    22.59
       20.0,      26.70,    27.60,    28.06,    27.48,    23.67
       21.0,      27.95,    28.96,    29.33,    28.78,    24.72
       22.0,      29.06,    30.17,    30.42,    29.95,    25.69
       23.0,      29.98,    31.19,    31.29,    30.92,    26.52
       24.0,      30.67,    31.95,    31.91,    31.66,    27.18
       25.0,      31.13,    32.44,    32.30,    32.15,    27.64
       26.0,      31.37,    32.67,    32.47,    32.42,    27.91
       27.0,      31.40,    32.66,    32.47,    32.47,    27.99
       28.0,      31.27,    32.47,    32.34,    32.37,    27.91
       29.0,      31.04,    32.14,    32.14,    32.17,    27.73
       30.0,      30.76,    31.75,    31.91,    31.90,    27.47
       31.0,      30.45,    31.33,    31.67,    31.62,    27.18
       32.0,      30.15,    30.92,    31.44,    31.34,    26.89
       33.0,      29.86,    30.54,    31.22,    31.08,    26.62
       34.0,      29.60,    30.18,    31.01,    30.84,    26.37
       35.0,      29.35,    29.84,    30.81,    30.61,    26.13
       36.0,      29.11,    29.52,    30.61,    30.39,    25.90
       37.0,      28.87,    29.20,    30.41,    30.18,    25.68
       38.0,      28.64,    28.90,    30.22,    29.97,    25.47
       39.0,      28.41,    28.60,    30.04,    29.76,    25.26
       40.0,      28.19,    28.32,    29.85,    29.56,    25.05
       41.0,      27.98,    28.04,    29.68,    29.36,    24.85
       42.0,      27.77,    27.77,    29.50,    29.17,    24.65
       43.0,      27.57,    27.51,    29.33,    28.98,    24.46
       44.0,      27.37,    27.25,    29.16,    28.80,    24.27
       45.0,      27.18,    27.00,    29.00,    28.62,    24.09
       46.0,      26.99,    26.76,    28.83,    28.45,    23.91
       47.0,      26.80,    26.53,    28.68,    28.28,    23.73
       48.0,      26.62,    26.30,    28.52,    28.11,    23.56
       49.0,      26.45,    26.08,    28.37,    27.95,    23.39
       50.0,      26.28,    25.87,    28.22,    27.79,    23.23
       51.0,      26.11,    25.66,    28.07,    27.63,    23.06
       52.0,      25.94,    25.46,    27.93,    27.48,    22.91
       53.0,      25.78,    25.26,    27.79,    27.33,    22.75
       54.0,      25.62,    25.07,    27.65,    27.18,    22.60
       55.0,      25.47,    24.88,    27.52,    27.04,    22.45
       56.0,      25.32,    24.69,    27.38,    26.90,    22.30
       57.0,      25.17,    24.52,    27.25,    26.76,    22.15
       58.0,      25.03,    24.34,    27.12,    26.62,    22.01
       59.0,      24.88,    24.17,    27.00,    26.49,    21.87
       60.0,      24.74,    24.01,    26.88,    26.36,    21.73
       61.0,      24.61,    23.85,    26.75,    26.23,    21.60
       62.0,      24.47,    23.69,    26.64,    26.10,    21.46
       63.0,      24.34,    23.53,    26.52,    25.98,    21.33
       64.0,      24.21,    23.38,    26.40,    25.86,    21.20
       65.0,      24.09,    23.24,    26.29,    25.74,    21.08
       66.0,      23.96,    23.09,    26.18,    25.62,    20.95
       67.0,      23.84,    22.95,    26.07,    25.50,    20.83
       68.0,      23.72,    22.82,    25.97,    25.39,    20.71
       69.0,      23.60,    22.68,    25.86,    25.27,    20.59
       70.0,      23.48,    22.55,    25.76,    25.16,    20.47
       71.0,      23.37,    22.42,    25.66,    25.05,    20.35
       72.0,      23.26,    22.29,    25.56,    24.94,    20.24
       73.0,      23.15,    22.17,    25.46,    24.84,    20.13
       74.0,      23.04,    22.05,    25.36,    24.73,    20.01
       75.0,      22.93,    21.93,    25.27,    24.63,    19.90
       76.0,      22.83,    21.81,    25.17,    24.52,    19.80
       77.0,      22.72,    21.70,    25.08,    24.42,    19.69
       78.0,      22.62,    21.59,    24.99,    24.32,    19.58
       79.0,      22.52,    21.47,    24.90,    24.22,    19.48
       80.0,      22.42,    21.37,    24.81,    24.13,    19.37
       81.0,      22.32,    21.26,    24.73,    24.03,    19.27
       82.0,      22.23,    21.15,    24.64,    23.94,    19.17
       83.0,      22.13,    21.05,    24.56,    23.84,    19.07
       84.0,      22.04,    20.95,    24.48,    23.75,    18.97
       85.0,      21.94,    20.85,    24.40,    23.66,    18.87
       86.0,      21.85,    20.75,    24.32,    23.56,    18.78
       87.0,      21.76,    20.66,    24.24,    23.47,    18.68
       88.0,      21.67,    20.56,    24.16,    23.39,    18.59
       89.0,      21.58,    20.47,    24.08,    23.30,    18.49
       90.0,      21.50,    20.37,    24.01,    23.21,    18.40
       91.0,      21.41,    20.28,    23.93,    23.12,    18.31
       92.0,      21.33,    20.19,    23.86,    23.04,    18.22
       93.0,      21.24,    20.11,    23.79,    22.95,    18.13
       94.0,      21.16,    20.02,    23.72,    22.87,    18.04
       95.0,      21.08,    19.93,    23.65,    22.78,    17.95
       96.0,      21.00,    19.85,    23.58,    22.70,    17.86
       97.0,      20.92,    19.76,    23.51,    22.62,    17.77
       98.0,      20.84,    19.68,    23.44,    22.54,    17.69
       99.0,      20.76,    19.60,    23.37,    22.46,    17.60
      100.0,      20.68,    19.52,    23.31,    22.38,    17.52
      101.0,      20.60,    19.44,    23.24,    22.30,    17.43
      102.0,      20.53,    19.36,    23.18,    22.22,    17.35
      103.0,      20.45,    19.28,    23.11,    22.14,    17.27
      104.0,      20.38,    19.20,    23.05,    22.06,    17.19
      105.0,      20.30,    19.13,    22.99,    21.99,    17.10
      106.0,      20.23,    19.05,    22.93,    21.91,    17.02
      107.0,      20.15,    18.98,    22.86,    21.83,    16.94
      108.0,      20.08,    18.90,    22.80,    21.76,    16.86
      109.0,      20.01,    18.83,    22.74,    21.68,    16.79
      110.0,      19.94,    18.76,    22.69,    21.61,    16.71
      111.0,      19.87,    18.68,    22.63,    21.54,    16.63
      112.0,      19.80,    18.61,    22.57,    21.46,    16.55
      113.0,      19.73,    18.54,    22.51,    21.39,    16.48
      114.0,      19.66,    18.47,    22.46,    21.32,    16.40
      115.0,      19.59,    18.40,    22.40,    21.25,    16.32
      116.0,      19.53,    18.34,    22.35,    21.17,    16.25
      117.0,      19.46,    18.27,    22.29,    21.10,    16.17
      118.0,      19.39,    18.20,    22.24,    21.03,    16.10
      119.0,      19.33,    18.13,    22.18,    20.96,    16.03
      120.0,      19.26,    18.07,    22.13,    20.89,    15.95
      121.0,      19.20,    18.00,    22.08,    20.82,    15.88
      122.0,      19.13,    17.93,    22.03,    20.75,    15.81
      123.0,      19.07,    17.87,    21.97,    20.68,    15.74
      124.0,      19.00,    17.81,    21.92,    20.62,    15.67
      125.0,      18.94,    17.74,    21.87,    20.55,    15.59
      126.0,      18.88,    17.68,    21.82,    20.48,    15.52
      127.0,      18.81,    17.62,    21.77,    20.41,    15.45
      128.0,      18.75,    17.55,    21.72,    20.35,    15.38
      129.0,      18.69,    17.49,    21.67,    20.28,    15.32
      130.0,      18.63,    17.43,    21.63,    20.21,    15.25
      131.0,      18.57,    17.37,    21.58,    20.15,    15.18
      132.0,      18.51,    17.31,    21.53,    20.08,    15.11
      133.0,      18.45,    17.25,    21.48,    20.02,    15.04
      134.0,      18.39,    17.19,    21.44,    19.95,    14.98
      135.0,      18.33,    17.13,    21.39,    19.89,    14.91
      136.0,      18.27,    17.07,    21.34,    19.82,    14.84
      137.0,      18.21,    17.01,    21.30,    19.76,    14.78
      138.0,      18.15,    16.95,    21.25,    19.69,    14.71
      139.0,      18.09,    16.89,    21.21,    19.63,    14.65
      140.0,      18.04,    16.83,    21.16,    19.57,    14.58
      141.0,      17.98,    16.77,    21.12,    19.50,    14.52
      142.0,      17.92,    16.72,    21.07,    19.44,    14.45
      143.0,      17.86,    16.66,    21.03,    19.38,    14.39
      144.0,      17.81,    16.60,    20.99,    19.31,    14.32
      145.0,      17.75,    16.55,    20.94,    19.25,    14.26
      146.0,      17.69,    16.49,    20.90,    19.19,    14.20
      147.0,      17.64,    16.43,    20.86,    19.13,    14.14
      148.0,      17.58,    16.38,    20.81,    19.07,    14.07
      149.0,      17.53,    16.32,    20.77,    19.01,    14.01
      150.0,      17.47,    16.27,    20.73,    18.95,    13.95
      151.0,      17.42,    16.21,    20.69,    18.89,    13.89
      152.0,      17.36,    16.16,    20.65,    18.83,    13.83
      153.0,      17.31,    16.11,    20.61,    18.77,    13.77
      154.0,      17.26,    16.05,    20.56,    18.71,    13.71
      155.0,      17.20,    16.00,    20.52,    18.65,    13.65
      156.0,      17.15,    15.94,    20.48,    18.59,    13.59
      157.0,      17.10,    15.89,    20.44,    18.53,    13.53
      158.0,      17.04,    15.84,    20.40,    18.47,    13.47
      159.0,      16.99,    15.79,    20.36,    18.41,    13.41
      160.0,      16.94,    15.73,    20.32,    18.35,    13.35
      161.0,      16.89,    15.68,    20.28,    18.29,    13.29
      162.0,      16.84,    15.63,    20.25,    18.24,    13.23
      163.0,      16.78,    15.58,    20.21,    18.18,    13.18
      164.0,      16.73,    15.53,    20.17,    18.12,    13.12
      165.0,      16.68,    15.47,    20.13,    18.06,    13.06
      166.0,      16.63,    15.42,    20.09,    18.01,    13.00
      167.0,      16.58,    15.37,    20.05,    17.95,    12.95
      168.0,      16.53,    15.32,    20.01,    17.89,    12.89
      169.0,      16.48,    15.27,    19.98,    17.83,    12.83
      170.0,      16.43,    15.22,    19.94,    17.78,    12.78
      171.0,      16.38,    15.17,    19.90,    17.72,    12.72
      172.0,      16.33,    15.12,    19.86,    17.67,    12.67
      173.0,      16.28,    15.07,    19.83,    17.61,    12.61
      174.0,      16.23,    15.02,    19.79,    17.55,    12.56
      175.0,      16.18,    14.97,    19.75,    17.50,    12.50
      176.0,      16.13,    14.92,    19.72,    17.44,    12.45
      177.0,      16.08,    14.87,    19.68,    17.39,    12.39
      178.0,      16.04,    14.82,    19.64,    17.33,    12.34
      179.0,      15.99,    14.78,    19.61,    17.28,    12.29
      180.0,      15.94,    14.73,    19.57,    17.23,    12.23
      181.0,      15.89,    14.68,    19.54,    17.17,    12.18
      182.0,      15.84,    14.63,    19.50,    17.12,    12.13
      183.0,      15.80,    14.58,    19.46,    17.06,    12.08
      184.0,      15.75,    14.54,    19.43,    17.01,    12.02
      185.0,      15.70,    14.49,    19.39,    16.96,    11.97
      186.0,      15.66,    14.44,    19.36,    16.90,    11.92
      187.0,      15.61,    14.39,    19.32,    16.85,    11.87
      188.0,      15.56,    14.35,    19.29,    16.80,    11.82
      189.0,      15.52,    14.30,    19.25,    16.74,    11.76
      190.0,      15.47,    14.25,    19.22,    16.69,    11.71
      191.0,      15.42,    14.21,    19.18,    16.64,    11.66
      192.0,      15.38,    14.16,    19.15,    16.59,    11.61
      193.0,      15.33,    14.11,    19.12,    16.53,    11.56
      194.0,      15.29,    14.07,    19.08,    16.48,    11.51
      195.0,      15.24,    14.02,    19.05,    16.43,    11.46
      196.0,      15.20,    13.98,    19.01,    16.38,    11.41
      197.0,      15.15,    13.93,    18.98,    16.33,    11.36
      198.0,      15.11,    13.89,    18.95,    16.28,    11.31
      199.0,      15.06,    13.84,    18.91,    16.23,    11.26
      200.0,      15.02,    13.80,    18.88,    16.17,    11.22
      201.0,      14.97,    13.75,    18.84,    16.12,    11.17
      202.0,      14.93,    13.71,    18.81,    16.07,    11.12
      203.0,      14.88,    13.66,    18.78,    16.02,    11.07
      204.0,      14.84,    13.62,    18.75,    15.97,    11.02
      205.0,      14.80,    13.57,    18.71,    15.92,    10.98
      206.0,      14.75,    13.53,    18.68,    15.87,    10.93
      207.0,      14.71,    13.49,    18.65,    15.82,    10.88
      208.0,      14.67,    13.44,    18.61,    15.77,    10.83
      209.0,      14.62,    13.40,    18.58,    15.72,    10.79
      210.0,      14.58,    13.36,    18.55,    15.67,    10.74
      211.0,      14.54,    13.31,    18.52,    15.62,    10.69
      212.0,      14.49,    13.27,    18.48,    15.58,    10.65
      213.0,      14.45,    13.23,    18.45,    15.53,    10.60
      214.0,      14.41,    13.18,    18.42,    15.48,    10.56
      215.0,      14.37,    13.14,    18.39,    15.43,    10.51
      216.0,      14.32,    13.10,    18.36,    15.38,    10.46
      217.0,      14.28,    13.06,    18.32,    15.33,    10.42
      218.0,      14.24,    13.01,    18.29,    15.29,    10.37
      219.0,      14.20,    12.97,    18.26,    15.24,    10.33
      220.0,      14.16,    12.93,    18.23,    15.19,    10.28
      221.0,      14.12,    12.89,    18.20,    15.14,    10.24
      222.0,      14.08,    12.85,    18.16,    15.09,    10.20
      223.0,      14.03,    12.80,    18.13,    15.05,    10.15
      224.0,      13.99,    12.76,    18.10,    15.00,    10.11
      225.0,      13.95,    12.72,    18.07,    14.95,    10.06
      226.0,      13.91,    12.68,    18.04,    14.91,    10.02
      227.0,      13.87,    12.64,    18.01,    14.86,     9.98
      228.0,      13.83,    12.60,    17.98,    14.81,     9.93
      229.0,      13.79,    12.56,    17.95,    14.77,     9.89
      230.0,      13.75,    12.52,    17.92,    14.72,     9.85
      231.0,      13.71,    12.48,    17.88,    14.67,     9.81
      232.0,      13.67,    12.44,    17.85,    14.63,     9.76
      233.0,      13.63,    12.40,    17.82,    14.58,     9.72
      234.0,      13.59,    12.36,    17.79,    14.54,     9.68
      235.0,      13.55,    12.32,    17.76,    14.49,     9.64
      236.0,      13.51,    12.28,    17.73,    14.45,     9.60
      237.0,      13.47,    12.24,    17.70,    14.40,     9.55
      238.0,      13.43,    12.20,    17.67,    14.36,     9.51
      239.0,      13.40,    12.16,    17.64,    14.31,     9.47
      240.0,      13.36,    12.12,    17.61,    14.27,     9.43
      241.0,      13.32,    12.08,    17.58,    14.22,     9.39
      242.0,      13.28,    12.04,    17.55,    14.18,     9.35
      243.0,      13.24,    12.00,    17.52,    14.13,     9.31
      244.0,      13.20,    11.96,    17.49,    14.09,     9.27
      245.0,      13.16,    11.92,    17.46,    14.04,     9.23
      246.0,      13.13,    11.89,    17.43,    14.00,     9.19
      247.0,      13.09,    11.85,    17.40,    13.96,     9.15
      248.0,      13.05,    11.81,    17.37,    13.91,     9.11
      249.0,      13.01,    11.77,    17.34,    13.87,     9.07
      250.0,      12.98,    11.73,    17.31,    13.83,     9.03
      251.0,      12.94,    11.69,    17.28,    13.78,     8.99
      252.0,      12.90,    11.66,    17.25,    13.74,     8.95
      253.0,      12.86,    11.62,    17.22,    13.70,     8.92
      254.0,      12.83,    11.58,    17.20,    13.65,     8.88
      255.0,      12.79,    11.54,    17.17,    13.61,     8.84
      256.0,      12.75,    11.51,    17.14,    13.57,     8.80
      257.0,      12.72,    11.47,    17.11,    13.53,     8.76
      258.0,      12.68,    11.43,    17.08,    13.48,     8.72
      259.0,      12.64,    11.40,    17.05,    13.44,     8.69
      260.0,      12.61,    11.36,    17.02,    13.40,     8.65
      261.0,      12.57,    11.32,    16.99,    13.36,     8.61
      262.0,      12.54,    11.29,    16.96,    13.32,     8.58
      263.0,      12.50,    11.25,    16.93,    13.27,     8.54
      264.0,      12.46,    11.21,    16.91,    13.23,     8.50
      265.0,      12.43,    11.18,    16.88,    13.19,     8.46
      266.0,      12.39,    11.14,    16.85,    13.15,     8.43
      267.0,      12.36,    11.11,    16.82,    13.11,     8.39
      268.0,      12.32,    11.07,    16.79,    13.07,     8.36
      269.0,      12.29,    11.03,    16.76,    13.03,     8.32
      270.0,      12.25,    11.00,    16.74,    12.99,     8.28
      271.0,      12.22,    10.96,    16.71,    12.95,     8.25
      272.0,      12.18,    10.93,    16.68,    12.90,     8.21
      273.0,      12.15,    10.89,    16.65,    12.86,     8.18
      274.0,      12.11,    10.86,    16.62,    12.82,     8.14
      275.0,      12.08,    10.82,    16.59,    12.78,     8.11
      276.0,      12.04,    10.79,    16.57,    12.74,     8.07
      277.0,      12.01,    10.75,    16.54,    12.70,     8.04
      278.0,      11.97,    10.72,    16.51,    12.66,     8.00
      279.0,      11.94,    10.68,    16.48,    12.62,     7.97
      280.0,      11.91,    10.65,    16.46,    12.59,     7.93
      281.0,      11.87,    10.61,    16.43,    12.55,     7.90
      282.0,      11.84,    10.58,    16.40,    12.51,     7.86
      283.0,      11.80,    10.55,    16.37,    12.47,     7.83
      284.0,      11.77,    10.51,    16.34,    12.43,     7.80
      285.0,      11.74,    10.48,    16.32,    12.39,     7.76
      286.0,      11.70,    10.44,    16.29,    12.35,     7.73
      287.0,      11.67,    10.41,    16.26,    12.31,     7.70
      288.0,      11.64,    10.38,    16.23,    12.27,     7.66
      289.0,      11.60,    10.34,    16.21,    12.24,     7.63
      290.0,      11.57,    10.31,    16.18,    12.20,     7.60
      291.0,      11.54,    10.28,    16.15,    12.16,     7.56
      292.0,      11.51,    10.24,    16.13,    12.12,     7.53
      293.0,      11.47,    10.21,    16.10,    12.08,     7.50
      294.0,      11.44,    10.18,    16.07,    12.05,     7.47
      295.0,      11.41,    10.14,    16.04,    12.01,     7.43
      296.0,      11.38,    10.11,    16.02,    11.97,     7.40
      297.0,      11.34,    10.08,    15.99,    11.93,     7.37
      298.0,      11.31,    10.05,    15.96,    11.90,     7.34
      299.0,      11.28,    10.01,    15.94,    11.86,     7.31
      300.0,      11.25,     9.98,    15.91,    11.82,     7.28
      301.0,      11.22,     9.95,    15.88,    11.78,     7.24
      302.0,      11.18,     9.92,    15.86,    11.75,     7.21
      303.0,      11.15,     9.89,    15.83,    11.71,     7.18
      304.0,      11.12,     9.85,    15.80,    11.67,     7.15
      305.0,      11.09,     9.82,    15.78,    11.64,     7.12
      306.0,      11.06,     9.79,    15.75,    11.60,     7.09
      307.0,      11.03,     9.76,    15.72,    11.56,     7.06
      308.0,      11.00,     9.73,    15.70,    11.53,     7.03
      309.0,      10.96,     9.70,    15.67,    11.49,     7.00
      310.0,      10.93,     9.66,    15.64,    11.46,     6.97
