Radius (km), Mean (m/s), NE (m/s), SE (m/s), SW (m/s), NW (m/s)
        0.0,       0.00,     0.00,     0.00,     0.00,     0.00
        1.0,       3.00,     2.96,     2.97,     2.97,     3.12
        2.0,       4.87,     4.85,     4.86,     4.85,     4.93
        3.0,       6.47,     6.47,     6.47,     6.47,     6.44
        4.0,       7.90,     7.95,     7.94,     7.94,     7.78
        5.0,       9.24,     9.32,     9.30,     9.31,     9.01
        6.0,      10.49,    10.61,    10.58,    10.60,    10.17
        7.0,      11.68,    11.85,    11.80,    11.82,    11.25
        8.0,      12.82,    13.03,    12.97,    13.00,    12.29
        9.0,      13.92,    14.17,    14.10,    14.14,    13.28
       10.0,      14.99,    15.28,    15.19,    15.23,    14.24
       11.0,      16.02,    16.35,    16.25,    16.30,    15.16
       12.0,      17.02,    17.40,    17.30,    17.35,    16.06
       13.0,      18.02,    18.42,    18.35,    18.38,    16.93
       14.0,      19.03,    19.45,    19.43,    19.45,    17.79
       15.0,      20.09,    20.52,    20.59,    20.58,    18.66
       16.0,      21.21,    21.66,    21.83,    21.80,    19.57
       17.0,      22.42,    22.89,    23.15,    23.10,    20.54
       18.0,      23.69,    24.20,    24.51,    24.47,    21.57
       19.0,      24.99,    25.57,    25.88,    25.86,    22.65
       20.0,      26.27,    26.93,    27.19,    27.21,    23.74
       21.0,      27.47,    28.23,    28.39,    28.46,    24.81
       22.0,      28.53,    29.40,    29.41,    29.55,    25.78
       23.0,      29.41,    30.37,    30.23,    30.42,    26.61
       24.0,      30.06,    31.10,    30.83,    31.06,    27.26
       25.0,      30.48,    31.58,    31.20,    31.45,    27.71
       26.0,      30.69,    31.79,    31.38,    31.62,    27.95
       27.0,      30.70,    31.78,    31.40,    31.60,    28.00
       28.0,      30.56,    31.60,    31.30,    31.45,    27.90
       29.0,      30.33,    31.28,    31.14,    31.21,    27.67
       30.0,      30.04,    30.90,    30.94,    30.93,    27.38
       31.0,      29.73,    30.50,    30.74,    30.64,    27.05
       32.0,      29.44,    30.11,    30.55,    30.36,    26.73
       33.0,      29.16,    29.74,    30.36,    30.10,    26.43
       34.0,      28.90,    29.39,    30.19,    29.86,    26.14
       35.0,      28.65,    29.07,    30.02,    29.62,    25.88
       36.0,      28.41,    28.76,    29.85,    29.40,    25.62
       37.0,      28.17,    28.45,    29.68,    29.18,    25.38
       38.0,      27.95,    28.16,    29.52,    28.96,    25.14
       39.0,      27.72,    27.87,    29.36,    28.76,    24.91
       40.0,      27.51,    27.60,    29.20,    28.55,    24.68
       41.0,      27.30,    27.33,    29.05,    28.36,    24.46
       42.0,      27.09,    27.07,    28.90,    28.17,    24.24
       43.0,      26.90,    26.82,    28.75,    27.98,    24.03
       44.0,      26.70,    26.57,    28.60,    27.81,    23.83
       45.0,      26.51,    26.33,    28.46,    27.63,    23.63
       46.0,      26.33,    26.10,    28.32,    27.46,    23.43
       47.0,      26.15,    25.88,    28.18,    27.30,    23.24
       48.0,      25.97,    25.66,    28.04,    27.14,    23.06
       49.0,      25.80,    25.44,    27.91,    26.98,    22.88
       50.0,      25.63,    25.24,    27.77,    26.83,    22.70
       51.0,      25.47,    25.04,    27.64,    26.68,    22.53
       52.0,      25.31,    24.84,    27.52,    26.54,    22.36
       53.0,      25.16,    24.65,    27.39,    26.40,    22.19
       54.0,      25.00,    24.46,    27.27,    26.26,    22.03
       55.0,      24.86,    24.28,    27.15,    26.13,    21.87
       56.0,      24.71,    24.11,    27.03,    26.00,    21.72
       57.0,      24.57,    23.93,    26.91,    25.87,    21.56
       58.0,      24.43,    23.77,    26.79,    25.74,    21.42
       59.0,      24.29,    23.60,    26.68,    25.62,    21.27
       60.0,      24.16,    23.44,    26.57,    25.50,    21.13
       61.0,      24.03,    23.29,    26.46,    25.39,    20.99
       62.0,      23.90,    23.13,    26.35,    25.27,    20.85
       63.0,      23.78,    22.99,    26.24,    25.16,    20.72
       64.0,      23.65,    22.84,    26.13,    25.06,    20.58
       65.0,      23.53,    22.70,    26.03,    24.95,    20.45
       66.0,      23.42,    22.56,    25.93,    24.85,    20.33
       67.0,      23.30,    22.42,    25.83,    24.74,    20.20
       68.0,      23.19,    22.29,    25.73,    24.64,    20.08
       69.0,      23.07,    22.16,    25.63,    24.55,    19.96
       70.0,      22.96,    22.03,    25.53,    24.45,    19.84
       71.0,      22.86,    21.91,    25.44,    24.36,    19.72
       72.0,      22.75,    21.79,    25.35,    24.26,    19.61
       73.0,      22.65,    21.67,    25.25,    24.17,    19.50
       74.0,      22.55,    21.55,    25.16,    24.08,    19.38
       75.0,      22.44,    21.43,    25.07,    24.00,    19.27
       76.0,      22.35,    21.32,    24.98,    23.91,    19.17
       77.0,      22.25,    21.21,    24.90,    23.83,    19.06
       78.0,      22.15,    21.10,    24.81,    23.74,    18.96
       79.0,      22.06,    21.00,    24.73,    23.66,    18.85
       80.0,      21.97,    20.89,    24.64,    23.58,    18.75
       81.0,      21.88,    20.79,    24.56,    23.50,    18.65
       82.0,      21.79,    20.69,    24.48,    23.43,    18.55
       83.0,      21.70,    20.59,    24.40,    23.35,    18.45
       84.0,      21.61,    20.49,    24.32,    23.27,    18.36
       85.0,      21.52,    20.39,    24.24,    23.20,    18.26
       86.0,      21.44,    20.30,    24.16,    23.13,    18.17
       87.0,      21.36,    20.20,    24.09,    23.05,    18.08
       88.0,      21.27,    20.11,    24.01,    22.98,    17.99
       89.0,      21.19,    20.02,    23.94,    22.91,    17.90
       90.0,      21.11,    19.93,    23.87,    22.84,    17.81
       91.0,      21.03,    19.84,    23.79,    22.77,    17.72
       92.0,      20.95,    19.76,    23.72,    22.71,    17.63
       93.0,      20.88,    19.67,    23.65,    22.64,    17.54
       94.0,      20.80,    19.59,    23.58,    22.57,    17.46
       95.0,      20.72,    19.50,    23.51,    22.51,    17.37
       96.0,      20.65,    19.42,    23.44,    22.44,    17.29
       97.0,      20.58,    19.34,    23.38,    22.38,    17.21
       98.0,      20.50,    19.26,    23.31,    22.32,    17.13
       99.0,      20.43,    19.18,    23.24,    22.25,    17.04
      100.0,      20.36,    19.10,    23.18,    22.19,    16.96
      101.0,      20.29,    19.02,    23.11,    22.13,    16.88
      102.0,      20.22,    18.95,    23.05,    22.07,    16.81
      103.0,      20.15,    18.87,    22.99,    22.01,    16.73
      104.0,      20.08,    18.80,    22.93,    21.95,    16.65
      105.0,      20.01,    18.72,    22.86,    21.89,    16.57
      106.0,      19.95,    18.65,    22.80,    21.83,    16.50
      107.0,      19.88,    18.58,    22.74,    21.78,    16.42
      108.0,      19.81,    18.50,    22.68,    21.72,    16.35
      109.0,      19.75,    18.43,    22.62,    21.66,    16.27
      110.0,      19.68,    18.36,    22.57,    21.61,    16.20
      111.0,      19.62,    18.29,    22.51,    21.55,    16.13
      112.0,      19.56,    18.22,    22.45,    21.49,    16.06
      113.0,      19.49,    18.16,    22.39,    21.44,    15.98
      114.0,      19.43,    18.09,    22.34,    21.38,    15.91
      115.0,      19.37,    18.02,    22.28,    21.33,    15.84
      116.0,      19.31,    17.95,    22.23,    21.28,    15.77
      117.0,      19.25,    17.89,    22.17,    21.22,    15.70
      118.0,      19.19,    17.82,    22.12,    21.17,    15.63
      119.0,      19.13,    17.76,    22.06,    21.12,    15.57
      120.0,      19.07,    17.69,    22.01,    21.06,    15.50
      121.0,      19.01,    17.63,    21.96,    21.01,    15.43
      122.0,      18.95,    17.57,    21.91,    20.96,    15.36
      123.0,      18.89,    17.50,    21.86,    20.91,    15.30
      124.0,      18.83,    17.44,    21.80,    20.86,    15.23
      125.0,      18.78,    17.38,    21.75,    20.81,    15.16
      126.0,      18.72,    17.32,    21.70,    20.76,    15.10
      127.0,      18.66,    17.26,    21.65,    20.71,    15.03
      128.0,      18.61,    17.20,    21.60,    20.66,    14.97
      129.0,      18.55,    17.14,    21.55,    20.61,    14.91
      130.0,      18.49,    17.08,    21.51,    20.56,    14.84
      131.0,      18.44,    17.02,    21.46,    20.51,    14.78
      132.0,      18.38,    16.96,    21.41,    20.46,    14.72
      133.0,      18.33,    16.90,    21.36,    20.41,    14.65
      134.0,      18.28,    16.84,    21.32,    20.36,    14.59
      135.0,      18.22,    16.78,    21.27,    20.31,    14.53
      136.0,      18.17,    16.72,    21.22,    20.26,    14.47
      137.0,      18.12,    16.67,    21.18,    20.22,    14.41
      138.0,      18.06,    16.61,    21.13,    20.17,    14.35
      139.0,      18.01,    16.55,    21.09,    20.12,    14.29
      140.0,      17.96,    16.50,    21.04,    20.07,    14.23
      141.0,      17.91,    16.44,    21.00,    20.03,    14.17
      142.0,      17.86,    16.38,    20.95,    19.98,    14.11
      143.0,      17.80,    16.33,    20.91,    19.93,    14.05
      144.0,      17.75,    16.27,    20.86,    19.89,    13.99
      145.0,      17.70,    16.22,    20.82,    19.84,    13.93
      146.0,      17.65,    16.16,    20.78,    19.80,    13.87
      147.0,      17.60,    16.11,    20.73,    19.75,    13.81
      148.0,      17.55,    16.06,    20.69,    19.70,    13.76
      149.0,      17.50,    16.00,    20.65,    19.66,    13.70
      150.0,      17.45,    15.95,    20.61,    19.61,    13.64
      151.0,      17.40,    15.90,    20.56,    19.57,    13.59
      152.0,      17.35,    15.84,    20.52,    19.52,    13.53
      153.0,      17.31,    15.79,    20.48,    19.48,    13.47
      154.0,      17.26,    15.74,    20.44,    19.43,    13.42
      155.0,      17.21,    15.69,    20.40,    19.39,    13.36
      156.0,      17.16,    15.63,    20.36,    19.34,    13.31
      157.0,      17.11,    15.58,    20.32,    19.30,    13.25
      158.0,      17.07,    15.53,    20.28,    19.26,    13.20
      159.0,      17.02,    15.48,    20.24,    19.21,    13.14
      160.0,      16.97,    15.43,    20.20,    19.17,    13.09
      161.0,      16.92,    15.38,    20.16,    19.13,    13.04
      162.0,      16.88,    15.33,    20.12,    19.08,    12.98
      163.0,      16.83,    15.28,    20.08,    19.04,    12.93
      164.0,      16.78,    15.23,    20.04,    19.00,    12.88
      165.0,      16.74,    15.18,    20.00,    18.95,    12.82
      166.0,      16.69,    15.13,    19.97,    18.91,    12.77
      167.0,      16.65,    15.08,    19.93,    18.87,    12.72
      168.0,      16.60,    15.03,    19.89,    18.82,    12.67
      169.0,      16.56,    14.98,    19.85,    18.78,    12.61
      170.0,      16.51,    14.93,    19.81,    18.74,    12.56
      171.0,      16.47,    14.88,    19.78,    18.70,    12.51
      172.0,      16.42,    14.83,    19.74,    18.65,    12.46
      173.0,      16.38,    14.78,    19.70,    18.61,    12.41
      174.0,      16.33,    14.74,    19.67,    18.57,    12.36
      175.0,      16.29,    14.69,    19.63,    18.53,    12.31
      176.0,      16.24,    14.64,    19.59,    18.49,    12.26
      177.0,      16.20,    14.59,    19.56,    18.45,    12.21
      178.0,      16.16,    14.54,    19.52,    18.40,    12.16
      179.0,      16.11,    14.50,    19.48,    18.36,    12.11
      180.0,      16.07,    14.45,    19.45,    18.32,    12.06
      181.0,      16.03,    14.40,    19.41,    18.28,    12.01
      182.0,      15.98,    14.36,    19.38,    18.24,    11.96
      183.0,      15.94,    14.31,    19.34,    18.20,    11.91
      184.0,      15.90,    14.26,    19.31,    18.16,    11.86
      185.0,      15.85,    14.22,    19.27,    18.12,    11.82
      186.0,      15.81,    14.17,    19.24,    18.08,    11.77
      187.0,      15.77,    14.13,    19.20,    18.04,    11.72
      188.0,      15.73,    14.08,    19.17,    17.99,    11.67
      189.0,      15.69,    14.03,    19.13,    17.95,    11.62
      190.0,      15.64,    13.99,    19.10,    17.91,    11.58
      191.0,      15.60,    13.94,    19.06,    17.87,    11.53
      192.0,      15.56,    13.90,    19.03,    17.83,    11.48
      193.0,      15.52,    13.85,    19.00,    17.79,    11.44
      194.0,      15.48,    13.81,    18.96,    17.75,    11.39
      195.0,      15.44,    13.76,    18.93,    17.72,    11.34
      196.0,      15.40,    13.72,    18.89,    17.68,    11.30
      197.0,      15.36,    13.68,    18.86,    17.64,    11.25
      198.0,      15.32,    13.63,    18.83,    17.60,    11.21
      199.0,      15.27,    13.59,    18.79,    17.56,    11.16
      200.0,      15.23,    13.54,    18.76,    17.52,    11.12
      201.0,      15.19,    13.50,    18.73,    17.48,    11.07
      202.0,      15.15,    13.46,    18.69,    17.44,    11.03
      203.0,      15.11,    13.41,    18.66,    17.40,    10.98
      204.0,      15.07,    13.37,    18.63,    17.36,    10.94
      205.0,      15.03,    13.33,    18.60,    17.32,    10.89
      206.0,      15.00,    13.28,    18.56,    17.29,    10.85
      207.0,      14.96,    13.24,    18.53,    17.25,    10.80
      208.0,      14.92,    13.20,    18.50,    17.21,    10.76
      209.0,      14.88,    13.16,    18.47,    17.17,    10.72
      210.0,      14.84,    13.11,    18.44,    17.13,    10.67
      211.0,      14.80,    13.07,    18.40,    17.09,    10.63
      212.0,      14.76,    13.03,    18.37,    17.06,    10.59
      213.0,      14.72,    12.99,    18.34,    17.02,    10.54
      214.0,      14.68,    12.95,    18.31,    16.98,    10.50
      215.0,      14.65,    12.91,    18.28,    16.94,    10.46
      216.0,      14.61,    12.86,    18.24,    16.90,    10.42
      217.0,      14.57,    12.82,    18.21,    16.87,    10.37
      218.0,      14.53,    12.78,    18.18,    16.83,    10.33
      219.0,      14.49,    12.74,    18.15,    16.79,    10.29
      220.0,      14.46,    12.70,    18.12,    16.75,    10.25
      221.0,      14.42,    12.66,    18.09,    16.72,    10.21
      222.0,      14.38,    12.62,    18.06,    16.68,    10.17
      223.0,      14.34,    12.58,    18.03,    16.64,    10.12
      224.0,      14.31,    12.54,    18.00,    16.61,    10.08
      225.0,      14.27,    12.50,    17.97,    16.57,    10.04
      226.0,      14.23,    12.46,    17.94,    16.53,    10.00
      227.0,      14.19,    12.42,    17.90,    16.49,     9.96
      228.0,      14.16,    12.38,    17.87,    16.46,     9.92
      229.0,      14.12,    12.34,    17.84,    16.42,     9.88
      230.0,      14.08,    12.30,    17.81,    16.39,     9.84
      231.0,      14.05,    12.26,    17.78,    16.35,     9.80
      232.0,      14.01,    12.22,    17.75,    16.31,     9.76
      233.0,      13.98,    12.18,    17.72,    16.28,     9.72
      234.0,      13.94,    12.14,    17.69,    16.24,     9.68
      235.0,      13.90,    12.10,    17.66,    16.20,     9.64
      236.0,      13.87,    12.06,    17.63,    16.17,     9.60
      237.0,      13.83,    12.02,    17.60,    16.13,     9.57
      238.0,      13.80,    11.99,    17.57,    16.10,     9.53
      239.0,      13.76,    11.95,    17.55,    16.06,     9.49
      240.0,      13.72,    11.91,    17.52,    16.02,     9.45
      241.0,      13.69,    11.87,    17.49,    15.99,     9.41
      242.0,      13.65,    11.83,    17.46,    15.95,     9.37
      243.0,      13.62,    11.80,    17.43,    15.92,     9.34
      244.0,      13.58,    11.76,    17.40,    15.88,     9.30
      245.0,      13.55,    11.72,    17.37,    15.85,     9.26
      246.0,      13.51,    11.68,    17.34,    15.81,     9.22
      247.0,      13.48,    11.65,    17.31,    15.78,     9.19
      248.0,      13.45,    11.61,    17.28,    15.74,     9.15
      249.0,      13.41,    11.57,    17.25,    15.71,     9.11
      250.0,      13.38,    11.53,    17.22,    15.67,     9.08
      251.0,      13.34,    11.50,    17.20,    15.64,     9.04
      252.0,      13.31,    11.46,    17.17,    15.60,     9.00
      253.0,      13.27,    11.42,    17.14,    15.57,     8.97
      254.0,      13.24,    11.39,    17.11,    15.53,     8.93
      255.0,      13.21,    11.35,    17.08,    15.50,     8.89
      256.0,      13.17,    11.31,    17.05,    15.46,     8.86
      257.0,      13.14,    11.28,    17.03,    15.43,     8.82
      258.0,      13.10,    11.24,    17.00,    15.40,     8.79
      259.0,      13.07,    11.21,    16.97,    15.36,     8.75
      260.0,      13.04,    11.17,    16.94,    15.33,     8.71
      261.0,      13.00,    11.13,    16.91,    15.29,     8.68
      262.0,      12.97,    11.10,    16.88,    15.26,     8.64
      263.0,      12.94,    11.06,    16.86,    15.23,     8.61
      264.0,      12.91,    11.03,    16.83,    15.19,     8.57
      265.0,      12.87,    10.99,    16.80,    15.16,     8.54
      266.0,      12.84,    10.96,    16.77,    15.12,     8.51
      267.0,      12.81,    10.92,    16.75,    15.09,     8.47
      268.0,      12.77,    10.89,    16.72,    15.06,     8.44
      269.0,      12.74,    10.85,    16.69,    15.02,     8.40
      270.0,      12.71,    10.82,    16.66,    14.99,     8.37
      271.0,      12.68,    10.78,    16.63,    14.96,     8.34
      272.0,      12.65,    10.75,    16.61,    14.92,     8.30
      273.0,      12.61,    10.71,    16.58,    14.89,     8.27
      274.0,      12.58,    10.68,    16.55,    14.86,     8.23
      275.0,      12.55,    10.65,    16.53,    14.83,     8.20
      276.0,      12.52,    10.61,    16.50,    14.79,     8.17
      277.0,      12.49,    10.58,    16.47,    14.76,     8.14
      278.0,      12.45,    10.54,    16.44,    14.73,     8.10
      279.0,      12.42,    10.51,    16.42,    14.69,     8.07
      280.0,      12.39,    10.48,    16.39,    14.66,     8.04
      281.0,      12.36,    10.44,    16.36,    14.63,     8.00
      282.0,      12.33,    10.41,    16.34,    14.60,     7.97
      283.0,      12.30,    10.38,    16.31,    14.56,     7.94
      284.0,      12.27,    10.34,    16.28,    14.53,     7.91
      285.0,      12.24,    10.31,    16.26,    14.50,     7.88
      286.0,      12.20,    10.28,    16.23,    14.47,     7.84
      287.0,      12.17,    10.24,    16.20,    14.43,     7.81
      288.0,      12.14,    10.21,    16.18,    14.40,     7.78
      289.0,      12.11,    10.18,    16.15,    14.37,     7.75
      290.0,      12.08,    10.15,    16.12,    14.34,     7.72
      291.0,      12.05,    10.11,    16.10,    14.31,     7.69
      292.0,      12.02,    10.08,    16.07,    14.28,     7.66
      293.0,      11.99,    10.05,    16.04,    14.24,     7.63
      294.0,      11.96,    10.02,    16.02,    14.21,     7.59
      295.0,      11.93,     9.98,    15.99,    14.18,     7.56
      296.0,      11.90,     9.95,    15.97,    14.15,     7.53
      297.0,      11.87,     9.92,    15.94,    14.12,     7.50
      298.0,      11.84,     9.89,    15.91,    14.09,     7.47
      299.0,      11.81,     9.86,    15.89,    14.06,     7.44
      300.0,      11.78,     9.83,    15.86,    14.02,     7.41
      301.0,      11.75,     9.79,    15.83,    13.99,     7.38
      302.0,      11.72,     9.76,    15.81,    13.96,     7.35
      303.0,      11.69,     9.73,    15.78,    13.93,     7.32
      304.0,      11.66,     9.70,    15.76,    13.90,     7.29
      305.0,      11.63,     9.67,    15.73,    13.87,     7.26
      306.0,      11.60,     9.64,    15.71,    13.84,     7.23
      307.0,      11.58,     9.61,    15.68,    13.81,     7.21
      308.0,      11.55,     9.58,    15.65,    13.78,     7.18
      309.0,      11.52,     9.55,    15.63,    13.75,     7.15
      310.0,      11.49,     9.52,    15.60,    13.72,     7.12
