Radius (km), Mean (m/s), NE (m/s), SE (m/s), SW (m/s), NW (m/s)
        0.0,       0.00,     0.00,     0.00,     0.00,     0.00
        1.0,       3.63,     3.63,     3.63,     3.63,     3.63
        2.0,       6.16,     6.15,     6.16,     6.15,     6.16
        3.0,       8.41,     8.40,     8.42,     8.39,     8.44
        4.0,      10.57,    10.55,    10.58,    10.51,    10.66
        5.0,      12.76,    12.70,    12.75,    12.63,    12.94
        6.0,      15.04,    14.94,    15.00,    14.84,    15.38
        7.0,      17.45,    17.30,    17.34,    17.19,    17.98
        8.0,      19.98,    19.77,    19.78,    19.67,    20.71
        9.0,      22.56,    22.30,    22.24,    22.23,    23.49
       10.0,      25.10,    24.80,    24.65,    24.77,    26.18
       11.0,      27.47,    27.15,    26.90,    27.19,    28.66
       12.0,      29.57,    29.25,    28.91,    29.35,    30.78
       13.0,      31.30,    31.00,    30.59,    31.14,    32.45
       14.0,      32.59,    32.34,    31.89,    32.51,    33.62
       15.0,      33.43,    33.25,    32.81,    33.40,    34.27
       16.0,      33.85,    33.74,    33.36,    33.85,    34.45
       17.0,      33.89,    33.86,    33.60,    33.89,    34.23
       18.0,      33.65,    33.69,    33.59,    33.61,    33.72
       19.0,      33.22,    33.33,    33.42,    33.11,    33.02
       20.0,      32.68,    32.85,    33.16,    32.49,    32.23
       21.0,      32.11,    32.33,    32.87,    31.82,    31.42
       22.0,      31.54,    31.81,    32.57,    31.15,    30.64
       23.0,      31.01,    31.31,    32.29,    30.53,    29.90
       24.0,      30.50,    30.84,    32.02,    29.94,    29.20
       25.0,      30.02,    30.39,    31.76,    29.38,    28.53
       26.0,      29.55,    29.95,    31.50,    28.85,    27.89
       27.0,      29.09,    29.52,    31.25,    28.34,    27.27
       28.0,      28.65,    29.10,    31.00,    27.84,    26.67
       29.0,      28.23,    28.69,    30.75,    27.36,    26.10
       30.0,      27.81,    28.29,    30.51,    26.90,    25.55
       31.0,      27.41,    27.90,    30.27,    26.46,    25.02
       32.0,      27.02,    27.51,    30.04,    26.03,    24.51
       33.0,      26.65,    27.14,    29.81,    25.62,    24.02
       34.0,      26.28,    26.78,    29.58,    25.23,    23.55
       35.0,      25.93,    26.42,    29.36,    24.84,    23.10
       36.0,      25.59,    26.08,    29.13,    24.47,    22.66
       37.0,      25.25,    25.74,    28.92,    24.12,    22.24
       38.0,      24.93,    25.41,    28.70,    23.77,    21.84
       39.0,      24.62,    25.08,    28.49,    23.44,    21.45
       40.0,      24.31,    24.77,    28.28,    23.12,    21.08
       41.0,      24.02,    24.46,    28.08,    22.82,    20.72
       42.0,      23.73,    24.16,    27.88,    22.52,    20.38
       43.0,      23.45,    23.86,    27.68,    22.23,    20.04
       44.0,      23.18,    23.58,    27.48,    21.95,    19.72
       45.0,      22.92,    23.30,    27.29,    21.69,    19.42
       46.0,      22.67,    23.02,    27.10,    21.43,    19.12
       47.0,      22.42,    22.76,    26.91,    21.18,    18.83
       48.0,      22.18,    22.49,    26.73,    20.94,    18.56
       49.0,      21.95,    22.24,    26.54,    20.71,    18.30
       50.0,      21.72,    21.99,    26.36,    20.48,    18.04
       51.0,      21.50,    21.75,    26.19,    20.26,    17.80
       52.0,      21.28,    21.51,    26.01,    20.05,    17.56
       53.0,      21.07,    21.27,    25.84,    19.85,    17.33
       54.0,      20.87,    21.05,    25.67,    19.65,    17.11
       55.0,      20.67,    20.82,    25.50,    19.46,    16.90
       56.0,      20.48,    20.61,    25.34,    19.28,    16.70
       57.0,      20.29,    20.40,    25.18,    19.10,    16.51
       58.0,      20.11,    20.19,    25.02,    18.93,    16.32
       59.0,      19.94,    19.99,    24.86,    18.76,    16.14
       60.0,      19.76,    19.79,    24.70,    18.60,    15.96
       61.0,      19.60,    19.59,    24.55,    18.44,    15.79
       62.0,      19.43,    19.40,    24.40,    18.29,    15.63
       63.0,      19.27,    19.22,    24.25,    18.14,    15.47
       64.0,      19.12,    19.04,    24.10,    18.00,    15.32
       65.0,      18.97,    18.86,    23.96,    17.86,    15.18
       66.0,      18.82,    18.69,    23.82,    17.73,    15.04
       67.0,      18.67,    18.52,    23.67,    17.60,    14.90
       68.0,      18.53,    18.36,    23.53,    17.47,    14.77
       69.0,      18.40,    18.19,    23.40,    17.35,    14.65
       70.0,      18.26,    18.04,    23.26,    17.23,    14.53
       71.0,      18.13,    17.88,    23.13,    17.12,    14.41
       72.0,      18.01,    17.73,    23.00,    17.00,    14.30
       73.0,      17.88,    17.58,    22.87,    16.90,    14.19
       74.0,      17.76,    17.44,    22.74,    16.79,    14.08
       75.0,      17.64,    17.30,    22.61,    16.69,    13.98
       76.0,      17.53,    17.16,    22.49,    16.59,    13.88
       77.0,      17.42,    17.02,    22.37,    16.49,    13.79
       78.0,      17.31,    16.89,    22.24,    16.39,    13.70
       79.0,      17.20,    16.76,    22.12,    16.30,    13.61
       80.0,      17.09,    16.63,    22.01,    16.21,    13.52
       81.0,      16.99,    16.51,    21.89,    16.12,    13.44
       82.0,      16.89,    16.39,    21.77,    16.04,    13.36
       83.0,      16.79,    16.27,    21.66,    15.96,    13.28
       84.0,      16.70,    16.15,    21.55,    15.87,    13.21
       85.0,      16.60,    16.04,    21.44,    15.80,    13.14
       86.0,      16.51,    15.93,    21.33,    15.72,    13.07
       87.0,      16.42,    15.82,    21.22,    15.64,    13.00
       88.0,      16.33,    15.71,    21.11,    15.57,    12.93
       89.0,      16.25,    15.60,    21.01,    15.50,    12.87
       90.0,      16.16,    15.50,    20.91,    15.43,    12.81
       91.0,      16.08,    15.40,    20.80,    15.36,    12.75
       92.0,      16.00,    15.30,    20.70,    15.29,    12.69
       93.0,      15.92,    15.21,    20.60,    15.23,    12.64
       94.0,      15.84,    15.11,    20.50,    15.16,    12.58
       95.0,      15.76,    15.02,    20.41,    15.10,    12.53
       96.0,      15.69,    14.93,    20.31,    15.04,    12.48
       97.0,      15.62,    14.84,    20.22,    14.98,    12.43
       98.0,      15.54,    14.75,    20.12,    14.92,    12.38
       99.0,      15.47,    14.67,    20.03,    14.86,    12.34
      100.0,      15.40,    14.58,    19.94,    14.80,    12.29
      101.0,      15.34,    14.50,    19.85,    14.75,    12.25
      102.0,      15.27,    14.42,    19.76,    14.69,    12.20
      103.0,      15.20,    14.34,    19.67,    14.64,    12.16
      104.0,      15.14,    14.26,    19.58,    14.58,    12.12
      105.0,      15.08,    14.19,    19.50,    14.53,    12.08
      106.0,      15.01,    14.11,    19.41,    14.48,    12.04
      107.0,      14.95,    14.04,    19.33,    14.43,    12.01
      108.0,      14.89,    13.97,    19.25,    14.38,    11.97
      109.0,      14.83,    13.90,    19.16,    14.33,    11.94
      110.0,      14.77,    13.83,    19.08,    14.29,    11.90
      111.0,      14.72,    13.76,    19.00,    14.24,    11.87
      112.0,      14.66,    13.70,    18.92,    14.19,    11.84
      113.0,      14.61,    13.63,    18.84,    14.15,    11.80
      114.0,      14.55,    13.57,    18.77,    14.10,    11.77
      115.0,      14.50,    13.50,    18.69,    14.06,    11.74
      116.0,      14.45,    13.44,    18.62,    14.01,    11.71
      117.0,      14.39,    13.38,    18.54,    13.97,    11.69
      118.0,      14.34,    13.32,    18.47,    13.93,    11.66
      119.0,      14.29,    13.26,    18.39,    13.89,    11.63
      120.0,      14.24,    13.20,    18.32,    13.84,    11.60
      121.0,      14.19,    13.15,    18.25,    13.80,    11.58
      122.0,      14.15,    13.09,    18.18,    13.76,    11.55
      123.0,      14.10,    13.04,    18.11,    13.72,    11.53
      124.0,      14.05,    12.98,    18.04,    13.68,    11.50
      125.0,      14.01,    12.93,    17.97,    13.64,    11.48
      126.0,      13.96,    12.88,    17.90,    13.61,    11.45
      127.0,      13.92,    12.83,    17.84,    13.57,    11.43
      128.0,      13.87,    12.78,    17.77,    13.53,    11.41
      129.0,      13.83,    12.73,    17.71,    13.49,    11.38
      130.0,      13.79,    12.68,    17.64,    13.46,    11.36
      131.0,      13.74,    12.63,    17.58,    13.42,    11.34
      132.0,      13.70,    12.59,    17.51,    13.38,    11.32
      133.0,      13.66,    12.54,    17.45,    13.35,    11.30
      134.0,      13.62,    12.49,    17.39,    13.31,    11.28
      135.0,      13.58,    12.45,    17.33,    13.28,    11.26
      136.0,      13.54,    12.41,    17.27,    13.24,    11.24
      137.0,      13.50,    12.36,    17.21,    13.21,    11.22
      138.0,      13.46,    12.32,    17.15,    13.17,    11.20
      139.0,      13.42,    12.28,    17.09,    13.14,    11.18
      140.0,      13.38,    12.24,    17.03,    13.10,    11.16
      141.0,      13.35,    12.20,    16.97,    13.07,    11.15
      142.0,      13.31,    12.16,    16.91,    13.04,    11.13
      143.0,      13.27,    12.12,    16.86,    13.00,    11.11
      144.0,      13.24,    12.08,    16.80,    12.97,    11.09
      145.0,      13.20,    12.04,    16.74,    12.94,    11.07
      146.0,      13.16,    12.00,    16.69,    12.91,    11.06
      147.0,      13.13,    11.96,    16.63,    12.87,    11.04
      148.0,      13.09,    11.93,    16.58,    12.84,    11.02
      149.0,      13.06,    11.89,    16.53,    12.81,    11.01
      150.0,      13.02,    11.85,    16.47,    12.78,    10.99
      151.0,      12.99,    11.82,    16.42,    12.75,    10.98
      152.0,      12.96,    11.78,    16.37,    12.72,    10.96
      153.0,      12.92,    11.75,    16.32,    12.69,    10.94
      154.0,      12.89,    11.71,    16.27,    12.66,    10.93
      155.0,      12.86,    11.68,    16.22,    12.63,    10.91
      156.0,      12.83,    11.65,    16.17,    12.60,    10.90
      157.0,      12.79,    11.62,    16.12,    12.57,    10.88
      158.0,      12.76,    11.58,    16.07,    12.54,    10.87
      159.0,      12.73,    11.55,    16.02,    12.51,    10.85
      160.0,      12.70,    11.52,    15.97,    12.48,    10.84
      161.0,      12.67,    11.49,    15.92,    12.45,    10.82
      162.0,      12.64,    11.46,    15.87,    12.42,    10.81
      163.0,      12.61,    11.43,    15.83,    12.39,    10.80
      164.0,      12.58,    11.40,    15.78,    12.36,    10.78
      165.0,      12.55,    11.37,    15.73,    12.33,    10.77
      166.0,      12.52,    11.34,    15.69,    12.30,    10.75
      167.0,      12.49,    11.31,    15.64,    12.27,    10.74
      168.0,      12.46,    11.28,    15.60,    12.24,    10.73
      169.0,      12.43,    11.25,    15.55,    12.21,    10.71
      170.0,      12.40,    11.22,    15.51,    12.19,    10.70
      171.0,      12.38,    11.20,    15.46,    12.16,    10.68
      172.0,      12.35,    11.17,    15.42,    12.13,    10.67
      173.0,      12.32,    11.14,    15.38,    12.10,    10.66
      174.0,      12.29,    11.11,    15.33,    12.07,    10.64
      175.0,      12.26,    11.09,    15.29,    12.05,    10.63
      176.0,      12.24,    11.06,    15.25,    12.02,    10.62
      177.0,      12.21,    11.04,    15.21,    11.99,    10.61
      178.0,      12.18,    11.01,    15.16,    11.96,    10.59
      179.0,      12.16,    10.98,    15.12,    11.94,    10.58
      180.0,      12.13,    10.96,    15.08,    11.91,    10.57
      181.0,      12.10,    10.93,    15.04,    11.88,    10.55
      182.0,      12.08,    10.91,    15.00,    11.86,    10.54
      183.0,      12.05,    10.88,    14.96,    11.83,    10.53
      184.0,      12.02,    10.86,    14.92,    11.80,    10.52
      185.0,      12.00,    10.83,    14.88,    11.77,    10.50
      186.0,      11.97,    10.81,    14.84,    11.75,    10.49
      187.0,      11.95,    10.79,    14.80,    11.72,    10.48
      188.0,      11.92,    10.76,    14.76,    11.69,    10.47
      189.0,      11.90,    10.74,    14.73,    11.67,    10.46
      190.0,      11.87,    10.72,    14.69,    11.64,    10.44
      191.0,      11.85,    10.69,    14.65,    11.62,    10.43
      192.0,      11.82,    10.67,    14.61,    11.59,    10.42
      193.0,      11.80,    10.65,    14.57,    11.56,    10.41
      194.0,      11.77,    10.63,    14.54,    11.54,    10.39
      195.0,      11.75,    10.60,    14.50,    11.51,    10.38
      196.0,      11.73,    10.58,    14.46,    11.49,    10.37
      197.0,      11.70,    10.56,    14.43,    11.46,    10.36
      198.0,      11.68,    10.54,    14.39,    11.43,    10.35
      199.0,      11.65,    10.52,    14.36,    11.41,    10.33
      200.0,      11.63,    10.49,    14.32,    11.38,    10.32
      201.0,      11.61,    10.47,    14.28,    11.36,    10.31
      202.0,      11.58,    10.45,    14.25,    11.33,    10.30
      203.0,      11.56,    10.43,    14.21,    11.31,    10.29
      204.0,      11.54,    10.41,    14.18,    11.28,    10.28
      205.0,      11.51,    10.39,    14.15,    11.26,    10.26
      206.0,      11.49,    10.37,    14.11,    11.23,    10.25
      207.0,      11.47,    10.35,    14.08,    11.21,    10.24
      208.0,      11.45,    10.33,    14.04,    11.18,    10.23
      209.0,      11.42,    10.31,    14.01,    11.16,    10.22
      210.0,      11.40,    10.29,    13.98,    11.13,    10.21
      211.0,      11.38,    10.27,    13.94,    11.11,    10.20
      212.0,      11.36,    10.25,    13.91,    11.08,    10.18
      213.0,      11.33,    10.23,    13.88,    11.06,    10.17
      214.0,      11.31,    10.21,    13.84,    11.03,    10.16
      215.0,      11.29,    10.19,    13.81,    11.01,    10.15
      216.0,      11.27,    10.17,    13.78,    10.98,    10.14
      217.0,      11.25,    10.15,    13.75,    10.96,    10.13
      218.0,      11.23,    10.13,    13.72,    10.94,    10.12
      219.0,      11.20,    10.11,    13.68,    10.91,    10.10
      220.0,      11.18,    10.09,    13.65,    10.89,    10.09
      221.0,      11.16,    10.08,    13.62,    10.86,    10.08
      222.0,      11.14,    10.06,    13.59,    10.84,    10.07
      223.0,      11.12,    10.04,    13.56,    10.82,    10.06
      224.0,      11.10,    10.02,    13.53,    10.79,    10.05
      225.0,      11.08,    10.00,    13.50,    10.77,    10.04
      226.0,      11.06,     9.98,    13.47,    10.74,    10.03
      227.0,      11.03,     9.97,    13.44,    10.72,    10.02
      228.0,      11.01,     9.95,    13.41,    10.70,    10.00
      229.0,      10.99,     9.93,    13.38,    10.67,     9.99
      230.0,      10.97,     9.91,    13.35,    10.65,     9.98
      231.0,      10.95,     9.89,    13.32,    10.63,     9.97
      232.0,      10.93,     9.88,    13.29,    10.60,     9.96
      233.0,      10.91,     9.86,    13.26,    10.58,     9.95
      234.0,      10.89,     9.84,    13.23,    10.56,     9.94
      235.0,      10.87,     9.82,    13.20,    10.53,     9.93
      236.0,      10.85,     9.81,    13.17,    10.51,     9.92
      237.0,      10.83,     9.79,    13.14,    10.49,     9.91
      238.0,      10.81,     9.77,    13.11,    10.46,     9.90
      239.0,      10.79,     9.75,    13.08,    10.44,     9.88
      240.0,      10.77,     9.74,    13.05,    10.42,     9.87
      241.0,      10.75,     9.72,    13.03,    10.39,     9.86
      242.0,      10.73,     9.70,    13.00,    10.37,     9.85
      243.0,      10.71,     9.69,    12.97,    10.35,     9.84
      244.0,      10.69,     9.67,    12.94,    10.32,     9.83
      245.0,      10.67,     9.65,    12.91,    10.30,     9.82
      246.0,      10.65,     9.63,    12.89,    10.28,     9.81
      247.0,      10.63,     9.62,    12.86,    10.26,     9.80
      248.0,      10.61,     9.60,    12.83,    10.23,     9.79
      249.0,      10.59,     9.59,    12.80,    10.21,     9.78
      250.0,      10.58,     9.57,    12.78,    10.19,     9.77
      251.0,      10.56,     9.55,    12.75,    10.17,     9.76
      252.0,      10.54,     9.54,    12.72,    10.14,     9.74
      253.0,      10.52,     9.52,    12.70,    10.12,     9.73
      254.0,      10.50,     9.50,    12.67,    10.10,     9.72
      255.0,      10.48,     9.49,    12.64,    10.08,     9.71
      256.0,      10.46,     9.47,    12.62,    10.05,     9.70
      257.0,      10.44,     9.45,    12.59,    10.03,     9.69
      258.0,      10.42,     9.44,    12.56,    10.01,     9.68
      259.0,      10.40,     9.42,    12.54,     9.99,     9.67
      260.0,      10.39,     9.41,    12.51,     9.97,     9.66
      261.0,      10.37,     9.39,    12.49,     9.94,     9.65
      262.0,      10.35,     9.38,    12.46,     9.92,     9.64
      263.0,      10.33,     9.36,    12.43,     9.90,     9.63
      264.0,      10.31,     9.34,    12.41,     9.88,     9.62
      265.0,      10.29,     9.33,    12.38,     9.86,     9.61
      266.0,      10.28,     9.31,    12.36,     9.84,     9.60
      267.0,      10.26,     9.30,    12.33,     9.81,     9.59
      268.0,      10.24,     9.28,    12.31,     9.79,     9.58
      269.0,      10.22,     9.27,    12.28,     9.77,     9.57
      270.0,      10.20,     9.25,    12.26,     9.75,     9.56
      271.0,      10.18,     9.23,    12.23,     9.73,     9.54
      272.0,      10.17,     9.22,    12.21,     9.71,     9.53
      273.0,      10.15,     9.20,    12.18,     9.69,     9.52
      274.0,      10.13,     9.19,    12.16,     9.66,     9.51
      275.0,      10.11,     9.17,    12.13,     9.64,     9.50
      276.0,      10.10,     9.16,    12.11,     9.62,     9.49
      277.0,      10.08,     9.14,    12.08,     9.60,     9.48
      278.0,      10.06,     9.13,    12.06,     9.58,     9.47
      279.0,      10.04,     9.11,    12.04,     9.56,     9.46
      280.0,      10.02,     9.10,    12.01,     9.54,     9.45
      281.0,      10.01,     9.08,    11.99,     9.52,     9.44
      282.0,       9.99,     9.07,    11.96,     9.50,     9.43
      283.0,       9.97,     9.05,    11.94,     9.47,     9.42
      284.0,       9.95,     9.04,    11.92,     9.45,     9.41
      285.0,       9.94,     9.02,    11.89,     9.43,     9.40
      286.0,       9.92,     9.01,    11.87,     9.41,     9.39
      287.0,       9.90,     8.99,    11.84,     9.39,     9.38
      288.0,       9.89,     8.98,    11.82,     9.37,     9.37
      289.0,       9.87,     8.96,    11.80,     9.35,     9.36
      290.0,       9.85,     8.95,    11.77,     9.33,     9.35
      291.0,       9.83,     8.94,    11.75,     9.31,     9.34
      292.0,       9.82,     8.92,    11.73,     9.29,     9.33
      293.0,       9.80,     8.91,    11.71,     9.27,     9.32
      294.0,       9.78,     8.89,    11.68,     9.25,     9.31
      295.0,       9.77,     8.88,    11.66,     9.23,     9.30
      296.0,       9.75,     8.86,    11.64,     9.21,     9.29
      297.0,       9.73,     8.85,    11.61,     9.19,     9.28
      298.0,       9.71,     8.83,    11.59,     9.17,     9.27
      299.0,       9.70,     8.82,    11.57,     9.15,     9.26
      300.0,       9.68,     8.81,    11.55,     9.13,     9.25
      301.0,       9.66,     8.79,    11.52,     9.11,     9.24
      302.0,       9.65,     8.78,    11.50,     9.09,     9.23
      303.0,       9.63,     8.76,    11.48,     9.07,     9.22
      304.0,       9.61,     8.75,    11.46,     9.05,     9.21
      305.0,       9.60,     8.73,    11.43,     9.03,     9.20
      306.0,       9.58,     8.72,    11.41,     9.01,     9.19
      307.0,       9.57,     8.71,    11.39,     8.99,     9.18
      308.0,       9.55,     8.69,    11.37,     8.97,     9.17
      309.0,       9.53,     8.68,    11.35,     8.95,     9.16
      310.0,       9.52,     8.66,    11.32,     8.93,     9.15
