Radius (km), Mean (m/s), NE (m/s), SE (m/s), SW (m/s), NW (m/s)
        0.0,       0.00,     0.00,     0.00,     0.00,     0.00
        1.0,       3.38,     3.29,     3.26,     3.37,     3.59
        2.0,       5.83,     5.78,     5.76,     5.84,     5.94
        3.0,       8.02,     8.04,     8.04,     8.04,     7.96
        4.0,      10.07,    10.17,    10.20,    10.10,     9.81
        5.0,      12.05,    12.24,    12.32,    12.08,    11.57
        6.0,      14.04,    14.34,    14.49,    14.05,    13.29
        7.0,      16.10,    16.54,    16.77,    16.06,    15.04
        8.0,      18.29,    18.90,    19.20,    18.19,    16.87
        9.0,      20.60,    21.43,    21.77,    20.43,    18.79
       10.0,      23.02,    24.11,    24.43,    22.77,    20.77
       11.0,      25.47,    26.83,    27.10,    25.16,    22.78
       12.0,      27.85,    29.50,    29.67,    27.50,    24.72
       13.0,      30.06,    31.97,    32.02,    29.70,    26.54
       14.0,      32.00,    34.13,    34.06,    31.66,    28.14
       15.0,      33.59,    35.87,    35.72,    33.31,    29.46
       16.0,      34.78,    37.13,    36.95,    34.58,    30.46
       17.0,      35.57,    37.91,    37.76,    35.47,    31.15
       18.0,      35.99,    38.23,    38.19,    36.00,    31.53
       19.0,      36.09,    38.17,    38.31,    36.21,    31.66
       20.0,      35.95,    37.83,    38.21,    36.18,    31.59
       21.0,      35.66,    37.29,    37.98,    35.99,    31.39
       22.0,      35.29,    36.67,    37.67,    35.70,    31.13
       23.0,      34.90,    36.02,    37.35,    35.38,    30.84
       24.0,      34.51,    35.40,    37.04,    35.07,    30.56
       25.0,      34.15,    34.80,    36.74,    34.78,    30.28
       26.0,      33.80,    34.24,    36.45,    34.50,    30.03
       27.0,      33.47,    33.70,    36.17,    34.22,    29.77
       28.0,      33.14,    33.18,    35.89,    33.96,    29.52
       29.0,      32.81,    32.67,    35.62,    33.69,    29.28
       30.0,      32.49,    32.17,    35.34,    33.43,    29.03
       31.0,      32.18,    31.69,    35.08,    33.17,    28.79
       32.0,      31.87,    31.22,    34.81,    32.91,    28.55
       33.0,      31.57,    30.77,    34.55,    32.66,    28.31
       34.0,      31.28,    30.32,    34.29,    32.41,    28.08
       35.0,      30.98,    29.89,    34.04,    32.16,    27.85
       36.0,      30.70,    29.48,    33.79,    31.91,    27.62
       37.0,      30.42,    29.07,    33.54,    31.67,    27.39
       38.0,      30.14,    28.68,    33.30,    31.43,    27.17
       39.0,      29.87,    28.29,    33.05,    31.19,    26.94
       40.0,      29.60,    27.92,    32.82,    30.96,    26.72
       41.0,      29.34,    27.56,    32.58,    30.72,    26.50
       42.0,      29.08,    27.21,    32.35,    30.50,    26.29
       43.0,      28.83,    26.86,    32.12,    30.27,    26.08
       44.0,      28.58,    26.53,    31.89,    30.04,    25.86
       45.0,      28.34,    26.21,    31.67,    29.82,    25.66
       46.0,      28.10,    25.89,    31.45,    29.60,    25.45
       47.0,      27.86,    25.58,    31.23,    29.38,    25.24
       48.0,      27.63,    25.29,    31.01,    29.17,    25.04
       49.0,      27.40,    25.00,    30.80,    28.96,    24.84
       50.0,      27.17,    24.71,    30.59,    28.75,    24.64
       51.0,      26.95,    24.44,    30.38,    28.54,    24.45
       52.0,      26.73,    24.17,    30.18,    28.33,    24.25
       53.0,      26.52,    23.91,    29.98,    28.13,    24.06
       54.0,      26.31,    23.66,    29.78,    27.93,    23.87
       55.0,      26.10,    23.41,    29.58,    27.73,    23.68
       56.0,      25.90,    23.17,    29.38,    27.53,    23.49
       57.0,      25.69,    22.94,    29.19,    27.34,    23.31
       58.0,      25.50,    22.71,    29.00,    27.14,    23.13
       59.0,      25.30,    22.49,    28.81,    26.95,    22.95
       60.0,      25.11,    22.28,    28.63,    26.77,    22.77
       61.0,      24.92,    22.07,    28.44,    26.58,    22.59
       62.0,      24.73,    21.86,    28.26,    26.39,    22.42
       63.0,      24.55,    21.67,    28.09,    26.21,    22.24
       64.0,      24.37,    21.47,    27.91,    26.03,    22.07
       65.0,      24.19,    21.28,    27.73,    25.85,    21.90
       66.0,      24.02,    21.10,    27.56,    25.68,    21.73
       67.0,      23.85,    20.92,    27.39,    25.50,    21.57
       68.0,      23.68,    20.75,    27.22,    25.33,    21.40
       69.0,      23.51,    20.58,    27.06,    25.16,    21.24
       70.0,      23.34,    20.41,    26.89,    24.99,    21.08
       71.0,      23.18,    20.25,    26.73,    24.82,    20.92
       72.0,      23.02,    20.09,    26.57,    24.66,    20.76
       73.0,      22.86,    19.94,    26.41,    24.49,    20.61
       74.0,      22.71,    19.79,    26.26,    24.33,    20.45
       75.0,      22.55,    19.64,    26.10,    24.17,    20.30
       76.0,      22.40,    19.50,    25.95,    24.01,    20.15
       77.0,      22.25,    19.36,    25.80,    23.85,    20.00
       78.0,      22.11,    19.22,    25.65,    23.70,    19.85
       79.0,      21.96,    19.09,    25.51,    23.54,    19.70
       80.0,      21.82,    18.96,    25.36,    23.39,    19.56
       81.0,      21.68,    18.83,    25.22,    23.24,    19.41
       82.0,      21.54,    18.71,    25.07,    23.09,    19.27
       83.0,      21.40,    18.59,    24.93,    22.95,    19.13
       84.0,      21.27,    18.47,    24.80,    22.80,    18.99
       85.0,      21.13,    18.36,    24.66,    22.66,    18.85
       86.0,      21.00,    18.25,    24.52,    22.51,    18.72
       87.0,      20.87,    18.14,    24.39,    22.37,    18.58
       88.0,      20.74,    18.03,    24.26,    22.23,    18.45
       89.0,      20.62,    17.92,    24.13,    22.09,    18.32
       90.0,      20.49,    17.82,    24.00,    21.96,    18.18
       91.0,      20.37,    17.72,    23.87,    21.82,    18.05
       92.0,      20.25,    17.62,    23.75,    21.69,    17.93
       93.0,      20.13,    17.53,    23.62,    21.55,    17.80
       94.0,      20.01,    17.43,    23.50,    21.42,    17.67
       95.0,      19.89,    17.34,    23.38,    21.29,    17.55
       96.0,      19.77,    17.25,    23.26,    21.16,    17.43
       97.0,      19.66,    17.16,    23.14,    21.04,    17.30
       98.0,      19.55,    17.08,    23.02,    20.91,    17.18
       99.0,      19.44,    16.99,    22.90,    20.78,    17.06
      100.0,      19.33,    16.91,    22.79,    20.66,    16.94
      101.0,      19.22,    16.83,    22.68,    20.54,    16.83
      102.0,      19.11,    16.75,    22.56,    20.42,    16.71
      103.0,      19.01,    16.67,    22.45,    20.30,    16.60
      104.0,      18.90,    16.60,    22.34,    20.18,    16.48
      105.0,      18.80,    16.52,    22.24,    20.06,    16.37
      106.0,      18.70,    16.45,    22.13,    19.95,    16.26
      107.0,      18.60,    16.38,    22.02,    19.83,    16.15
      108.0,      18.50,    16.31,    21.92,    19.72,    16.04
      109.0,      18.40,    16.24,    21.81,    19.60,    15.93
      110.0,      18.30,    16.17,    21.71,    19.49,    15.83
      111.0,      18.20,    16.11,    21.61,    19.38,    15.72
      112.0,      18.11,    16.04,    21.51,    19.27,    15.62
      113.0,      18.02,    15.98,    21.41,    19.16,    15.51
      114.0,      17.92,    15.91,    21.31,    19.06,    15.41
      115.0,      17.83,    15.85,    21.22,    18.95,    15.31
      116.0,      17.74,    15.79,    21.12,    18.85,    15.21
      117.0,      17.65,    15.73,    21.03,    18.74,    15.11
      118.0,      17.56,    15.67,    20.93,    18.64,    15.01
      119.0,      17.48,    15.62,    20.84,    18.54,    14.91
      120.0,      17.39,    15.56,    20.75,    18.44,    14.82
      121.0,      17.30,    15.50,    20.66,    18.34,    14.72
      122.0,      17.22,    15.45,    20.57,    18.24,    14.63
      123.0,      17.14,    15.40,    20.48,    18.14,    14.53
      124.0,      17.05,    15.34,    20.39,    18.04,    14.44
      125.0,      16.97,    15.29,    20.30,    17.94,    14.35
      126.0,      16.89,    15.24,    20.22,    17.85,    14.26
      127.0,      16.81,    15.19,    20.13,    17.75,    14.17
      128.0,      16.73,    15.14,    20.05,    17.66,    14.08
      129.0,      16.65,    15.09,    19.97,    17.57,    13.99
      130.0,      16.58,    15.04,    19.88,    17.48,    13.90
      131.0,      16.50,    14.99,    19.80,    17.39,    13.82
      132.0,      16.42,    14.95,    19.72,    17.30,    13.73
      133.0,      16.35,    14.90,    19.64,    17.21,    13.65
      134.0,      16.27,    14.85,    19.56,    17.12,    13.56
      135.0,      16.20,    14.81,    19.49,    17.03,    13.48
      136.0,      16.13,    14.76,    19.41,    16.95,    13.40
      137.0,      16.06,    14.72,    19.33,    16.86,    13.32
      138.0,      15.99,    14.68,    19.26,    16.77,    13.24
      139.0,      15.92,    14.63,    19.18,    16.69,    13.16
      140.0,      15.85,    14.59,    19.11,    16.61,    13.08
      141.0,      15.78,    14.55,    19.03,    16.52,    13.00
      142.0,      15.71,    14.51,    18.96,    16.44,    12.92
      143.0,      15.64,    14.47,    18.89,    16.36,    12.85
      144.0,      15.57,    14.43,    18.82,    16.28,    12.77
      145.0,      15.51,    14.39,    18.75,    16.20,    12.69
      146.0,      15.44,    14.35,    18.68,    16.12,    12.62
      147.0,      15.38,    14.31,    18.61,    16.05,    12.55
      148.0,      15.31,    14.27,    18.54,    15.97,    12.47
      149.0,      15.25,    14.23,    18.47,    15.89,    12.40
      150.0,      15.19,    14.20,    18.41,    15.82,    12.33
      151.0,      15.13,    14.16,    18.34,    15.74,    12.26
      152.0,      15.06,    14.12,    18.28,    15.67,    12.19
      153.0,      15.00,    14.09,    18.21,    15.59,    12.12
      154.0,      14.94,    14.05,    18.15,    15.52,    12.05
      155.0,      14.88,    14.02,    18.08,    15.45,    11.98
      156.0,      14.82,    13.98,    18.02,    15.37,    11.92
      157.0,      14.76,    13.95,    17.96,    15.30,    11.85
      158.0,      14.71,    13.91,    17.90,    15.23,    11.78
      159.0,      14.65,    13.88,    17.83,    15.16,    11.72
      160.0,      14.59,    13.84,    17.77,    15.09,    11.65
      161.0,      14.53,    13.81,    17.71,    15.02,    11.59
      162.0,      14.48,    13.78,    17.65,    14.96,    11.53
      163.0,      14.42,    13.74,    17.59,    14.89,    11.46
      164.0,      14.37,    13.71,    17.54,    14.82,    11.40
      165.0,      14.31,    13.68,    17.48,    14.76,    11.34
      166.0,      14.26,    13.65,    17.42,    14.69,    11.28
      167.0,      14.20,    13.61,    17.36,    14.62,    11.22
      168.0,      14.15,    13.58,    17.31,    14.56,    11.16
      169.0,      14.10,    13.55,    17.25,    14.50,    11.10
      170.0,      14.05,    13.52,    17.20,    14.43,    11.04
      171.0,      14.00,    13.49,    17.14,    14.37,    10.98
      172.0,      13.94,    13.46,    17.09,    14.31,    10.92
      173.0,      13.89,    13.43,    17.03,    14.25,    10.87
      174.0,      13.84,    13.40,    16.98,    14.18,    10.81
      175.0,      13.79,    13.37,    16.93,    14.12,    10.75
      176.0,      13.74,    13.34,    16.88,    14.06,    10.70
      177.0,      13.69,    13.31,    16.82,    14.00,    10.64
      178.0,      13.65,    13.28,    16.77,    13.94,    10.59
      179.0,      13.60,    13.25,    16.72,    13.89,    10.54
      180.0,      13.55,    13.22,    16.67,    13.83,    10.48
      181.0,      13.50,    13.19,    16.62,    13.77,    10.43
      182.0,      13.46,    13.16,    16.57,    13.71,    10.38
      183.0,      13.41,    13.13,    16.52,    13.66,    10.33
      184.0,      13.36,    13.10,    16.47,    13.60,    10.28
      185.0,      13.32,    13.08,    16.43,    13.54,    10.22
      186.0,      13.27,    13.05,    16.38,    13.49,    10.17
      187.0,      13.23,    13.02,    16.33,    13.43,    10.12
      188.0,      13.18,    12.99,    16.28,    13.38,    10.08
      189.0,      13.14,    12.97,    16.24,    13.32,    10.03
      190.0,      13.09,    12.94,    16.19,    13.27,     9.98
      191.0,      13.05,    12.91,    16.15,    13.22,     9.93
      192.0,      13.01,    12.88,    16.10,    13.17,     9.88
      193.0,      12.96,    12.86,    16.05,    13.11,     9.84
      194.0,      12.92,    12.83,    16.01,    13.06,     9.79
      195.0,      12.88,    12.80,    15.97,    13.01,     9.74
      196.0,      12.84,    12.78,    15.92,    12.96,     9.70
      197.0,      12.80,    12.75,    15.88,    12.91,     9.65
      198.0,      12.76,    12.72,    15.83,    12.86,     9.61
      199.0,      12.72,    12.70,    15.79,    12.81,     9.56
      200.0,      12.67,    12.67,    15.75,    12.76,     9.52
      201.0,      12.63,    12.65,    15.71,    12.71,     9.47
      202.0,      12.59,    12.62,    15.67,    12.66,     9.43
      203.0,      12.55,    12.59,    15.62,    12.61,     9.39
      204.0,      12.52,    12.57,    15.58,    12.57,     9.35
      205.0,      12.48,    12.54,    15.54,    12.52,     9.30
      206.0,      12.44,    12.52,    15.50,    12.47,     9.26
      207.0,      12.40,    12.49,    15.46,    12.42,     9.22
      208.0,      12.36,    12.47,    15.42,    12.38,     9.18
      209.0,      12.32,    12.44,    15.38,    12.33,     9.14
      210.0,      12.29,    12.42,    15.34,    12.29,     9.10
      211.0,      12.25,    12.39,    15.30,    12.24,     9.06
      212.0,      12.21,    12.37,    15.26,    12.20,     9.02
      213.0,      12.18,    12.34,    15.22,    12.15,     8.98
      214.0,      12.14,    12.32,    15.19,    12.11,     8.94
      215.0,      12.10,    12.29,    15.15,    12.06,     8.91
      216.0,      12.07,    12.27,    15.11,    12.02,     8.87
      217.0,      12.03,    12.25,    15.07,    11.98,     8.83
      218.0,      12.00,    12.22,    15.04,    11.93,     8.79
      219.0,      11.96,    12.20,    15.00,    11.89,     8.76
      220.0,      11.93,    12.17,    14.96,    11.85,     8.72
      221.0,      11.89,    12.15,    14.93,    11.81,     8.68
      222.0,      11.86,    12.13,    14.89,    11.76,     8.65
      223.0,      11.82,    12.10,    14.86,    11.72,     8.61
      224.0,      11.79,    12.08,    14.82,    11.68,     8.58
      225.0,      11.76,    12.05,    14.78,    11.64,     8.54
      226.0,      11.72,    12.03,    14.75,    11.60,     8.51
      227.0,      11.69,    12.01,    14.71,    11.56,     8.47
      228.0,      11.66,    11.98,    14.68,    11.52,     8.44
      229.0,      11.62,    11.96,    14.65,    11.48,     8.41
      230.0,      11.59,    11.94,    14.61,    11.44,     8.37
      231.0,      11.56,    11.91,    14.58,    11.40,     8.34
      232.0,      11.53,    11.89,    14.54,    11.36,     8.31
      233.0,      11.49,    11.87,    14.51,    11.32,     8.27
      234.0,      11.46,    11.85,    14.48,    11.29,     8.24
      235.0,      11.43,    11.82,    14.44,    11.25,     8.21
      236.0,      11.40,    11.80,    14.41,    11.21,     8.18
      237.0,      11.37,    11.78,    14.38,    11.17,     8.15
      238.0,      11.34,    11.75,    14.35,    11.14,     8.12
      239.0,      11.31,    11.73,    14.32,    11.10,     8.09
      240.0,      11.28,    11.71,    14.28,    11.06,     8.06
      241.0,      11.25,    11.69,    14.25,    11.03,     8.03
      242.0,      11.22,    11.66,    14.22,    10.99,     8.00
      243.0,      11.19,    11.64,    14.19,    10.95,     7.97
      244.0,      11.16,    11.62,    14.16,    10.92,     7.94
      245.0,      11.13,    11.60,    14.13,    10.88,     7.91
      246.0,      11.10,    11.57,    14.10,    10.85,     7.88
      247.0,      11.07,    11.55,    14.07,    10.81,     7.85
      248.0,      11.04,    11.53,    14.04,    10.78,     7.82
      249.0,      11.01,    11.51,    14.01,    10.74,     7.79
      250.0,      10.98,    11.49,    13.98,    10.71,     7.77
      251.0,      10.96,    11.46,    13.95,    10.67,     7.74
      252.0,      10.93,    11.44,    13.92,    10.64,     7.71
      253.0,      10.90,    11.42,    13.89,    10.61,     7.68
      254.0,      10.87,    11.40,    13.86,    10.57,     7.66
      255.0,      10.84,    11.38,    13.83,    10.54,     7.63
      256.0,      10.82,    11.36,    13.80,    10.51,     7.60
      257.0,      10.79,    11.33,    13.77,    10.47,     7.58
      258.0,      10.76,    11.31,    13.74,    10.44,     7.55
      259.0,      10.73,    11.29,    13.71,    10.41,     7.53
      260.0,      10.71,    11.27,    13.69,    10.38,     7.50
      261.0,      10.68,    11.25,    13.66,    10.34,     7.47
      262.0,      10.65,    11.23,    13.63,    10.31,     7.45
      263.0,      10.63,    11.21,    13.60,    10.28,     7.42
      264.0,      10.60,    11.18,    13.57,    10.25,     7.40
      265.0,      10.58,    11.16,    13.55,    10.22,     7.38
      266.0,      10.55,    11.14,    13.52,    10.19,     7.35
      267.0,      10.52,    11.12,    13.49,    10.16,     7.33
      268.0,      10.50,    11.10,    13.47,    10.13,     7.30
      269.0,      10.47,    11.08,    13.44,    10.10,     7.28
      270.0,      10.45,    11.06,    13.41,    10.07,     7.26
      271.0,      10.42,    11.04,    13.39,    10.04,     7.23
      272.0,      10.40,    11.02,    13.36,    10.01,     7.21
      273.0,      10.37,    11.00,    13.33,     9.98,     7.19
      274.0,      10.35,    10.97,    13.31,     9.95,     7.16
      275.0,      10.32,    10.95,    13.28,     9.92,     7.14
      276.0,      10.30,    10.93,    13.26,     9.89,     7.12
      277.0,      10.27,    10.91,    13.23,     9.86,     7.10
      278.0,      10.25,    10.89,    13.20,     9.83,     7.07
      279.0,      10.23,    10.87,    13.18,     9.80,     7.05
      280.0,      10.20,    10.85,    13.15,     9.77,     7.03
      281.0,      10.18,    10.83,    13.13,     9.75,     7.01
      282.0,      10.15,    10.81,    13.10,     9.72,     6.99
      283.0,      10.13,    10.79,    13.08,     9.69,     6.97
      284.0,      10.11,    10.77,    13.05,     9.66,     6.95
      285.0,      10.08,    10.75,    13.03,     9.63,     6.93
      286.0,      10.06,    10.73,    13.00,     9.61,     6.91
      287.0,      10.04,    10.71,    12.98,     9.58,     6.89
      288.0,      10.02,    10.69,    12.95,     9.55,     6.87
      289.0,       9.99,    10.67,    12.93,     9.52,     6.85
      290.0,       9.97,    10.65,    12.91,     9.50,     6.83
      291.0,       9.95,    10.63,    12.88,     9.47,     6.81
      292.0,       9.92,    10.61,    12.86,     9.44,     6.79
      293.0,       9.90,    10.59,    12.83,     9.42,     6.77
      294.0,       9.88,    10.57,    12.81,     9.39,     6.75
      295.0,       9.86,    10.55,    12.79,     9.37,     6.73
      296.0,       9.84,    10.53,    12.76,     9.34,     6.71
      297.0,       9.81,    10.51,    12.74,     9.31,     6.69
      298.0,       9.79,    10.49,    12.72,     9.29,     6.67
      299.0,       9.77,    10.47,    12.69,     9.26,     6.65
      300.0,       9.75,    10.45,    12.67,     9.24,     6.63
      301.0,       9.73,    10.43,    12.65,     9.21,     6.62
      302.0,       9.71,    10.41,    12.63,     9.19,     6.60
      303.0,       9.68,    10.39,    12.60,     9.16,     6.58
      304.0,       9.66,    10.37,    12.58,     9.14,     6.56
      305.0,       9.64,    10.35,    12.56,     9.11,     6.55
      306.0,       9.62,    10.33,    12.53,     9.09,     6.53
      307.0,       9.60,    10.31,    12.51,     9.06,     6.51
      308.0,       9.58,    10.30,    12.49,     9.04,     6.49
      309.0,       9.56,    10.28,    12.47,     9.01,     6.48
      310.0,       9.54,    10.26,    12.45,     8.99,     6.46
