Radius (km), Mean (m/s), NE (m/s), SE (m/s), SW (m/s), NW (m/s)
        0.0,       0.00,     0.00,     0.00,     0.00,     0.00
        1.0,       2.12,     2.17,     1.98,     2.17,     2.17
        2.0,       3.97,     4.02,     3.81,     4.02,     4.02
        3.0,       5.72,     5.77,     5.58,     5.77,     5.77
        4.0,       7.42,     7.45,     7.32,     7.45,     7.45
        5.0,       9.07,     9.08,     9.03,     9.08,     9.08
        6.0,      10.69,    10.69,    10.72,    10.69,    10.69
        7.0,      12.29,    12.26,    12.39,    12.26,    12.26
        8.0,      13.87,    13.80,    14.05,    13.80,    13.80
        9.0,      15.42,    15.33,    15.70,    15.33,    15.33
       10.0,      16.96,    16.84,    17.34,    16.84,    16.84
       11.0,      18.49,    18.33,    18.97,    18.33,    18.33
       12.0,      20.02,    19.82,    20.62,    19.82,    19.83
       13.0,      21.61,    21.35,    22.33,    21.36,    21.39
       14.0,      23.30,    22.98,    24.16,    22.99,    23.08
       15.0,      25.15,    24.77,    26.15,    24.75,    24.94
       16.0,      27.19,    26.76,    28.33,    26.66,    26.99
       17.0,      29.39,    28.93,    30.68,    28.72,    29.22
       18.0,      31.70,    31.24,    33.12,    30.86,    31.56
       19.0,      34.02,    33.59,    35.58,    33.02,    33.91
       20.0,      36.26,    35.85,    37.94,    35.10,    36.14
       21.0,      38.29,    37.92,    40.08,    37.00,    38.15
       22.0,      40.01,    39.66,    41.92,    38.64,    39.82
       23.0,      41.36,    41.00,    43.38,    39.96,    41.08
       24.0,      42.30,    41.90,    44.44,    40.92,    41.92
       25.0,      42.84,    42.36,    45.11,    41.54,    42.33
       26.0,      43.02,    42.43,    45.43,    41.84,    42.38
       27.0,      42.92,    42.17,    45.47,    41.90,    42.14
       28.0,      42.62,    41.69,    45.32,    41.77,    41.70
       29.0,      42.20,    41.07,    45.05,    41.54,    41.15
       30.0,      41.73,    40.39,    44.73,    41.25,    40.56
       31.0,      41.26,    39.72,    44.40,    40.96,    39.98
       32.0,      40.82,    39.08,    44.08,    40.68,    39.42
       33.0,      40.39,    38.48,    43.78,    40.41,    38.90
       34.0,      39.99,    37.91,    43.49,    40.14,    38.41
       35.0,      39.59,    37.36,    43.20,    39.88,    37.93
       36.0,      39.21,    36.84,    42.91,    39.63,    37.47
       37.0,      38.84,    36.33,    42.62,    39.37,    37.02
       38.0,      38.47,    35.84,    42.34,    39.12,    36.59
       39.0,      38.12,    35.37,    42.06,    38.87,    36.18
       40.0,      37.78,    34.91,    41.79,    38.62,    35.78
       41.0,      37.44,    34.47,    41.51,    38.38,    35.40
       42.0,      37.11,    34.05,    41.24,    38.14,    35.03
       43.0,      36.79,    33.64,    40.97,    37.90,    34.67
       44.0,      36.48,    33.24,    40.71,    37.66,    34.32
       45.0,      36.18,    32.86,    40.44,    37.42,    33.99
       46.0,      35.88,    32.50,    40.18,    37.19,    33.67
       47.0,      35.60,    32.14,    39.93,    36.96,    33.36
       48.0,      35.31,    31.80,    39.67,    36.73,    33.06
       49.0,      35.04,    31.47,    39.42,    36.50,    32.77
       50.0,      34.77,    31.15,    39.17,    36.27,    32.49
       51.0,      34.51,    30.84,    38.92,    36.05,    32.21
       52.0,      34.25,    30.54,    38.67,    35.83,    31.95
       53.0,      34.00,    30.26,    38.43,    35.61,    31.70
       54.0,      33.75,    29.98,    38.19,    35.39,    31.46
       55.0,      33.51,    29.71,    37.95,    35.18,    31.22
       56.0,      33.28,    29.45,    37.72,    34.96,    30.99
       57.0,      33.05,    29.20,    37.48,    34.75,    30.77
       58.0,      32.83,    28.96,    37.25,    34.54,    30.55
       59.0,      32.61,    28.72,    37.02,    34.33,    30.35
       60.0,      32.39,    28.49,    36.80,    34.13,    30.15
       61.0,      32.18,    28.27,    36.57,    33.93,    29.95
       62.0,      31.97,    28.06,    36.35,    33.72,    29.76
       63.0,      31.77,    27.85,    36.13,    33.52,    29.58
       64.0,      31.57,    27.65,    35.91,    33.32,    29.40
       65.0,      31.38,    27.46,    35.70,    33.13,    29.23
       66.0,      31.19,    27.27,    35.48,    32.93,    29.07
       67.0,      31.00,    27.09,    35.27,    32.74,    28.90
       68.0,      30.82,    26.91,    35.06,    32.55,    28.75
       69.0,      30.64,    26.74,    34.86,    32.36,    28.60
       70.0,      30.46,    26.58,    34.65,    32.17,    28.45
       71.0,      30.29,    26.42,    34.45,    31.99,    28.31
       72.0,      30.12,    26.26,    34.25,    31.80,    28.17
       73.0,      29.95,    26.11,    34.05,    31.62,    28.03
       74.0,      29.79,    25.96,    33.85,    31.44,    27.90
       75.0,      29.63,    25.82,    33.65,    31.26,    27.77
       76.0,      29.47,    25.68,    33.46,    31.08,    27.65
       77.0,      29.31,    25.54,    33.27,    30.91,    27.53
       78.0,      29.16,    25.41,    33.08,    30.73,    27.41
       79.0,      29.01,    25.28,    32.89,    30.56,    27.30
       80.0,      28.86,    25.16,    32.71,    30.39,    27.19
       81.0,      28.71,    25.04,    32.52,    30.22,    27.08
       82.0,      28.57,    24.92,    32.34,    30.05,    26.97
       83.0,      28.43,    24.81,    32.16,    29.88,    26.87
       84.0,      28.29,    24.70,    31.98,    29.72,    26.77
       85.0,      28.15,    24.59,    31.80,    29.55,    26.67
       86.0,      28.02,    24.48,    31.63,    29.39,    26.57
       87.0,      27.89,    24.38,    31.45,    29.23,    26.48
       88.0,      27.75,    24.28,    31.28,    29.07,    26.39
       89.0,      27.63,    24.18,    31.11,    28.91,    26.30
       90.0,      27.50,    24.08,    30.94,    28.76,    26.21
       91.0,      27.37,    23.99,    30.77,    28.60,    26.13
       92.0,      27.25,    23.90,    30.61,    28.45,    26.05
       93.0,      27.13,    23.81,    30.45,    28.30,    25.97
       94.0,      27.01,    23.72,    30.28,    28.14,    25.89
       95.0,      26.89,    23.63,    30.12,    27.99,    25.81
       96.0,      26.77,    23.55,    29.96,    27.85,    25.73
       97.0,      26.66,    23.47,    29.81,    27.70,    25.66
       98.0,      26.54,    23.39,    29.65,    27.55,    25.58
       99.0,      26.43,    23.31,    29.49,    27.41,    25.51
      100.0,      26.32,    23.23,    29.34,    27.27,    25.44
      101.0,      26.21,    23.15,    29.19,    27.12,    25.37
      102.0,      26.10,    23.08,    29.04,    26.98,    25.30
      103.0,      25.99,    23.01,    28.89,    26.84,    25.24
      104.0,      25.89,    22.94,    28.74,    26.71,    25.17
      105.0,      25.79,    22.87,    28.60,    26.57,    25.11
      106.0,      25.68,    22.80,    28.45,    26.43,    25.05
      107.0,      25.58,    22.73,    28.31,    26.30,    24.98
      108.0,      25.48,    22.66,    28.17,    26.17,    24.92
      109.0,      25.38,    22.60,    28.03,    26.03,    24.86
      110.0,      25.28,    22.53,    27.89,    25.90,    24.80
      111.0,      25.18,    22.47,    27.75,    25.77,    24.74
      112.0,      25.09,    22.41,    27.61,    25.64,    24.69
      113.0,      24.99,    22.35,    27.48,    25.52,    24.63
      114.0,      24.90,    22.29,    27.34,    25.39,    24.57
      115.0,      24.81,    22.23,    27.21,    25.27,    24.52
      116.0,      24.71,    22.17,    27.08,    25.14,    24.47
      117.0,      24.62,    22.11,    26.95,    25.02,    24.41
      118.0,      24.53,    22.06,    26.82,    24.90,    24.36
      119.0,      24.44,    22.00,    26.69,    24.78,    24.31
      120.0,      24.36,    21.95,    26.56,    24.66,    24.26
      121.0,      24.27,    21.89,    26.44,    24.54,    24.21
      122.0,      24.18,    21.84,    26.31,    24.42,    24.15
      123.0,      24.10,    21.78,    26.19,    24.30,    24.11
      124.0,      24.01,    21.73,    26.07,    24.19,    24.06
      125.0,      23.93,    21.68,    25.95,    24.07,    24.01
      126.0,      23.84,    21.63,    25.83,    23.96,    23.96
      127.0,      23.76,    21.58,    25.71,    23.84,    23.91
      128.0,      23.68,    21.53,    25.59,    23.73,    23.87
      129.0,      23.60,    21.48,    25.48,    23.62,    23.82
      130.0,      23.52,    21.43,    25.36,    23.51,    23.77
      131.0,      23.44,    21.38,    25.25,    23.40,    23.73
      132.0,      23.36,    21.33,    25.13,    23.30,    23.68
      133.0,      23.28,    21.29,    25.02,    23.19,    23.64
      134.0,      23.21,    21.24,    24.91,    23.08,    23.59
      135.0,      23.13,    21.19,    24.80,    22.98,    23.55
      136.0,      23.05,    21.15,    24.69,    22.87,    23.51
      137.0,      22.98,    21.10,    24.58,    22.77,    23.46
      138.0,      22.90,    21.06,    24.47,    22.67,    23.42
      139.0,      22.83,    21.01,    24.37,    22.57,    23.38
      140.0,      22.76,    20.97,    24.26,    22.47,    23.33
      141.0,      22.68,    20.92,    24.16,    22.37,    23.29
      142.0,      22.61,    20.88,    24.06,    22.27,    23.25
      143.0,      22.54,    20.83,    23.95,    22.17,    23.21
      144.0,      22.47,    20.79,    23.85,    22.07,    23.17
      145.0,      22.40,    20.75,    23.75,    21.97,    23.13
      146.0,      22.33,    20.71,    23.65,    21.88,    23.09
      147.0,      22.26,    20.66,    23.55,    21.78,    23.05
      148.0,      22.19,    20.62,    23.46,    21.69,    23.01
      149.0,      22.13,    20.58,    23.36,    21.60,    22.97
      150.0,      22.06,    20.54,    23.26,    21.50,    22.93
      151.0,      21.99,    20.50,    23.17,    21.41,    22.89
      152.0,      21.92,    20.46,    23.07,    21.32,    22.85
      153.0,      21.86,    20.41,    22.98,    21.23,    22.81
      154.0,      21.79,    20.37,    22.89,    21.14,    22.77
      155.0,      21.73,    20.33,    22.79,    21.05,    22.73
      156.0,      21.66,    20.29,    22.70,    20.97,    22.69
      157.0,      21.60,    20.25,    22.61,    20.88,    22.66
      158.0,      21.54,    20.21,    22.52,    20.79,    22.62
      159.0,      21.47,    20.18,    22.44,    20.71,    22.58
      160.0,      21.41,    20.14,    22.35,    20.62,    22.54
      161.0,      21.35,    20.10,    22.26,    20.54,    22.50
      162.0,      21.29,    20.06,    22.18,    20.45,    22.47
      163.0,      21.23,    20.02,    22.09,    20.37,    22.43
      164.0,      21.17,    19.98,    22.00,    20.29,    22.39
      165.0,      21.11,    19.94,    21.92,    20.21,    22.36
      166.0,      21.05,    19.91,    21.84,    20.13,    22.32
      167.0,      20.99,    19.87,    21.76,    20.05,    22.28
      168.0,      20.93,    19.83,    21.67,    19.97,    22.25
      169.0,      20.87,    19.79,    21.59,    19.89,    22.21
      170.0,      20.81,    19.75,    21.51,    19.81,    22.17
      171.0,      20.76,    19.72,    21.43,    19.73,    22.14
      172.0,      20.70,    19.68,    21.35,    19.66,    22.10
      173.0,      20.64,    19.64,    21.28,    19.58,    22.07
      174.0,      20.59,    19.61,    21.20,    19.50,    22.03
      175.0,      20.53,    19.57,    21.12,    19.43,    22.00
      176.0,      20.47,    19.53,    21.04,    19.36,    21.96
      177.0,      20.42,    19.50,    20.97,    19.28,    21.93
      178.0,      20.36,    19.46,    20.89,    19.21,    21.89
      179.0,      20.31,    19.42,    20.82,    19.14,    21.86
      180.0,      20.25,    19.39,    20.75,    19.06,    21.82
      181.0,      20.20,    19.35,    20.67,    18.99,    21.79
      182.0,      20.15,    19.32,    20.60,    18.92,    21.75
      183.0,      20.09,    19.28,    20.53,    18.85,    21.72
      184.0,      20.04,    19.25,    20.46,    18.78,    21.68
      185.0,      19.99,    19.21,    20.39,    18.71,    21.65
      186.0,      19.94,    19.17,    20.32,    18.64,    21.61
      187.0,      19.89,    19.14,    20.25,    18.58,    21.58
      188.0,      19.83,    19.10,    20.18,    18.51,    21.54
      189.0,      19.78,    19.07,    20.11,    18.44,    21.51
      190.0,      19.73,    19.03,    20.04,    18.38,    21.48
      191.0,      19.68,    19.00,    19.98,    18.31,    21.44
      192.0,      19.63,    18.96,    19.91,    18.25,    21.41
      193.0,      19.58,    18.93,    19.85,    18.18,    21.37
      194.0,      19.53,    18.90,    19.78,    18.12,    21.34
      195.0,      19.48,    18.86,    19.72,    18.05,    21.31
      196.0,      19.44,    18.83,    19.65,    17.99,    21.27
      197.0,      19.39,    18.79,    19.59,    17.93,    21.24
      198.0,      19.34,    18.76,    19.52,    17.86,    21.21
      199.0,      19.29,    18.72,    19.46,    17.80,    21.17
      200.0,      19.24,    18.69,    19.40,    17.74,    21.14
      201.0,      19.20,    18.66,    19.34,    17.68,    21.11
      202.0,      19.15,    18.62,    19.28,    17.62,    21.07
      203.0,      19.10,    18.59,    19.22,    17.56,    21.04
      204.0,      19.06,    18.56,    19.16,    17.50,    21.01
      205.0,      19.01,    18.52,    19.10,    17.44,    20.98
      206.0,      18.96,    18.49,    19.04,    17.38,    20.94
      207.0,      18.92,    18.45,    18.98,    17.33,    20.91
      208.0,      18.87,    18.42,    18.92,    17.27,    20.88
      209.0,      18.83,    18.39,    18.86,    17.21,    20.85
      210.0,      18.78,    18.36,    18.81,    17.16,    20.81
      211.0,      18.74,    18.32,    18.75,    17.10,    20.78
      212.0,      18.69,    18.29,    18.69,    17.04,    20.75
      213.0,      18.65,    18.26,    18.64,    16.99,    20.72
      214.0,      18.61,    18.22,    18.58,    16.93,    20.68
      215.0,      18.56,    18.19,    18.53,    16.88,    20.65
      216.0,      18.52,    18.16,    18.47,    16.83,    20.62
      217.0,      18.48,    18.12,    18.42,    16.77,    20.59
      218.0,      18.43,    18.09,    18.36,    16.72,    20.56
      219.0,      18.39,    18.06,    18.31,    16.67,    20.52
      220.0,      18.35,    18.03,    18.26,    16.61,    20.49
      221.0,      18.31,    18.00,    18.21,    16.56,    20.46
      222.0,      18.26,    17.96,    18.15,    16.51,    20.43
      223.0,      18.22,    17.93,    18.10,    16.46,    20.40
      224.0,      18.18,    17.90,    18.05,    16.41,    20.36
      225.0,      18.14,    17.87,    18.00,    16.36,    20.33
      226.0,      18.10,    17.83,    17.95,    16.31,    20.30
      227.0,      18.06,    17.80,    17.90,    16.26,    20.27
      228.0,      18.02,    17.77,    17.85,    16.21,    20.24
      229.0,      17.98,    17.74,    17.80,    16.16,    20.21
      230.0,      17.94,    17.71,    17.75,    16.11,    20.18
      231.0,      17.90,    17.67,    17.70,    16.06,    20.14
      232.0,      17.86,    17.64,    17.66,    16.02,    20.11
      233.0,      17.82,    17.61,    17.61,    15.97,    20.08
      234.0,      17.78,    17.58,    17.56,    15.92,    20.05
      235.0,      17.74,    17.55,    17.51,    15.88,    20.02
      236.0,      17.70,    17.52,    17.47,    15.83,    19.99
      237.0,      17.66,    17.49,    17.42,    15.78,    19.96
      238.0,      17.62,    17.45,    17.38,    15.74,    19.93
      239.0,      17.59,    17.42,    17.33,    15.69,    19.90
      240.0,      17.55,    17.39,    17.28,    15.65,    19.87
      241.0,      17.51,    17.36,    17.24,    15.60,    19.84
      242.0,      17.47,    17.33,    17.20,    15.56,    19.80
      243.0,      17.43,    17.30,    17.15,    15.51,    19.77
      244.0,      17.40,    17.27,    17.11,    15.47,    19.74
      245.0,      17.36,    17.24,    17.06,    15.43,    19.71
      246.0,      17.32,    17.21,    17.02,    15.38,    19.68
      247.0,      17.29,    17.18,    16.98,    15.34,    19.65
      248.0,      17.25,    17.15,    16.94,    15.30,    19.62
      249.0,      17.21,    17.11,    16.89,    15.26,    19.59
      250.0,      17.18,    17.08,    16.85,    15.22,    19.56
      251.0,      17.14,    17.05,    16.81,    15.17,    19.53
      252.0,      17.11,    17.02,    16.77,    15.13,    19.50
      253.0,      17.07,    16.99,    16.73,    15.09,    19.47
      254.0,      17.04,    16.96,    16.69,    15.05,    19.44
      255.0,      17.00,    16.93,    16.65,    15.01,    19.41
      256.0,      16.96,    16.90,    16.61,    14.97,    19.38
      257.0,      16.93,    16.87,    16.57,    14.93,    19.35
      258.0,      16.90,    16.84,    16.53,    14.89,    19.32
      259.0,      16.86,    16.81,    16.49,    14.85,    19.29
      260.0,      16.83,    16.78,    16.45,    14.81,    19.26
      261.0,      16.79,    16.75,    16.41,    14.77,    19.23
      262.0,      16.76,    16.72,    16.37,    14.74,    19.20
      263.0,      16.72,    16.69,    16.33,    14.70,    19.17
      264.0,      16.69,    16.66,    16.30,    14.66,    19.14
      265.0,      16.66,    16.63,    16.26,    14.62,    19.11
      266.0,      16.62,    16.60,    16.22,    14.59,    19.08
      267.0,      16.59,    16.57,    16.18,    14.55,    19.05
      268.0,      16.56,    16.54,    16.15,    14.51,    19.02
      269.0,      16.52,    16.51,    16.11,    14.47,    19.00
      270.0,      16.49,    16.48,    16.07,    14.44,    18.97
      271.0,      16.46,    16.46,    16.04,    14.40,    18.94
      272.0,      16.43,    16.43,    16.00,    14.37,    18.91
      273.0,      16.39,    16.40,    15.97,    14.33,    18.88
      274.0,      16.36,    16.37,    15.93,    14.30,    18.85
      275.0,      16.33,    16.34,    15.90,    14.26,    18.82
      276.0,      16.30,    16.31,    15.86,    14.23,    18.79
      277.0,      16.26,    16.28,    15.83,    14.19,    18.76
      278.0,      16.23,    16.25,    15.79,    14.16,    18.73
      279.0,      16.20,    16.22,    15.76,    14.12,    18.70
      280.0,      16.17,    16.19,    15.72,    14.09,    18.68
      281.0,      16.14,    16.16,    15.69,    14.06,    18.65
      282.0,      16.11,    16.14,    15.66,    14.02,    18.62
      283.0,      16.08,    16.11,    15.62,    13.99,    18.59
      284.0,      16.05,    16.08,    15.59,    13.96,    18.56
      285.0,      16.02,    16.05,    15.56,    13.92,    18.53
      286.0,      15.98,    16.02,    15.52,    13.89,    18.50
      287.0,      15.95,    15.99,    15.49,    13.86,    18.47
      288.0,      15.92,    15.96,    15.46,    13.83,    18.45
      289.0,      15.89,    15.94,    15.43,    13.79,    18.42
      290.0,      15.86,    15.91,    15.40,    13.76,    18.39
      291.0,      15.83,    15.88,    15.36,    13.73,    18.36
      292.0,      15.80,    15.85,    15.33,    13.70,    18.33
      293.0,      15.77,    15.82,    15.30,    13.67,    18.30
      294.0,      15.74,    15.79,    15.27,    13.64,    18.28
      295.0,      15.72,    15.77,    15.24,    13.61,    18.25
      296.0,      15.69,    15.74,    15.21,    13.58,    18.22
      297.0,      15.66,    15.71,    15.18,    13.55,    18.19
      298.0,      15.63,    15.68,    15.15,    13.52,    18.16
      299.0,      15.60,    15.65,    15.12,    13.49,    18.14
      300.0,      15.57,    15.63,    15.09,    13.46,    18.11
      301.0,      15.54,    15.60,    15.06,    13.43,    18.08
      302.0,      15.51,    15.57,    15.03,    13.40,    18.05
      303.0,      15.48,    15.54,    15.00,    13.37,    18.02
      304.0,      15.46,    15.51,    14.97,    13.34,    18.00
      305.0,      15.43,    15.49,    14.94,    13.31,    17.97
      306.0,      15.40,    15.46,    14.91,    13.28,    17.94
      307.0,      15.37,    15.43,    14.89,    13.25,    17.91
      308.0,      15.34,    15.40,    14.86,    13.22,    17.89
      309.0,      15.32,    15.38,    14.83,    13.20,    17.86
      310.0,      15.29,    15.35,    14.80,    13.17,    17.83
