Radius (km), Mean (m/s), NE (m/s), SE (m/s), SW (m/s), NW (m/s)
        0.0,       0.00,     0.00,     0.00,     0.00,     0.00
        1.0,       2.01,     1.98,     1.95,     2.06,     2.03
        2.0,       3.46,     3.43,     3.41,     3.51,     3.49
        3.0,       4.76,     4.74,     4.73,     4.80,     4.79
        4.0,       5.98,     5.97,     5.95,     6.00,     5.99
        5.0,       7.12,     7.13,     7.12,     7.12,     7.13
        6.0,       8.22,     8.24,     8.25,     8.20,     8.21
        7.0,       9.29,     9.32,     9.34,     9.23,     9.26
        8.0,      10.32,    10.36,    10.39,    10.24,    10.28
        9.0,      11.32,    11.38,    11.43,    11.21,    11.26
       10.0,      12.30,    12.38,    12.44,    12.16,    12.23
       11.0,      13.26,    13.35,    13.43,    13.09,    13.17
       12.0,      14.20,    14.31,    14.40,    14.00,    14.09
       13.0,      15.12,    15.26,    15.35,    14.89,    15.00
       14.0,      16.03,    16.18,    16.30,    15.77,    15.89
       15.0,      16.93,    17.10,    17.23,    16.63,    16.77
       16.0,      17.81,    18.00,    18.14,    17.48,    17.63
       17.0,      18.68,    18.89,    19.05,    18.32,    18.48
       18.0,      19.55,    19.77,    19.94,    19.14,    19.32
       19.0,      20.40,    20.64,    20.83,    19.96,    20.16
       20.0,      21.24,    21.50,    21.71,    20.77,    20.98
       21.0,      22.07,    22.35,    22.57,    21.56,    21.79
       22.0,      22.91,    23.20,    23.44,    22.37,    22.62
       23.0,      23.76,    24.04,    24.32,    23.20,    23.47
       24.0,      24.66,    24.91,    25.25,    24.09,    24.38
       25.0,      25.62,    25.82,    26.25,    25.05,    25.36
       26.0,      26.67,    26.81,    27.33,    26.10,    26.43
       27.0,      27.78,    27.88,    28.48,    27.21,    27.56
       28.0,      28.94,    29.02,    29.69,    28.35,    28.71
       29.0,      30.11,    30.20,    30.90,    29.48,    29.85
       30.0,      31.22,    31.36,    32.07,    30.55,    30.92
       31.0,      32.23,    32.46,    33.13,    31.49,    31.87
       32.0,      33.09,    33.42,    34.03,    32.27,    32.65
       33.0,      33.76,    34.19,    34.75,    32.86,    33.25
       34.0,      34.23,    34.75,    35.25,    33.25,    33.66
       35.0,      34.49,    35.09,    35.55,    33.46,    33.89
       36.0,      34.58,    35.20,    35.66,    33.50,    33.96
       37.0,      34.52,    35.13,    35.62,    33.42,    33.91
       38.0,      34.36,    34.92,    35.48,    33.26,    33.78
       39.0,      34.14,    34.62,    35.27,    33.05,    33.61
       40.0,      33.89,    34.27,    35.04,    32.82,    33.43
       41.0,      33.64,    33.91,    34.81,    32.60,    33.25
       42.0,      33.41,    33.57,    34.60,    32.39,    33.07
       43.0,      33.19,    33.26,    34.39,    32.19,    32.91
       44.0,      32.97,    32.96,    34.19,    31.99,    32.75
       45.0,      32.76,    32.68,    34.00,    31.80,    32.58
       46.0,      32.56,    32.41,    33.80,    31.60,    32.42
       47.0,      32.36,    32.14,    33.61,    31.41,    32.27
       48.0,      32.16,    31.88,    33.42,    31.22,    32.11
       49.0,      31.96,    31.63,    33.24,    31.03,    31.95
       50.0,      31.77,    31.38,    33.05,    30.85,    31.80
       51.0,      31.58,    31.14,    32.87,    30.66,    31.64
       52.0,      31.39,    30.91,    32.69,    30.48,    31.49
       53.0,      31.21,    30.68,    32.52,    30.30,    31.34
       54.0,      31.03,    30.46,    32.34,    30.12,    31.19
       55.0,      30.85,    30.24,    32.17,    29.94,    31.04
       56.0,      30.67,    30.02,    32.00,    29.76,    30.89
       57.0,      30.49,    29.82,    31.83,    29.59,    30.75
       58.0,      30.32,    29.61,    31.66,    29.42,    30.60
       59.0,      30.15,    29.41,    31.49,    29.25,    30.46
       60.0,      29.98,    29.22,    31.33,    29.08,    30.31
       61.0,      29.82,    29.02,    31.17,    28.91,    30.17
       62.0,      29.65,    28.84,    31.01,    28.74,    30.03
       63.0,      29.49,    28.65,    30.85,    28.58,    29.89
       64.0,      29.33,    28.47,    30.70,    28.42,    29.75
       65.0,      29.18,    28.29,    30.54,    28.26,    29.61
       66.0,      29.02,    28.12,    30.39,    28.10,    29.47
       67.0,      28.87,    27.95,    30.24,    27.94,    29.34
       68.0,      28.71,    27.78,    30.09,    27.78,    29.20
       69.0,      28.56,    27.62,    29.94,    27.63,    29.07
       70.0,      28.42,    27.46,    29.80,    27.47,    28.94
       71.0,      28.27,    27.30,    29.65,    27.32,    28.81
       72.0,      28.13,    27.15,    29.51,    27.17,    28.68
       73.0,      27.98,    26.99,    29.37,    27.02,    28.55
       74.0,      27.84,    26.84,    29.23,    26.88,    28.42
       75.0,      27.70,    26.70,    29.09,    26.73,    28.29
       76.0,      27.56,    26.55,    28.95,    26.59,    28.16
       77.0,      27.43,    26.41,    28.82,    26.44,    28.04
       78.0,      27.29,    26.27,    28.68,    26.30,    27.91
       79.0,      27.16,    26.13,    28.55,    26.16,    27.79
       80.0,      27.02,    25.99,    28.42,    26.02,    27.66
       81.0,      26.89,    25.86,    28.29,    25.88,    27.54
       82.0,      26.76,    25.72,    28.16,    25.75,    27.42
       83.0,      26.64,    25.59,    28.04,    25.61,    27.30
       84.0,      26.51,    25.47,    27.91,    25.48,    27.18
       85.0,      26.38,    25.34,    27.79,    25.34,    27.06
       86.0,      26.26,    25.21,    27.66,    25.21,    26.95
       87.0,      26.14,    25.09,    27.54,    25.08,    26.83
       88.0,      26.01,    24.97,    27.42,    24.95,    26.71
       89.0,      25.89,    24.85,    27.30,    24.83,    26.60
       90.0,      25.77,    24.73,    27.18,    24.70,    26.48
       91.0,      25.66,    24.61,    27.07,    24.58,    26.37
       92.0,      25.54,    24.49,    26.95,    24.45,    26.26
       93.0,      25.42,    24.38,    26.84,    24.33,    26.15
       94.0,      25.31,    24.27,    26.72,    24.21,    26.04
       95.0,      25.20,    24.15,    26.61,    24.09,    25.93
       96.0,      25.08,    24.04,    26.50,    23.97,    25.82
       97.0,      24.97,    23.93,    26.39,    23.85,    25.71
       98.0,      24.86,    23.82,    26.28,    23.73,    25.60
       99.0,      24.75,    23.72,    26.18,    23.62,    25.50
      100.0,      24.64,    23.61,    26.07,    23.50,    25.39
      101.0,      24.54,    23.51,    25.96,    23.39,    25.29
      102.0,      24.43,    23.40,    25.86,    23.27,    25.18
      103.0,      24.32,    23.30,    25.76,    23.16,    25.08
      104.0,      24.22,    23.20,    25.65,    23.05,    24.98
      105.0,      24.12,    23.10,    25.55,    22.94,    24.87
      106.0,      24.01,    22.99,    25.45,    22.83,    24.77
      107.0,      23.91,    22.90,    25.35,    22.73,    24.67
      108.0,      23.81,    22.80,    25.25,    22.62,    24.57
      109.0,      23.71,    22.70,    25.15,    22.51,    24.47
      110.0,      23.61,    22.60,    25.06,    22.41,    24.38
      111.0,      23.51,    22.51,    24.96,    22.31,    24.28
      112.0,      23.42,    22.41,    24.87,    22.20,    24.18
      113.0,      23.32,    22.32,    24.77,    22.10,    24.09
      114.0,      23.22,    22.22,    24.68,    22.00,    23.99
      115.0,      23.13,    22.13,    24.59,    21.90,    23.90
      116.0,      23.03,    22.04,    24.49,    21.80,    23.80
      117.0,      22.94,    21.95,    24.40,    21.70,    23.71
      118.0,      22.85,    21.86,    24.31,    21.61,    23.62
      119.0,      22.76,    21.77,    24.22,    21.51,    23.53
      120.0,      22.67,    21.68,    24.13,    21.42,    23.43
      121.0,      22.57,    21.59,    24.05,    21.32,    23.34
      122.0,      22.49,    21.50,    23.96,    21.23,    23.25
      123.0,      22.40,    21.41,    23.87,    21.14,    23.16
      124.0,      22.31,    21.33,    23.79,    21.04,    23.08
      125.0,      22.22,    21.24,    23.70,    20.95,    22.99
      126.0,      22.13,    21.15,    23.62,    20.86,    22.90
      127.0,      22.05,    21.07,    23.54,    20.77,    22.81
      128.0,      21.96,    20.98,    23.45,    20.68,    22.73
      129.0,      21.88,    20.90,    23.37,    20.60,    22.64
      130.0,      21.79,    20.82,    23.29,    20.51,    22.56
      131.0,      21.71,    20.73,    23.21,    20.42,    22.47
      132.0,      21.63,    20.65,    23.13,    20.34,    22.39
      133.0,      21.54,    20.57,    23.05,    20.25,    22.31
      134.0,      21.46,    20.49,    22.97,    20.17,    22.23
      135.0,      21.38,    20.40,    22.89,    20.09,    22.14
      136.0,      21.30,    20.32,    22.82,    20.01,    22.06
      137.0,      21.22,    20.24,    22.74,    19.92,    21.98
      138.0,      21.14,    20.16,    22.66,    19.84,    21.90
      139.0,      21.06,    20.08,    22.59,    19.76,    21.82
      140.0,      20.99,    20.01,    22.51,    19.68,    21.74
      141.0,      20.91,    19.93,    22.44,    19.60,    21.67
      142.0,      20.83,    19.85,    22.37,    19.53,    21.59
      143.0,      20.76,    19.77,    22.29,    19.45,    21.51
      144.0,      20.68,    19.69,    22.22,    19.37,    21.43
      145.0,      20.61,    19.62,    22.15,    19.30,    21.36
      146.0,      20.53,    19.54,    22.08,    19.22,    21.28
      147.0,      20.46,    19.47,    22.01,    19.15,    21.21
      148.0,      20.38,    19.39,    21.94,    19.07,    21.13
      149.0,      20.31,    19.31,    21.87,    19.00,    21.06
      150.0,      20.24,    19.24,    21.80,    18.93,    20.99
      151.0,      20.17,    19.17,    21.73,    18.86,    20.91
      152.0,      20.09,    19.09,    21.66,    18.78,    20.84
      153.0,      20.02,    19.02,    21.59,    18.71,    20.77
      154.0,      19.95,    18.94,    21.52,    18.64,    20.70
      155.0,      19.88,    18.87,    21.46,    18.57,    20.63
      156.0,      19.81,    18.80,    21.39,    18.51,    20.56
      157.0,      19.74,    18.73,    21.32,    18.44,    20.49
      158.0,      19.68,    18.65,    21.26,    18.37,    20.42
      159.0,      19.61,    18.58,    21.19,    18.30,    20.35
      160.0,      19.54,    18.51,    21.13,    18.24,    20.28
      161.0,      19.47,    18.44,    21.07,    18.17,    20.21
      162.0,      19.41,    18.37,    21.00,    18.11,    20.14
      163.0,      19.34,    18.30,    20.94,    18.04,    20.08
      164.0,      19.27,    18.23,    20.88,    17.98,    20.01
      165.0,      19.21,    18.16,    20.81,    17.91,    19.95
      166.0,      19.14,    18.09,    20.75,    17.85,    19.88
      167.0,      19.08,    18.02,    20.69,    17.79,    19.81
      168.0,      19.01,    17.95,    20.63,    17.73,    19.75
      169.0,      18.95,    17.88,    20.57,    17.66,    19.69
      170.0,      18.89,    17.82,    20.51,    17.60,    19.62
      171.0,      18.82,    17.75,    20.45,    17.54,    19.56
      172.0,      18.76,    17.68,    20.39,    17.48,    19.50
      173.0,      18.70,    17.61,    20.33,    17.42,    19.43
      174.0,      18.64,    17.55,    20.27,    17.36,    19.37
      175.0,      18.58,    17.48,    20.21,    17.31,    19.31
      176.0,      18.52,    17.41,    20.16,    17.25,    19.25
      177.0,      18.46,    17.35,    20.10,    17.19,    19.19
      178.0,      18.40,    17.28,    20.04,    17.13,    19.13
      179.0,      18.34,    17.22,    19.98,    17.08,    19.07
      180.0,      18.28,    17.15,    19.93,    17.02,    19.01
      181.0,      18.22,    17.09,    19.87,    16.97,    18.95
      182.0,      18.16,    17.02,    19.82,    16.91,    18.89
      183.0,      18.10,    16.96,    19.76,    16.86,    18.83
      184.0,      18.04,    16.89,    19.70,    16.80,    18.77
      185.0,      17.99,    16.83,    19.65,    16.75,    18.72
      186.0,      17.93,    16.76,    19.60,    16.69,    18.66
      187.0,      17.87,    16.70,    19.54,    16.64,    18.60
      188.0,      17.82,    16.64,    19.49,    16.59,    18.55
      189.0,      17.76,    16.57,    19.43,    16.54,    18.49
      190.0,      17.70,    16.51,    19.38,    16.49,    18.43
      191.0,      17.65,    16.45,    19.33,    16.44,    18.38
      192.0,      17.59,    16.39,    19.28,    16.38,    18.32
      193.0,      17.54,    16.33,    19.22,    16.33,    18.27
      194.0,      17.48,    16.26,    19.17,    16.28,    18.22
      195.0,      17.43,    16.20,    19.12,    16.24,    18.16
      196.0,      17.38,    16.14,    19.07,    16.19,    18.11
      197.0,      17.32,    16.08,    19.02,    16.14,    18.05
      198.0,      17.27,    16.02,    18.97,    16.09,    18.00
      199.0,      17.22,    15.96,    18.92,    16.04,    17.95
      200.0,      17.16,    15.90,    18.87,    15.99,    17.90
      201.0,      17.11,    15.84,    18.82,    15.95,    17.85
      202.0,      17.06,    15.78,    18.77,    15.90,    17.79
      203.0,      17.01,    15.72,    18.72,    15.85,    17.74
      204.0,      16.96,    15.66,    18.67,    15.81,    17.69
      205.0,      16.91,    15.60,    18.62,    15.76,    17.64
      206.0,      16.86,    15.54,    18.57,    15.72,    17.59
      207.0,      16.80,    15.48,    18.52,    15.67,    17.54
      208.0,      16.75,    15.43,    18.47,    15.63,    17.49
      209.0,      16.70,    15.37,    18.42,    15.58,    17.44
      210.0,      16.66,    15.31,    18.38,    15.54,    17.40
      211.0,      16.61,    15.25,    18.33,    15.50,    17.35
      212.0,      16.56,    15.19,    18.28,    15.45,    17.30
      213.0,      16.51,    15.14,    18.24,    15.41,    17.25
      214.0,      16.46,    15.08,    18.19,    15.37,    17.20
      215.0,      16.41,    15.02,    18.14,    15.33,    17.16
      216.0,      16.36,    14.97,    18.10,    15.28,    17.11
      217.0,      16.32,    14.91,    18.05,    15.24,    17.06
      218.0,      16.27,    14.85,    18.00,    15.20,    17.02
      219.0,      16.22,    14.80,    17.96,    15.16,    16.97
      220.0,      16.18,    14.74,    17.91,    15.12,    16.92
      221.0,      16.13,    14.69,    17.87,    15.08,    16.88
      222.0,      16.08,    14.63,    17.82,    15.04,    16.83
      223.0,      16.04,    14.58,    17.78,    15.00,    16.79
      224.0,      15.99,    14.52,    17.73,    14.96,    16.74
      225.0,      15.94,    14.47,    17.69,    14.92,    16.70
      226.0,      15.90,    14.41,    17.65,    14.88,    16.66
      227.0,      15.85,    14.36,    17.60,    14.84,    16.61
      228.0,      15.81,    14.31,    17.56,    14.81,    16.57
      229.0,      15.76,    14.25,    17.51,    14.77,    16.53
      230.0,      15.72,    14.20,    17.47,    14.73,    16.48
      231.0,      15.68,    14.14,    17.43,    14.69,    16.44
      232.0,      15.63,    14.09,    17.38,    14.66,    16.40
      233.0,      15.59,    14.04,    17.34,    14.62,    16.36
      234.0,      15.55,    13.99,    17.30,    14.58,    16.31
      235.0,      15.50,    13.93,    17.26,    14.55,    16.27
      236.0,      15.46,    13.88,    17.22,    14.51,    16.23
      237.0,      15.42,    13.83,    17.17,    14.48,    16.19
      238.0,      15.37,    13.78,    17.13,    14.44,    16.15
      239.0,      15.33,    13.72,    17.09,    14.40,    16.11
      240.0,      15.29,    13.67,    17.05,    14.37,    16.07
      241.0,      15.25,    13.62,    17.01,    14.34,    16.03
      242.0,      15.21,    13.57,    16.97,    14.30,    15.99
      243.0,      15.16,    13.52,    16.93,    14.27,    15.95
      244.0,      15.12,    13.47,    16.88,    14.23,    15.91
      245.0,      15.08,    13.42,    16.84,    14.20,    15.87
      246.0,      15.04,    13.37,    16.80,    14.17,    15.83
      247.0,      15.00,    13.32,    16.76,    14.13,    15.79
      248.0,      14.96,    13.27,    16.72,    14.10,    15.75
      249.0,      14.92,    13.22,    16.68,    14.07,    15.72
      250.0,      14.88,    13.17,    16.64,    14.03,    15.68
      251.0,      14.84,    13.12,    16.60,    14.00,    15.64
      252.0,      14.80,    13.07,    16.56,    13.97,    15.60
      253.0,      14.76,    13.02,    16.52,    13.94,    15.57
      254.0,      14.72,    12.97,    16.49,    13.91,    15.53
      255.0,      14.68,    12.92,    16.45,    13.88,    15.49
      256.0,      14.65,    12.87,    16.41,    13.84,    15.45
      257.0,      14.61,    12.83,    16.37,    13.81,    15.42
      258.0,      14.57,    12.78,    16.33,    13.78,    15.38
      259.0,      14.53,    12.73,    16.29,    13.75,    15.35
      260.0,      14.49,    12.68,    16.25,    13.72,    15.31
      261.0,      14.45,    12.63,    16.22,    13.69,    15.27
      262.0,      14.42,    12.59,    16.18,    13.66,    15.24
      263.0,      14.38,    12.54,    16.14,    13.63,    15.20
      264.0,      14.34,    12.49,    16.10,    13.60,    15.17
      265.0,      14.30,    12.45,    16.07,    13.57,    15.13
      266.0,      14.27,    12.40,    16.03,    13.54,    15.10
      267.0,      14.23,    12.35,    15.99,    13.51,    15.07
      268.0,      14.19,    12.31,    15.95,    13.49,    15.03
      269.0,      14.16,    12.26,    15.92,    13.46,    15.00
      270.0,      14.12,    12.21,    15.88,    13.43,    14.96
      271.0,      14.09,    12.17,    15.84,    13.40,    14.93
      272.0,      14.05,    12.12,    15.81,    13.37,    14.90
      273.0,      14.01,    12.08,    15.77,    13.35,    14.86
      274.0,      13.98,    12.03,    15.73,    13.32,    14.83
      275.0,      13.94,    11.99,    15.70,    13.29,    14.80
      276.0,      13.91,    11.94,    15.66,    13.26,    14.77
      277.0,      13.87,    11.90,    15.63,    13.24,    14.73
      278.0,      13.84,    11.85,    15.59,    13.21,    14.70
      279.0,      13.80,    11.81,    15.55,    13.18,    14.67
      280.0,      13.77,    11.76,    15.52,    13.16,    14.64
      281.0,      13.73,    11.72,    15.48,    13.13,    14.61
      282.0,      13.70,    11.67,    15.45,    13.10,    14.57
      283.0,      13.67,    11.63,    15.41,    13.08,    14.54
      284.0,      13.63,    11.59,    15.38,    13.05,    14.51
      285.0,      13.60,    11.54,    15.34,    13.03,    14.48
      286.0,      13.56,    11.50,    15.31,    13.00,    14.45
      287.0,      13.53,    11.46,    15.27,    12.97,    14.42
      288.0,      13.50,    11.41,    15.24,    12.95,    14.39
      289.0,      13.46,    11.37,    15.20,    12.92,    14.36
      290.0,      13.43,    11.33,    15.17,    12.90,    14.33
      291.0,      13.40,    11.29,    15.14,    12.87,    14.30
      292.0,      13.37,    11.24,    15.10,    12.85,    14.27
      293.0,      13.33,    11.20,    15.07,    12.82,    14.24
      294.0,      13.30,    11.16,    15.03,    12.80,    14.21
      295.0,      13.27,    11.12,    15.00,    12.78,    14.18
      296.0,      13.24,    11.08,    14.97,    12.75,    14.15
      297.0,      13.20,    11.03,    14.93,    12.73,    14.12
      298.0,      13.17,    10.99,    14.90,    12.70,    14.09
      299.0,      13.14,    10.95,    14.87,    12.68,    14.06
      300.0,      13.11,    10.91,    14.83,    12.66,    14.04
      301.0,      13.08,    10.87,    14.80,    12.63,    14.01
      302.0,      13.05,    10.83,    14.77,    12.61,    13.98
      303.0,      13.01,    10.79,    14.73,    12.59,    13.95
      304.0,      12.98,    10.75,    14.70,    12.56,    13.92
      305.0,      12.95,    10.71,    14.67,    12.54,    13.89
      306.0,      12.92,    10.67,    14.63,    12.52,    13.87
      307.0,      12.89,    10.63,    14.60,    12.50,    13.84
      308.0,      12.86,    10.59,    14.57,    12.47,    13.81
      309.0,      12.83,    10.55,    14.54,    12.45,    13.78
      310.0,      12.80,    10.51,    14.50,    12.43,    13.76
