Radius (km), Mean (m/s), NE (m/s), SE (m/s), SW (m/s), NW (m/s)
        0.0,       0.00,     0.00,     0.00,     0.00,     0.00
        1.0,       1.85,     1.62,     1.62,     2.15,     2.00
        2.0,       3.10,     2.89,     2.89,     3.36,     3.27
        3.0,       4.20,     4.05,     4.05,     4.36,     4.35
        4.0,       5.22,     5.15,     5.15,     5.25,     5.33
        5.0,       6.18,     6.21,     6.21,     6.07,     6.24
        6.0,       7.09,     7.23,     7.23,     6.82,     7.10
        7.0,       7.97,     8.22,     8.22,     7.54,     7.92
        8.0,       8.82,     9.19,     9.19,     8.21,     8.70
        9.0,       9.65,    10.14,    10.14,     8.86,     9.46
       10.0,      10.45,    11.07,    11.07,     9.48,    10.19
       11.0,      11.24,    11.98,    11.98,    10.09,    10.90
       12.0,      12.01,    12.88,    12.88,    10.67,    11.59
       13.0,      12.76,    13.77,    13.77,    11.23,    12.27
       14.0,      13.50,    14.65,    14.65,    11.78,    12.93
       15.0,      14.23,    15.52,    15.52,    12.32,    13.57
       16.0,      14.95,    16.38,    16.38,    12.84,    14.21
       17.0,      15.66,    17.23,    17.23,    13.36,    14.83
       18.0,      16.36,    18.07,    18.07,    13.86,    15.44
       19.0,      17.05,    18.90,    18.90,    14.35,    16.04
       20.0,      17.73,    19.73,    19.73,    14.83,    16.63
       21.0,      18.41,    20.55,    20.55,    15.31,    17.22
       22.0,      19.07,    21.36,    21.36,    15.77,    17.79
       23.0,      19.73,    22.17,    22.17,    16.23,    18.36
       24.0,      20.39,    22.97,    22.97,    16.68,    18.92
       25.0,      21.03,    23.77,    23.77,    17.13,    19.47
       26.0,      21.68,    24.56,    24.56,    17.57,    20.02
       27.0,      22.31,    25.34,    25.34,    18.00,    20.56
       28.0,      22.94,    26.13,    26.13,    18.43,    21.10
       29.0,      23.58,    26.90,    26.91,    18.86,    21.64
       30.0,      24.23,    27.68,    27.71,    19.31,    22.22
       31.0,      24.92,    28.49,    28.57,    19.79,    22.85
       32.0,      25.68,    29.34,    29.51,    20.32,    23.55
       33.0,      26.51,    30.26,    30.56,    20.90,    24.33
       34.0,      27.41,    31.25,    31.71,    21.52,    25.16
       35.0,      28.35,    32.31,    32.92,    22.15,    26.02
       36.0,      29.29,    33.39,    34.13,    22.77,    26.86
       37.0,      30.17,    34.46,    35.28,    23.33,    27.62
       38.0,      30.94,    35.43,    36.28,    23.81,    28.24
       39.0,      31.56,    36.27,    37.07,    24.18,    28.71
       40.0,      31.98,    36.92,    37.60,    24.42,    28.98
       41.0,      32.20,    37.35,    37.86,    24.53,    29.07
       42.0,      32.22,    37.55,    37.85,    24.52,    28.97
       43.0,      32.07,    37.55,    37.60,    24.41,    28.74
       44.0,      31.79,    37.37,    37.17,    24.23,    28.40
       45.0,      31.42,    37.05,    36.63,    24.01,    28.00
       46.0,      31.00,    36.66,    36.02,    23.76,    27.57
       47.0,      30.58,    36.23,    35.40,    23.52,    27.15
       48.0,      30.16,    35.80,    34.81,    23.29,    26.74
       49.0,      29.77,    35.40,    34.26,    23.07,    26.36
       50.0,      29.41,    35.02,    33.74,    22.87,    26.00
       51.0,      29.06,    34.67,    33.26,    22.67,    25.66
       52.0,      28.73,    34.33,    32.79,    22.48,    25.32
       53.0,      28.41,    34.00,    32.34,    22.30,    25.00
       54.0,      28.09,    33.67,    31.90,    22.12,    24.69
       55.0,      27.79,    33.35,    31.48,    21.95,    24.38
       56.0,      27.49,    33.03,    31.07,    21.78,    24.09
       57.0,      27.20,    32.72,    30.68,    21.61,    23.81
       58.0,      26.92,    32.41,    30.30,    21.46,    23.53
       59.0,      26.65,    32.11,    29.93,    21.30,    23.27
       60.0,      26.39,    31.82,    29.57,    21.15,    23.01
       61.0,      26.13,    31.52,    29.23,    21.01,    22.76
       62.0,      25.88,    31.24,    28.90,    20.87,    22.52
       63.0,      25.64,    30.96,    28.57,    20.73,    22.28
       64.0,      25.40,    30.68,    28.26,    20.60,    22.06
       65.0,      25.17,    30.41,    27.96,    20.47,    21.84
       66.0,      24.94,    30.14,    27.67,    20.35,    21.62
       67.0,      24.72,    29.87,    27.39,    20.22,    21.42
       68.0,      24.51,    29.61,    27.11,    20.11,    21.22
       69.0,      24.30,    29.36,    26.85,    19.99,    21.02
       70.0,      24.10,    29.11,    26.59,    19.88,    20.83
       71.0,      23.90,    28.86,    26.34,    19.77,    20.65
       72.0,      23.71,    28.61,    26.10,    19.66,    20.47
       73.0,      23.52,    28.37,    25.86,    19.56,    20.30
       74.0,      23.34,    28.14,    25.64,    19.46,    20.14
       75.0,      23.16,    27.90,    25.42,    19.36,    19.97
       76.0,      22.99,    27.68,    25.20,    19.26,    19.82
       77.0,      22.82,    27.45,    24.99,    19.17,    19.67
       78.0,      22.65,    27.23,    24.79,    19.08,    19.52
       79.0,      22.49,    27.01,    24.60,    18.99,    19.37
       80.0,      22.33,    26.79,    24.40,    18.90,    19.24
       81.0,      22.18,    26.58,    24.22,    18.82,    19.10
       82.0,      22.03,    26.37,    24.04,    18.74,    18.97
       83.0,      21.88,    26.17,    23.86,    18.66,    18.84
       84.0,      21.74,    25.96,    23.69,    18.58,    18.72
       85.0,      21.60,    25.76,    23.53,    18.50,    18.60
       86.0,      21.46,    25.57,    23.37,    18.42,    18.48
       87.0,      21.32,    25.37,    23.21,    18.35,    18.36
       88.0,      21.19,    25.18,    23.06,    18.28,    18.25
       89.0,      21.06,    24.99,    22.91,    18.21,    18.15
       90.0,      20.94,    24.81,    22.76,    18.14,    18.04
       91.0,      20.81,    24.62,    22.62,    18.07,    17.94
       92.0,      20.69,    24.44,    22.48,    18.00,    17.84
       93.0,      20.57,    24.26,    22.35,    17.94,    17.74
       94.0,      20.46,    24.09,    22.21,    17.88,    17.65
       95.0,      20.34,    23.91,    22.08,    17.81,    17.56
       96.0,      20.23,    23.74,    21.96,    17.75,    17.47
       97.0,      20.12,    23.57,    21.84,    17.69,    17.38
       98.0,      20.01,    23.41,    21.72,    17.63,    17.30
       99.0,      19.91,    23.24,    21.60,    17.58,    17.21
      100.0,      19.80,    23.08,    21.48,    17.52,    17.13
      101.0,      19.70,    22.92,    21.37,    17.46,    17.05
      102.0,      19.60,    22.76,    21.26,    17.41,    16.98
      103.0,      19.50,    22.61,    21.15,    17.35,    16.90
      104.0,      19.41,    22.45,    21.05,    17.30,    16.83
      105.0,      19.31,    22.30,    20.94,    17.25,    16.76
      106.0,      19.22,    22.15,    20.84,    17.20,    16.69
      107.0,      19.13,    22.01,    20.74,    17.15,    16.62
      108.0,      19.04,    21.86,    20.65,    17.10,    16.56
      109.0,      18.95,    21.72,    20.55,    17.05,    16.49
      110.0,      18.86,    21.57,    20.46,    17.00,    16.43
      111.0,      18.78,    21.43,    20.36,    16.95,    16.36
      112.0,      18.69,    21.29,    20.27,    16.91,    16.30
      113.0,      18.61,    21.16,    20.19,    16.86,    16.24
      114.0,      18.53,    21.02,    20.10,    16.81,    16.19
      115.0,      18.45,    20.89,    20.01,    16.77,    16.13
      116.0,      18.37,    20.76,    19.93,    16.73,    16.07
      117.0,      18.29,    20.63,    19.85,    16.68,    16.02
      118.0,      18.22,    20.50,    19.76,    16.64,    15.97
      119.0,      18.14,    20.37,    19.68,    16.60,    15.91
      120.0,      18.07,    20.24,    19.60,    16.55,    15.86
      121.0,      17.99,    20.12,    19.53,    16.51,    15.81
      122.0,      17.92,    20.00,    19.45,    16.47,    15.76
      123.0,      17.85,    19.88,    19.37,    16.43,    15.71
      124.0,      17.78,    19.76,    19.30,    16.39,    15.67
      125.0,      17.71,    19.64,    19.22,    16.35,    15.62
      126.0,      17.64,    19.52,    19.15,    16.31,    15.57
      127.0,      17.57,    19.40,    19.08,    16.27,    15.53
      128.0,      17.50,    19.29,    19.01,    16.23,    15.49
      129.0,      17.44,    19.17,    18.94,    16.19,    15.44
      130.0,      17.37,    19.06,    18.87,    16.16,    15.40
      131.0,      17.31,    18.95,    18.80,    16.12,    15.36
      132.0,      17.24,    18.84,    18.73,    16.08,    15.32
      133.0,      17.18,    18.73,    18.67,    16.05,    15.28
      134.0,      17.12,    18.62,    18.60,    16.01,    15.24
      135.0,      17.06,    18.52,    18.54,    15.97,    15.20
      136.0,      17.00,    18.41,    18.47,    15.94,    15.16
      137.0,      16.93,    18.31,    18.41,    15.90,    15.12
      138.0,      16.88,    18.21,    18.35,    15.87,    15.08
      139.0,      16.82,    18.10,    18.28,    15.83,    15.04
      140.0,      16.76,    18.00,    18.22,    15.80,    15.01
      141.0,      16.70,    17.90,    18.16,    15.76,    14.97
      142.0,      16.64,    17.80,    18.10,    15.73,    14.94
      143.0,      16.59,    17.71,    18.04,    15.69,    14.90
      144.0,      16.53,    17.61,    17.98,    15.66,    14.87
      145.0,      16.47,    17.51,    17.92,    15.63,    14.83
      146.0,      16.42,    17.42,    17.86,    15.59,    14.80
      147.0,      16.36,    17.32,    17.81,    15.56,    14.77
      148.0,      16.31,    17.23,    17.75,    15.53,    14.73
      149.0,      16.26,    17.14,    17.69,    15.50,    14.70
      150.0,      16.20,    17.05,    17.64,    15.46,    14.67
      151.0,      16.15,    16.96,    17.58,    15.43,    14.64
      152.0,      16.10,    16.87,    17.52,    15.40,    14.61
      153.0,      16.05,    16.78,    17.47,    15.37,    14.57
      154.0,      16.00,    16.69,    17.41,    15.34,    14.54
      155.0,      15.94,    16.60,    17.36,    15.30,    14.51
      156.0,      15.89,    16.51,    17.31,    15.27,    14.48
      157.0,      15.84,    16.43,    17.25,    15.24,    14.45
      158.0,      15.79,    16.34,    17.20,    15.21,    14.42
      159.0,      15.75,    16.26,    17.15,    15.18,    14.39
      160.0,      15.70,    16.18,    17.09,    15.15,    14.37
      161.0,      15.65,    16.09,    17.04,    15.12,    14.34
      162.0,      15.60,    16.01,    16.99,    15.09,    14.31
      163.0,      15.55,    15.93,    16.94,    15.06,    14.28
      164.0,      15.50,    15.85,    16.89,    15.03,    14.25
      165.0,      15.46,    15.77,    16.84,    15.00,    14.23
      166.0,      15.41,    15.69,    16.79,    14.97,    14.20
      167.0,      15.36,    15.61,    16.74,    14.94,    14.17
      168.0,      15.32,    15.53,    16.69,    14.91,    14.14
      169.0,      15.27,    15.45,    16.64,    14.88,    14.12
      170.0,      15.23,    15.38,    16.59,    14.85,    14.09
      171.0,      15.18,    15.30,    16.54,    14.82,    14.06
      172.0,      15.14,    15.23,    16.49,    14.79,    14.04
      173.0,      15.09,    15.15,    16.44,    14.76,    14.01
      174.0,      15.05,    15.08,    16.39,    14.74,    13.99
      175.0,      15.00,    15.00,    16.34,    14.71,    13.96
      176.0,      14.96,    14.93,    16.30,    14.68,    13.94
      177.0,      14.92,    14.86,    16.25,    14.65,    13.91
      178.0,      14.87,    14.79,    16.20,    14.62,    13.88
      179.0,      14.83,    14.71,    16.15,    14.59,    13.86
      180.0,      14.79,    14.64,    16.11,    14.57,    13.83
      181.0,      14.75,    14.57,    16.06,    14.54,    13.81
      182.0,      14.70,    14.50,    16.01,    14.51,    13.79
      183.0,      14.66,    14.43,    15.97,    14.48,    13.76
      184.0,      14.62,    14.36,    15.92,    14.45,    13.74
      185.0,      14.58,    14.30,    15.88,    14.43,    13.71
      186.0,      14.54,    14.23,    15.83,    14.40,    13.69
      187.0,      14.50,    14.16,    15.78,    14.37,    13.67
      188.0,      14.45,    14.09,    15.74,    14.34,    13.64
      189.0,      14.41,    14.03,    15.69,    14.32,    13.62
      190.0,      14.37,    13.96,    15.65,    14.29,    13.59
      191.0,      14.33,    13.90,    15.60,    14.26,    13.57
      192.0,      14.29,    13.83,    15.56,    14.23,    13.55
      193.0,      14.25,    13.77,    15.52,    14.21,    13.52
      194.0,      14.21,    13.70,    15.47,    14.18,    13.50
      195.0,      14.17,    13.64,    15.43,    14.15,    13.48
      196.0,      14.14,    13.58,    15.38,    14.13,    13.46
      197.0,      14.10,    13.51,    15.34,    14.10,    13.43
      198.0,      14.06,    13.45,    15.30,    14.07,    13.41
      199.0,      14.02,    13.39,    15.25,    14.05,    13.39
      200.0,      13.98,    13.33,    15.21,    14.02,    13.37
      201.0,      13.94,    13.27,    15.17,    13.99,    13.34
      202.0,      13.90,    13.21,    15.12,    13.97,    13.32
      203.0,      13.87,    13.15,    15.08,    13.94,    13.30
      204.0,      13.83,    13.09,    15.04,    13.91,    13.28
      205.0,      13.79,    13.03,    15.00,    13.89,    13.25
      206.0,      13.75,    12.97,    14.95,    13.86,    13.23
      207.0,      13.72,    12.91,    14.91,    13.84,    13.21
      208.0,      13.68,    12.85,    14.87,    13.81,    13.19
      209.0,      13.64,    12.79,    14.83,    13.78,    13.17
      210.0,      13.61,    12.74,    14.79,    13.76,    13.15
      211.0,      13.57,    12.68,    14.74,    13.73,    13.12
      212.0,      13.53,    12.62,    14.70,    13.71,    13.10
      213.0,      13.50,    12.56,    14.66,    13.68,    13.08
      214.0,      13.46,    12.51,    14.62,    13.66,    13.06
      215.0,      13.42,    12.45,    14.58,    13.63,    13.04
      216.0,      13.39,    12.40,    14.54,    13.60,    13.02
      217.0,      13.35,    12.34,    14.50,    13.58,    13.00
      218.0,      13.32,    12.29,    14.46,    13.55,    12.97
      219.0,      13.28,    12.23,    14.42,    13.53,    12.95
      220.0,      13.25,    12.18,    14.38,    13.50,    12.93
      221.0,      13.21,    12.12,    14.34,    13.48,    12.91
      222.0,      13.18,    12.07,    14.30,    13.45,    12.89
      223.0,      13.14,    12.02,    14.26,    13.43,    12.87
      224.0,      13.11,    11.96,    14.22,    13.40,    12.85
      225.0,      13.07,    11.91,    14.18,    13.38,    12.83
      226.0,      13.04,    11.86,    14.14,    13.35,    12.81
      227.0,      13.00,    11.81,    14.10,    13.33,    12.79
      228.0,      12.97,    11.76,    14.06,    13.30,    12.77
      229.0,      12.94,    11.70,    14.02,    13.28,    12.75
      230.0,      12.90,    11.65,    13.98,    13.25,    12.73
      231.0,      12.87,    11.60,    13.94,    13.23,    12.70
      232.0,      12.84,    11.55,    13.90,    13.20,    12.68
      233.0,      12.80,    11.50,    13.86,    13.18,    12.66
      234.0,      12.77,    11.45,    13.82,    13.16,    12.64
      235.0,      12.74,    11.40,    13.79,    13.13,    12.62
      236.0,      12.70,    11.35,    13.75,    13.11,    12.60
      237.0,      12.67,    11.30,    13.71,    13.08,    12.58
      238.0,      12.64,    11.25,    13.67,    13.06,    12.56
      239.0,      12.60,    11.21,    13.63,    13.03,    12.54
      240.0,      12.57,    11.16,    13.60,    13.01,    12.52
      241.0,      12.54,    11.11,    13.56,    12.99,    12.50
      242.0,      12.51,    11.06,    13.52,    12.96,    12.48
      243.0,      12.47,    11.01,    13.48,    12.94,    12.46
      244.0,      12.44,    10.97,    13.44,    12.91,    12.44
      245.0,      12.41,    10.92,    13.41,    12.89,    12.42
      246.0,      12.38,    10.87,    13.37,    12.87,    12.40
      247.0,      12.35,    10.83,    13.33,    12.84,    12.38
      248.0,      12.31,    10.78,    13.30,    12.82,    12.37
      249.0,      12.28,    10.73,    13.26,    12.79,    12.35
      250.0,      12.25,    10.69,    13.22,    12.77,    12.33
      251.0,      12.22,    10.64,    13.19,    12.75,    12.31
      252.0,      12.19,    10.60,    13.15,    12.72,    12.29
      253.0,      12.16,    10.55,    13.11,    12.70,    12.27
      254.0,      12.13,    10.51,    13.08,    12.68,    12.25
      255.0,      12.10,    10.46,    13.04,    12.65,    12.23
      256.0,      12.06,    10.42,    13.00,    12.63,    12.21
      257.0,      12.03,    10.37,    12.97,    12.61,    12.19
      258.0,      12.00,    10.33,    12.93,    12.58,    12.17
      259.0,      11.97,    10.29,    12.90,    12.56,    12.15
      260.0,      11.94,    10.24,    12.86,    12.54,    12.13
      261.0,      11.91,    10.20,    12.82,    12.51,    12.11
      262.0,      11.88,    10.16,    12.79,    12.49,    12.09
      263.0,      11.85,    10.11,    12.75,    12.47,    12.08
      264.0,      11.82,    10.07,    12.72,    12.44,    12.06
      265.0,      11.79,    10.03,    12.68,    12.42,    12.04
      266.0,      11.76,     9.98,    12.65,    12.40,    12.02
      267.0,      11.73,     9.94,    12.61,    12.37,    12.00
      268.0,      11.70,     9.90,    12.58,    12.35,    11.98
      269.0,      11.67,     9.86,    12.54,    12.33,    11.96
      270.0,      11.64,     9.82,    12.51,    12.30,    11.94
      271.0,      11.61,     9.78,    12.47,    12.28,    11.92
      272.0,      11.58,     9.74,    12.44,    12.26,    11.91
      273.0,      11.56,     9.69,    12.40,    12.24,    11.89
      274.0,      11.53,     9.65,    12.37,    12.21,    11.87
      275.0,      11.50,     9.61,    12.33,    12.19,    11.85
      276.0,      11.47,     9.57,    12.30,    12.17,    11.83
      277.0,      11.44,     9.53,    12.27,    12.15,    11.81
      278.0,      11.41,     9.49,    12.23,    12.12,    11.79
      279.0,      11.38,     9.45,    12.20,    12.10,    11.78
      280.0,      11.35,     9.41,    12.16,    12.08,    11.76
      281.0,      11.33,     9.37,    12.13,    12.06,    11.74
      282.0,      11.30,     9.34,    12.10,    12.03,    11.72
      283.0,      11.27,     9.30,    12.06,    12.01,    11.70
      284.0,      11.24,     9.26,    12.03,    11.99,    11.68
      285.0,      11.21,     9.22,    12.00,    11.97,    11.66
      286.0,      11.18,     9.18,    11.96,    11.95,    11.65
      287.0,      11.16,     9.14,    11.93,    11.92,    11.63
      288.0,      11.13,     9.10,    11.90,    11.90,    11.61
      289.0,      11.10,     9.07,    11.86,    11.88,    11.59
      290.0,      11.07,     9.03,    11.83,    11.86,    11.57
      291.0,      11.05,     8.99,    11.80,    11.84,    11.56
      292.0,      11.02,     8.95,    11.77,    11.81,    11.54
      293.0,      10.99,     8.92,    11.73,    11.79,    11.52
      294.0,      10.96,     8.88,    11.70,    11.77,    11.50
      295.0,      10.94,     8.84,    11.67,    11.75,    11.48
      296.0,      10.91,     8.81,    11.64,    11.73,    11.47
      297.0,      10.88,     8.77,    11.60,    11.70,    11.45
      298.0,      10.85,     8.73,    11.57,    11.68,    11.43
      299.0,      10.83,     8.70,    11.54,    11.66,    11.41
      300.0,      10.80,     8.66,    11.51,    11.64,    11.39
      301.0,      10.77,     8.63,    11.48,    11.62,    11.38
      302.0,      10.75,     8.59,    11.44,    11.60,    11.36
      303.0,      10.72,     8.55,    11.41,    11.58,    11.34
      304.0,      10.69,     8.52,    11.38,    11.55,    11.32
      305.0,      10.67,     8.48,    11.35,    11.53,    11.30
      306.0,      10.64,     8.45,    11.32,    11.51,    11.29
      307.0,      10.61,     8.41,    11.29,    11.49,    11.27
      308.0,      10.59,     8.38,    11.26,    11.47,    11.25
      309.0,      10.56,     8.34,    11.22,    11.45,    11.23
      310.0,      10.54,     8.31,    11.19,    11.43,    11.22
