Radius (km), Mean (m/s), NE (m/s), SE (m/s), SW (m/s), NW (m/s)
        0.0,       0.00,     0.00,     0.00,     0.00,     0.00
        1.0,       2.02,     2.03,     2.01,     2.01,     2.03
        2.0,       3.79,     3.80,     3.78,     3.78,     3.80
        3.0,       5.47,     5.48,     5.46,     5.46,     5.48
        4.0,       7.09,     7.10,     7.09,     7.09,     7.10
        5.0,       8.68,     8.69,     8.68,     8.68,     8.69
        6.0,      10.24,    10.24,    10.24,    10.24,    10.24
        7.0,      11.77,    11.77,    11.78,    11.78,    11.77
        8.0,      13.29,    13.27,    13.30,    13.30,    13.27
        9.0,      14.78,    14.76,    14.80,    14.80,    14.76
       10.0,      16.26,    16.24,    16.28,    16.28,    16.24
       11.0,      17.72,    17.69,    17.76,    17.76,    17.69
       12.0,      19.18,    19.14,    19.21,    19.21,    19.14
       13.0,      20.62,    20.58,    20.66,    20.66,    20.58
       14.0,      22.08,    22.02,    22.12,    22.13,    22.06
       15.0,      23.61,    23.53,    23.63,    23.65,    23.63
       16.0,      25.26,    25.17,    25.24,    25.29,    25.36
       17.0,      27.09,    26.98,    27.01,    27.10,    27.28
       18.0,      29.11,    28.99,    28.96,    29.11,    29.40
       19.0,      31.30,    31.17,    31.07,    31.29,    31.67
       20.0,      33.58,    33.45,    33.29,    33.58,    34.00
       21.0,      35.86,    35.74,    35.52,    35.88,    36.29
       22.0,      38.00,    37.90,    37.64,    38.05,    38.41
       23.0,      39.90,    39.82,    39.56,    39.99,    40.24
       24.0,      41.45,    41.38,    41.16,    41.58,    41.70
       25.0,      42.60,    42.53,    42.37,    42.76,    42.73
       26.0,      43.31,    43.24,    43.17,    43.50,    43.33
       27.0,      43.61,    43.51,    43.57,    43.81,    43.53
       28.0,      43.54,    43.42,    43.61,    43.75,    43.40
       29.0,      43.21,    43.04,    43.37,    43.40,    43.03
       30.0,      42.69,    42.46,    42.93,    42.86,    42.49
       31.0,      42.07,    41.78,    42.39,    42.21,    41.89
       32.0,      41.42,    41.08,    41.81,    41.53,    41.27
       33.0,      40.79,    40.39,    41.25,    40.86,    40.68
       34.0,      40.20,    39.74,    40.71,    40.23,    40.11
       35.0,      39.64,    39.13,    40.21,    39.64,    39.58
       36.0,      39.11,    38.55,    39.73,    39.08,    39.07
       37.0,      38.60,    37.99,    39.27,    38.54,    38.58
       38.0,      38.10,    37.45,    38.83,    38.02,    38.10
       39.0,      37.62,    36.93,    38.40,    37.52,    37.65
       40.0,      37.16,    36.43,    37.99,    37.03,    37.21
       41.0,      36.72,    35.95,    37.59,    36.57,    36.78
       42.0,      36.29,    35.48,    37.20,    36.11,    36.37
       43.0,      35.88,    35.03,    36.83,    35.68,    35.98
       44.0,      35.48,    34.60,    36.46,    35.26,    35.60
       45.0,      35.09,    34.18,    36.11,    34.85,    35.23
       46.0,      34.72,    33.78,    35.77,    34.46,    34.88
       47.0,      34.36,    33.39,    35.45,    34.08,    34.53
       48.0,      34.02,    33.01,    35.13,    33.72,    34.20
       49.0,      33.68,    32.65,    34.82,    33.37,    33.89
       50.0,      33.36,    32.30,    34.52,    33.03,    33.58
       51.0,      33.04,    31.96,    34.23,    32.70,    33.28
       52.0,      32.74,    31.63,    33.95,    32.38,    32.99
       53.0,      32.45,    31.32,    33.68,    32.07,    32.72
       54.0,      32.16,    31.01,    33.42,    31.77,    32.45
       55.0,      31.89,    30.72,    33.16,    31.48,    32.19
       56.0,      31.62,    30.43,    32.91,    31.21,    31.94
       57.0,      31.37,    30.16,    32.67,    30.94,    31.70
       58.0,      31.12,    29.89,    32.44,    30.68,    31.47
       59.0,      30.88,    29.63,    32.21,    30.42,    31.24
       60.0,      30.65,    29.38,    31.99,    30.18,    31.02
       61.0,      30.42,    29.14,    31.78,    29.94,    30.81
       62.0,      30.20,    28.91,    31.57,    29.71,    30.61
       63.0,      29.99,    28.68,    31.37,    29.49,    30.41
       64.0,      29.78,    28.47,    31.17,    29.28,    30.22
       65.0,      29.58,    28.25,    30.98,    29.07,    30.03
       66.0,      29.39,    28.05,    30.80,    28.87,    29.85
       67.0,      29.20,    27.85,    30.62,    28.67,    29.68
       68.0,      29.02,    27.66,    30.44,    28.48,    29.51
       69.0,      28.85,    27.47,    30.27,    28.30,    29.35
       70.0,      28.67,    27.29,    30.10,    28.12,    29.19
       71.0,      28.51,    27.12,    29.94,    27.94,    29.04
       72.0,      28.35,    26.95,    29.78,    27.78,    28.89
       73.0,      28.19,    26.78,    29.62,    27.61,    28.74
       74.0,      28.04,    26.62,    29.47,    27.45,    28.60
       75.0,      27.89,    26.46,    29.32,    27.30,    28.47
       76.0,      27.74,    26.31,    29.18,    27.15,    28.34
       77.0,      27.60,    26.17,    29.04,    27.00,    28.21
       78.0,      27.47,    26.02,    28.90,    26.86,    28.08
       79.0,      27.33,    25.89,    28.77,    26.72,    27.96
       80.0,      27.20,    25.75,    28.63,    26.58,    27.84
       81.0,      27.08,    25.62,    28.51,    26.45,    27.73
       82.0,      26.95,    25.49,    28.38,    26.32,    27.62
       83.0,      26.83,    25.37,    28.26,    26.20,    27.51
       84.0,      26.72,    25.25,    28.14,    26.08,    27.40
       85.0,      26.60,    25.13,    28.02,    25.96,    27.30
       86.0,      26.49,    25.01,    27.90,    25.84,    27.20
       87.0,      26.38,    24.90,    27.79,    25.73,    27.10
       88.0,      26.27,    24.79,    27.68,    25.62,    27.01
       89.0,      26.17,    24.69,    27.57,    25.51,    26.91
       90.0,      26.07,    24.58,    27.46,    25.41,    26.82
       91.0,      25.97,    24.48,    27.36,    25.30,    26.74
       92.0,      25.87,    24.38,    27.25,    25.20,    26.65
       93.0,      25.78,    24.29,    27.15,    25.10,    26.57
       94.0,      25.68,    24.19,    27.05,    25.01,    26.48
       95.0,      25.59,    24.10,    26.95,    24.91,    26.40
       96.0,      25.50,    24.01,    26.86,    24.82,    26.32
       97.0,      25.42,    23.92,    26.76,    24.73,    26.25
       98.0,      25.33,    23.84,    26.67,    24.64,    26.17
       99.0,      25.25,    23.75,    26.58,    24.56,    26.10
      100.0,      25.16,    23.67,    26.49,    24.47,    26.03
      101.0,      25.08,    23.59,    26.40,    24.39,    25.95
      102.0,      25.00,    23.51,    26.31,    24.31,    25.89
      103.0,      24.92,    23.43,    26.23,    24.22,    25.82
      104.0,      24.85,    23.35,    26.14,    24.15,    25.75
      105.0,      24.77,    23.28,    26.06,    24.07,    25.69
      106.0,      24.70,    23.21,    25.97,    23.99,    25.62
      107.0,      24.63,    23.13,    25.89,    23.92,    25.56
      108.0,      24.55,    23.06,    25.81,    23.84,    25.50
      109.0,      24.48,    22.99,    25.73,    23.77,    25.44
      110.0,      24.41,    22.92,    25.65,    23.70,    25.38
      111.0,      24.35,    22.86,    25.58,    23.63,    25.32
      112.0,      24.28,    22.79,    25.50,    23.56,    25.26
      113.0,      24.21,    22.73,    25.42,    23.49,    25.20
      114.0,      24.15,    22.66,    25.35,    23.43,    25.15
      115.0,      24.08,    22.60,    25.27,    23.36,    25.09
      116.0,      24.02,    22.54,    25.20,    23.29,    25.04
      117.0,      23.96,    22.48,    25.13,    23.23,    24.99
      118.0,      23.89,    22.42,    25.06,    23.17,    24.93
      119.0,      23.83,    22.36,    24.99,    23.10,    24.88
      120.0,      23.77,    22.30,    24.92,    23.04,    24.83
      121.0,      23.71,    22.24,    24.85,    22.98,    24.78
      122.0,      23.65,    22.18,    24.78,    22.92,    24.73
      123.0,      23.59,    22.13,    24.71,    22.86,    24.68
      124.0,      23.54,    22.07,    24.64,    22.80,    24.63
      125.0,      23.48,    22.02,    24.57,    22.75,    24.58
      126.0,      23.42,    21.96,    24.51,    22.69,    24.54
      127.0,      23.37,    21.91,    24.44,    22.63,    24.49
      128.0,      23.31,    21.86,    24.38,    22.57,    24.44
      129.0,      23.26,    21.80,    24.31,    22.52,    24.40
      130.0,      23.20,    21.75,    24.25,    22.46,    24.35
      131.0,      23.15,    21.70,    24.18,    22.41,    24.31
      132.0,      23.10,    21.65,    24.12,    22.36,    24.26
      133.0,      23.04,    21.60,    24.06,    22.30,    24.22
      134.0,      22.99,    21.55,    23.99,    22.25,    24.18
      135.0,      22.94,    21.50,    23.93,    22.20,    24.13
      136.0,      22.89,    21.45,    23.87,    22.14,    24.09
      137.0,      22.84,    21.41,    23.81,    22.09,    24.05
      138.0,      22.79,    21.36,    23.75,    22.04,    24.01
      139.0,      22.74,    21.31,    23.69,    21.99,    23.97
      140.0,      22.69,    21.26,    23.63,    21.94,    23.92
      141.0,      22.64,    21.22,    23.57,    21.89,    23.88
      142.0,      22.59,    21.17,    23.51,    21.84,    23.84
      143.0,      22.54,    21.13,    23.45,    21.79,    23.80
      144.0,      22.49,    21.08,    23.39,    21.74,    23.76
      145.0,      22.45,    21.04,    23.33,    21.70,    23.72
      146.0,      22.40,    20.99,    23.27,    21.65,    23.68
      147.0,      22.35,    20.95,    23.22,    21.60,    23.65
      148.0,      22.31,    20.90,    23.16,    21.55,    23.61
      149.0,      22.26,    20.86,    23.10,    21.50,    23.57
      150.0,      22.21,    20.82,    23.05,    21.46,    23.53
      151.0,      22.17,    20.77,    22.99,    21.41,    23.49
      152.0,      22.12,    20.73,    22.93,    21.36,    23.45
      153.0,      22.08,    20.69,    22.88,    21.32,    23.42
      154.0,      22.03,    20.64,    22.82,    21.27,    23.38
      155.0,      21.98,    20.60,    22.77,    21.23,    23.34
      156.0,      21.94,    20.56,    22.71,    21.18,    23.31
      157.0,      21.90,    20.52,    22.66,    21.14,    23.27
      158.0,      21.85,    20.48,    22.60,    21.09,    23.23
      159.0,      21.81,    20.44,    22.55,    21.05,    23.20
      160.0,      21.76,    20.40,    22.49,    21.00,    23.16
      161.0,      21.72,    20.35,    22.44,    20.96,    23.12
      162.0,      21.68,    20.31,    22.39,    20.92,    23.09
      163.0,      21.63,    20.27,    22.33,    20.87,    23.05
      164.0,      21.59,    20.23,    22.28,    20.83,    23.02
      165.0,      21.55,    20.19,    22.23,    20.79,    22.98
      166.0,      21.50,    20.15,    22.17,    20.74,    22.95
      167.0,      21.46,    20.12,    22.12,    20.70,    22.91
      168.0,      21.42,    20.08,    22.07,    20.66,    22.88
      169.0,      21.38,    20.04,    22.02,    20.61,    22.84
      170.0,      21.34,    20.00,    21.96,    20.57,    22.81
      171.0,      21.29,    19.96,    21.91,    20.53,    22.77
      172.0,      21.25,    19.92,    21.86,    20.49,    22.74
      173.0,      21.21,    19.88,    21.81,    20.45,    22.70
      174.0,      21.17,    19.84,    21.76,    20.40,    22.67
      175.0,      21.13,    19.81,    21.71,    20.36,    22.64
      176.0,      21.09,    19.77,    21.66,    20.32,    22.60
      177.0,      21.05,    19.73,    21.61,    20.28,    22.57
      178.0,      21.01,    19.69,    21.55,    20.24,    22.54
      179.0,      20.96,    19.65,    21.50,    20.20,    22.50
      180.0,      20.92,    19.62,    21.45,    20.16,    22.47
      181.0,      20.88,    19.58,    21.40,    20.12,    22.44
      182.0,      20.84,    19.54,    21.35,    20.08,    22.40
      183.0,      20.80,    19.50,    21.30,    20.04,    22.37
      184.0,      20.76,    19.47,    21.25,    20.00,    22.34
      185.0,      20.72,    19.43,    21.21,    19.95,    22.30
      186.0,      20.68,    19.39,    21.16,    19.91,    22.27
      187.0,      20.64,    19.36,    21.11,    19.88,    22.24
      188.0,      20.60,    19.32,    21.06,    19.84,    22.21
      189.0,      20.57,    19.28,    21.01,    19.80,    22.17
      190.0,      20.53,    19.25,    20.96,    19.76,    22.14
      191.0,      20.49,    19.21,    20.91,    19.72,    22.11
      192.0,      20.45,    19.18,    20.86,    19.68,    22.08
      193.0,      20.41,    19.14,    20.81,    19.64,    22.04
      194.0,      20.37,    19.10,    20.77,    19.60,    22.01
      195.0,      20.33,    19.07,    20.72,    19.56,    21.98
      196.0,      20.29,    19.03,    20.67,    19.52,    21.95
      197.0,      20.25,    19.00,    20.62,    19.48,    21.92
      198.0,      20.22,    18.96,    20.58,    19.44,    21.88
      199.0,      20.18,    18.93,    20.53,    19.41,    21.85
      200.0,      20.14,    18.89,    20.48,    19.37,    21.82
      201.0,      20.10,    18.86,    20.43,    19.33,    21.79
      202.0,      20.06,    18.82,    20.39,    19.29,    21.76
      203.0,      20.03,    18.79,    20.34,    19.25,    21.73
      204.0,      19.99,    18.75,    20.29,    19.21,    21.69
      205.0,      19.95,    18.72,    20.25,    19.18,    21.66
      206.0,      19.91,    18.68,    20.20,    19.14,    21.63
      207.0,      19.88,    18.65,    20.15,    19.10,    21.60
      208.0,      19.84,    18.61,    20.11,    19.06,    21.57
      209.0,      19.80,    18.58,    20.06,    19.03,    21.54
      210.0,      19.76,    18.54,    20.01,    18.99,    21.51
      211.0,      19.73,    18.51,    19.97,    18.95,    21.48
      212.0,      19.69,    18.47,    19.92,    18.91,    21.45
      213.0,      19.65,    18.44,    19.88,    18.88,    21.41
      214.0,      19.61,    18.41,    19.83,    18.84,    21.38
      215.0,      19.58,    18.37,    19.78,    18.80,    21.35
      216.0,      19.54,    18.34,    19.74,    18.77,    21.32
      217.0,      19.50,    18.30,    19.69,    18.73,    21.29
      218.0,      19.47,    18.27,    19.65,    18.69,    21.26
      219.0,      19.43,    18.24,    19.60,    18.66,    21.23
      220.0,      19.40,    18.20,    19.56,    18.62,    21.20
      221.0,      19.36,    18.17,    19.51,    18.58,    21.17
      222.0,      19.32,    18.14,    19.47,    18.55,    21.14
      223.0,      19.29,    18.10,    19.42,    18.51,    21.11
      224.0,      19.25,    18.07,    19.38,    18.47,    21.08
      225.0,      19.21,    18.04,    19.34,    18.44,    21.05
      226.0,      19.18,    18.00,    19.29,    18.40,    21.02
      227.0,      19.14,    17.97,    19.25,    18.36,    20.99
      228.0,      19.11,    17.94,    19.20,    18.33,    20.96
      229.0,      19.07,    17.90,    19.16,    18.29,    20.93
      230.0,      19.04,    17.87,    19.12,    18.26,    20.90
      231.0,      19.00,    17.84,    19.07,    18.22,    20.87
      232.0,      18.96,    17.81,    19.03,    18.19,    20.84
      233.0,      18.93,    17.77,    18.98,    18.15,    20.81
      234.0,      18.89,    17.74,    18.94,    18.11,    20.78
      235.0,      18.86,    17.71,    18.90,    18.08,    20.75
      236.0,      18.82,    17.68,    18.85,    18.04,    20.72
      237.0,      18.79,    17.64,    18.81,    18.01,    20.69
      238.0,      18.75,    17.61,    18.77,    17.97,    20.66
      239.0,      18.72,    17.58,    18.73,    17.94,    20.63
      240.0,      18.68,    17.55,    18.68,    17.90,    20.60
      241.0,      18.65,    17.51,    18.64,    17.87,    20.57
      242.0,      18.61,    17.48,    18.60,    17.83,    20.54
      243.0,      18.58,    17.45,    18.55,    17.80,    20.51
      244.0,      18.54,    17.42,    18.51,    17.76,    20.49
      245.0,      18.51,    17.39,    18.47,    17.73,    20.46
      246.0,      18.48,    17.35,    18.43,    17.69,    20.43
      247.0,      18.44,    17.32,    18.39,    17.66,    20.40
      248.0,      18.41,    17.29,    18.34,    17.63,    20.37
      249.0,      18.37,    17.26,    18.30,    17.59,    20.34
      250.0,      18.34,    17.23,    18.26,    17.56,    20.31
      251.0,      18.30,    17.20,    18.22,    17.52,    20.28
      252.0,      18.27,    17.16,    18.18,    17.49,    20.25
      253.0,      18.24,    17.13,    18.13,    17.45,    20.22
      254.0,      18.20,    17.10,    18.09,    17.42,    20.20
      255.0,      18.17,    17.07,    18.05,    17.39,    20.17
      256.0,      18.14,    17.04,    18.01,    17.35,    20.14
      257.0,      18.10,    17.01,    17.97,    17.32,    20.11
      258.0,      18.07,    16.98,    17.93,    17.29,    20.08
      259.0,      18.03,    16.95,    17.89,    17.25,    20.05
      260.0,      18.00,    16.91,    17.85,    17.22,    20.02
      261.0,      17.97,    16.88,    17.81,    17.18,    19.99
      262.0,      17.93,    16.85,    17.77,    17.15,    19.97
      263.0,      17.90,    16.82,    17.72,    17.12,    19.94
      264.0,      17.87,    16.79,    17.68,    17.08,    19.91
      265.0,      17.83,    16.76,    17.64,    17.05,    19.88
      266.0,      17.80,    16.73,    17.60,    17.02,    19.85
      267.0,      17.77,    16.70,    17.56,    16.98,    19.82
      268.0,      17.74,    16.67,    17.52,    16.95,    19.80
      269.0,      17.70,    16.64,    17.48,    16.92,    19.77
      270.0,      17.67,    16.61,    17.44,    16.89,    19.74
      271.0,      17.64,    16.58,    17.40,    16.85,    19.71
      272.0,      17.60,    16.55,    17.36,    16.82,    19.68
      273.0,      17.57,    16.52,    17.32,    16.79,    19.66
      274.0,      17.54,    16.49,    17.28,    16.75,    19.63
      275.0,      17.51,    16.46,    17.25,    16.72,    19.60
      276.0,      17.47,    16.43,    17.21,    16.69,    19.57
      277.0,      17.44,    16.40,    17.17,    16.66,    19.54
      278.0,      17.41,    16.37,    17.13,    16.62,    19.52
      279.0,      17.38,    16.34,    17.09,    16.59,    19.49
      280.0,      17.34,    16.31,    17.05,    16.56,    19.46
      281.0,      17.31,    16.28,    17.01,    16.53,    19.43
      282.0,      17.28,    16.25,    16.97,    16.50,    19.41
      283.0,      17.25,    16.22,    16.93,    16.46,    19.38
      284.0,      17.22,    16.19,    16.89,    16.43,    19.35
      285.0,      17.18,    16.16,    16.86,    16.40,    19.32
      286.0,      17.15,    16.13,    16.82,    16.37,    19.30
      287.0,      17.12,    16.10,    16.78,    16.34,    19.27
      288.0,      17.09,    16.07,    16.74,    16.30,    19.24
      289.0,      17.06,    16.04,    16.70,    16.27,    19.21
      290.0,      17.03,    16.01,    16.66,    16.24,    19.19
      291.0,      16.99,    15.98,    16.63,    16.21,    19.16
      292.0,      16.96,    15.95,    16.59,    16.18,    19.13
      293.0,      16.93,    15.92,    16.55,    16.15,    19.10
      294.0,      16.90,    15.89,    16.51,    16.11,    19.08
      295.0,      16.87,    15.87,    16.47,    16.08,    19.05
      296.0,      16.84,    15.84,    16.44,    16.05,    19.02
      297.0,      16.81,    15.81,    16.40,    16.02,    19.00
      298.0,      16.77,    15.78,    16.36,    15.99,    18.97
      299.0,      16.74,    15.75,    16.33,    15.96,    18.94
      300.0,      16.71,    15.72,    16.29,    15.93,    18.92
      301.0,      16.68,    15.69,    16.25,    15.90,    18.89
      302.0,      16.65,    15.66,    16.21,    15.86,    18.86
      303.0,      16.62,    15.64,    16.18,    15.83,    18.84
      304.0,      16.59,    15.61,    16.14,    15.80,    18.81
      305.0,      16.56,    15.58,    16.10,    15.77,    18.78
      306.0,      16.53,    15.55,    16.07,    15.74,    18.76
      307.0,      16.50,    15.52,    16.03,    15.71,    18.73
      308.0,      16.47,    15.49,    15.99,    15.68,    18.70
      309.0,      16.44,    15.46,    15.96,    15.65,    18.68
      310.0,      16.41,    15.44,    15.92,    15.62,    18.65
