Radius (km), Mean (m/s), NE (m/s), SE (m/s), SW (m/s), NW (m/s)
        0.0,       0.00,     0.00,     0.00,     0.00,     0.00
        1.0,       2.01,     1.81,     1.81,     2.20,     2.20
        2.0,       3.44,     3.26,     3.26,     3.63,     3.63
        3.0,       4.73,     4.59,     4.59,     4.86,     4.86
        4.0,       5.92,     5.85,     5.85,     5.99,     5.99
        5.0,       7.05,     7.07,     7.07,     7.03,     7.03
        6.0,       8.14,     8.25,     8.25,     8.03,     8.03
        7.0,       9.18,     9.39,     9.39,     8.97,     8.97
        8.0,      10.20,    10.51,    10.51,     9.88,     9.88
        9.0,      11.19,    11.61,    11.61,    10.76,    10.76
       10.0,      12.15,    12.70,    12.70,    11.61,    11.61
       11.0,      13.10,    13.76,    13.76,    12.44,    12.44
       12.0,      14.03,    14.81,    14.81,    13.25,    13.25
       13.0,      14.94,    15.85,    15.85,    14.04,    14.04
       14.0,      15.84,    16.87,    16.87,    14.81,    14.81
       15.0,      16.73,    17.88,    17.88,    15.57,    15.57
       16.0,      17.60,    18.88,    18.88,    16.31,    16.31
       17.0,      18.46,    19.88,    19.88,    17.05,    17.05
       18.0,      19.31,    20.86,    20.86,    17.77,    17.77
       19.0,      20.15,    21.83,    21.83,    18.47,    18.47
       20.0,      20.99,    22.80,    22.80,    19.17,    19.17
       21.0,      21.81,    23.76,    23.76,    19.86,    19.86
       22.0,      22.63,    24.71,    24.72,    20.54,    20.56
       23.0,      23.46,    25.66,    25.69,    21.22,    21.28
       24.0,      24.33,    26.63,    26.73,    21.90,    22.05
       25.0,      25.25,    27.66,    27.86,    22.62,    22.88
       26.0,      26.26,    28.76,    29.11,    23.38,    23.78
       27.0,      27.34,    29.98,    30.49,    24.19,    24.73
       28.0,      28.50,    31.29,    31.96,    25.04,    25.70
       29.0,      29.67,    32.67,    33.45,    25.92,    26.65
       30.0,      30.82,    34.05,    34.90,    26.78,    27.54
       31.0,      31.87,    35.35,    36.20,    27.60,    28.32
       32.0,      32.78,    36.51,    37.29,    28.34,    28.97
       33.0,      33.49,    37.44,    38.10,    28.95,    29.46
       34.0,      33.98,    38.10,    38.60,    29.41,    29.79
       35.0,      34.24,    38.47,    38.80,    29.73,    29.96
       36.0,      34.29,    38.56,    38.71,    29.90,    30.00
       37.0,      34.17,    38.39,    38.39,    29.94,    29.94
       38.0,      33.91,    38.02,    37.92,    29.89,    29.82
       39.0,      33.58,    37.53,    37.35,    29.76,    29.67
       40.0,      33.20,    36.97,    36.75,    29.61,    29.50
       41.0,      32.83,    36.39,    36.15,    29.44,    29.34
       42.0,      32.47,    35.83,    35.59,    29.28,    29.18
       43.0,      32.13,    35.31,    35.06,    29.13,    29.03
       44.0,      31.81,    34.83,    34.56,    28.99,    28.88
       45.0,      31.51,    34.37,    34.08,    28.86,    28.73
       46.0,      31.21,    33.93,    33.61,    28.73,    28.58
       47.0,      30.92,    33.50,    33.16,    28.59,    28.44
       48.0,      30.64,    33.08,    32.72,    28.46,    28.30
       49.0,      30.37,    32.68,    32.30,    28.33,    28.16
       50.0,      30.10,    32.29,    31.89,    28.20,    28.01
       51.0,      29.84,    31.90,    31.49,    28.07,    27.88
       52.0,      29.58,    31.53,    31.11,    27.95,    27.74
       53.0,      29.33,    31.17,    30.73,    27.82,    27.60
       54.0,      29.09,    30.82,    30.37,    27.69,    27.47
       55.0,      28.85,    30.47,    30.02,    27.56,    27.33
       56.0,      28.61,    30.14,    29.68,    27.44,    27.20
       57.0,      28.39,    29.81,    29.35,    27.31,    27.07
       58.0,      28.16,    29.50,    29.03,    27.19,    26.94
       59.0,      27.95,    29.19,    28.72,    27.07,    26.81
       60.0,      27.73,    28.89,    28.42,    26.94,    26.68
       61.0,      27.52,    28.60,    28.13,    26.82,    26.55
       62.0,      27.32,    28.31,    27.85,    26.70,    26.42
       63.0,      27.12,    28.03,    27.57,    26.58,    26.30
       64.0,      26.93,    27.76,    27.31,    26.46,    26.17
       65.0,      26.73,    27.50,    27.05,    26.34,    26.05
       66.0,      26.55,    27.24,    26.80,    26.22,    25.93
       67.0,      26.36,    26.99,    26.56,    26.10,    25.81
       68.0,      26.18,    26.74,    26.32,    25.99,    25.69
       69.0,      26.01,    26.50,    26.09,    25.87,    25.57
       70.0,      25.83,    26.27,    25.87,    25.75,    25.45
       71.0,      25.67,    26.04,    25.65,    25.64,    25.34
       72.0,      25.50,    25.82,    25.44,    25.52,    25.22
       73.0,      25.34,    25.60,    25.23,    25.41,    25.11
       74.0,      25.18,    25.39,    25.03,    25.29,    25.00
       75.0,      25.02,    25.18,    24.84,    25.18,    24.88
       76.0,      24.87,    24.97,    24.65,    25.07,    24.77
       77.0,      24.71,    24.77,    24.47,    24.95,    24.66
       78.0,      24.57,    24.58,    24.29,    24.84,    24.55
       79.0,      24.42,    24.39,    24.12,    24.73,    24.44
       80.0,      24.28,    24.20,    23.95,    24.62,    24.34
       81.0,      24.14,    24.02,    23.78,    24.51,    24.23
       82.0,      24.00,    23.84,    23.62,    24.40,    24.13
       83.0,      23.86,    23.67,    23.47,    24.29,    24.02
       84.0,      23.73,    23.49,    23.31,    24.19,    23.92
       85.0,      23.60,    23.33,    23.17,    24.08,    23.81
       86.0,      23.47,    23.16,    23.02,    23.97,    23.71
       87.0,      23.34,    23.00,    22.88,    23.87,    23.61
       88.0,      23.21,    22.84,    22.74,    23.76,    23.51
       89.0,      23.09,    22.69,    22.61,    23.66,    23.41
       90.0,      22.97,    22.54,    22.48,    23.55,    23.31
       91.0,      22.85,    22.39,    22.35,    23.45,    23.22
       92.0,      22.73,    22.24,    22.23,    23.34,    23.12
       93.0,      22.62,    22.10,    22.10,    23.24,    23.02
       94.0,      22.50,    21.95,    21.99,    23.14,    22.93
       95.0,      22.39,    21.82,    21.87,    23.04,    22.83
       96.0,      22.28,    21.68,    21.76,    22.93,    22.74
       97.0,      22.17,    21.55,    21.65,    22.83,    22.65
       98.0,      22.06,    21.41,    21.54,    22.73,    22.56
       99.0,      21.95,    21.28,    21.43,    22.63,    22.47
      100.0,      21.85,    21.16,    21.33,    22.53,    22.38
      101.0,      21.74,    21.03,    21.23,    22.44,    22.29
      102.0,      21.64,    20.91,    21.13,    22.34,    22.20
      103.0,      21.54,    20.79,    21.03,    22.24,    22.11
      104.0,      21.44,    20.67,    20.93,    22.14,    22.02
      105.0,      21.34,    20.55,    20.84,    22.05,    21.94
      106.0,      21.25,    20.43,    20.75,    21.95,    21.85
      107.0,      21.15,    20.32,    20.66,    21.85,    21.77
      108.0,      21.06,    20.21,    20.57,    21.76,    21.68
      109.0,      20.96,    20.10,    20.49,    21.66,    21.60
      110.0,      20.87,    19.99,    20.40,    21.57,    21.52
      111.0,      20.78,    19.88,    20.32,    21.48,    21.43
      112.0,      20.69,    19.78,    20.24,    21.38,    21.35
      113.0,      20.60,    19.67,    20.16,    21.29,    21.27
      114.0,      20.51,    19.57,    20.08,    21.20,    21.19
      115.0,      20.42,    19.47,    20.00,    21.11,    21.11
      116.0,      20.33,    19.37,    19.93,    21.01,    21.03
      117.0,      20.25,    19.27,    19.85,    20.92,    20.96
      118.0,      20.16,    19.17,    19.78,    20.83,    20.88
      119.0,      20.08,    19.07,    19.71,    20.74,    20.80
      120.0,      20.00,    18.98,    19.63,    20.65,    20.73
      121.0,      19.92,    18.88,    19.56,    20.56,    20.65
      122.0,      19.83,    18.79,    19.50,    20.48,    20.58
      123.0,      19.75,    18.70,    19.43,    20.39,    20.50
      124.0,      19.67,    18.61,    19.36,    20.30,    20.43
      125.0,      19.59,    18.52,    19.30,    20.21,    20.35
      126.0,      19.52,    18.43,    19.23,    20.13,    20.28
      127.0,      19.44,    18.34,    19.17,    20.04,    20.21
      128.0,      19.36,    18.25,    19.11,    19.95,    20.14
      129.0,      19.29,    18.17,    19.04,    19.87,    20.07
      130.0,      19.21,    18.08,    18.98,    19.78,    20.00
      131.0,      19.14,    18.00,    18.92,    19.70,    19.93
      132.0,      19.06,    17.91,    18.86,    19.61,    19.86
      133.0,      18.99,    17.83,    18.80,    19.53,    19.79
      134.0,      18.92,    17.75,    18.75,    19.45,    19.72
      135.0,      18.84,    17.67,    18.69,    19.36,    19.66
      136.0,      18.77,    17.59,    18.63,    19.28,    19.59
      137.0,      18.70,    17.51,    18.58,    19.20,    19.52
      138.0,      18.63,    17.43,    18.52,    19.12,    19.46
      139.0,      18.56,    17.35,    18.47,    19.04,    19.39
      140.0,      18.49,    17.27,    18.41,    18.96,    19.33
      141.0,      18.42,    17.20,    18.36,    18.88,    19.27
      142.0,      18.36,    17.12,    18.31,    18.80,    19.20
      143.0,      18.29,    17.04,    18.26,    18.72,    19.14
      144.0,      18.22,    16.97,    18.20,    18.64,    19.08
      145.0,      18.16,    16.90,    18.15,    18.56,    19.01
      146.0,      18.09,    16.82,    18.10,    18.48,    18.95
      147.0,      18.02,    16.75,    18.05,    18.40,    18.89
      148.0,      17.96,    16.68,    18.00,    18.32,    18.83
      149.0,      17.89,    16.60,    17.95,    18.25,    18.77
      150.0,      17.83,    16.53,    17.91,    18.17,    18.71
      151.0,      17.77,    16.46,    17.86,    18.09,    18.65
      152.0,      17.70,    16.39,    17.81,    18.02,    18.59
      153.0,      17.64,    16.32,    17.76,    17.94,    18.54
      154.0,      17.58,    16.25,    17.72,    17.87,    18.48
      155.0,      17.52,    16.19,    17.67,    17.79,    18.42
      156.0,      17.46,    16.12,    17.62,    17.72,    18.36
      157.0,      17.39,    16.05,    17.58,    17.64,    18.31
      158.0,      17.33,    15.98,    17.53,    17.57,    18.25
      159.0,      17.27,    15.92,    17.49,    17.49,    18.20
      160.0,      17.21,    15.85,    17.44,    17.42,    18.14
      161.0,      17.15,    15.78,    17.40,    17.35,    18.09
      162.0,      17.10,    15.72,    17.35,    17.28,    18.03
      163.0,      17.04,    15.65,    17.31,    17.20,    17.98
      164.0,      16.98,    15.59,    17.27,    17.13,    17.93
      165.0,      16.92,    15.53,    17.22,    17.06,    17.87
      166.0,      16.86,    15.46,    17.18,    16.99,    17.82
      167.0,      16.81,    15.40,    17.14,    16.92,    17.77
      168.0,      16.75,    15.34,    17.10,    16.85,    17.72
      169.0,      16.69,    15.27,    17.05,    16.78,    17.67
      170.0,      16.64,    15.21,    17.01,    16.71,    17.61
      171.0,      16.58,    15.15,    16.97,    16.64,    17.56
      172.0,      16.53,    15.09,    16.93,    16.57,    17.51
      173.0,      16.47,    15.03,    16.89,    16.50,    17.46
      174.0,      16.42,    14.97,    16.85,    16.43,    17.41
      175.0,      16.36,    14.91,    16.81,    16.37,    17.37
      176.0,      16.31,    14.85,    16.77,    16.30,    17.32
      177.0,      16.25,    14.79,    16.73,    16.23,    17.27
      178.0,      16.20,    14.73,    16.69,    16.16,    17.22
      179.0,      16.15,    14.67,    16.65,    16.10,    17.17
      180.0,      16.09,    14.61,    16.61,    16.03,    17.13
      181.0,      16.04,    14.55,    16.57,    15.96,    17.08
      182.0,      15.99,    14.49,    16.53,    15.90,    17.03
      183.0,      15.94,    14.44,    16.49,    15.83,    16.99
      184.0,      15.88,    14.38,    16.45,    15.77,    16.94
      185.0,      15.83,    14.32,    16.41,    15.70,    16.89
      186.0,      15.78,    14.26,    16.37,    15.64,    16.85
      187.0,      15.73,    14.21,    16.34,    15.58,    16.80
      188.0,      15.68,    14.15,    16.30,    15.51,    16.76
      189.0,      15.63,    14.10,    16.26,    15.45,    16.72
      190.0,      15.58,    14.04,    16.22,    15.38,    16.67
      191.0,      15.53,    13.99,    16.19,    15.32,    16.63
      192.0,      15.48,    13.93,    16.15,    15.26,    16.58
      193.0,      15.43,    13.88,    16.11,    15.20,    16.54
      194.0,      15.38,    13.82,    16.07,    15.13,    16.50
      195.0,      15.33,    13.77,    16.04,    15.07,    16.46
      196.0,      15.28,    13.71,    16.00,    15.01,    16.42
      197.0,      15.24,    13.66,    15.96,    14.95,    16.37
      198.0,      15.19,    13.61,    15.93,    14.89,    16.33
      199.0,      15.14,    13.55,    15.89,    14.83,    16.29
      200.0,      15.09,    13.50,    15.85,    14.77,    16.25
      201.0,      15.05,    13.45,    15.82,    14.71,    16.21
      202.0,      15.00,    13.39,    15.78,    14.65,    16.17
      203.0,      14.95,    13.34,    15.75,    14.59,    16.13
      204.0,      14.91,    13.29,    15.71,    14.53,    16.09
      205.0,      14.86,    13.24,    15.68,    14.47,    16.05
      206.0,      14.81,    13.19,    15.64,    14.41,    16.01
      207.0,      14.77,    13.14,    15.61,    14.35,    15.97
      208.0,      14.72,    13.08,    15.57,    14.30,    15.93
      209.0,      14.68,    13.03,    15.54,    14.24,    15.90
      210.0,      14.63,    12.98,    15.50,    14.18,    15.86
      211.0,      14.59,    12.93,    15.47,    14.12,    15.82
      212.0,      14.54,    12.88,    15.43,    14.07,    15.78
      213.0,      14.50,    12.83,    15.40,    14.01,    15.74
      214.0,      14.45,    12.78,    15.36,    13.95,    15.71
      215.0,      14.41,    12.73,    15.33,    13.90,    15.67
      216.0,      14.36,    12.68,    15.29,    13.84,    15.63
      217.0,      14.32,    12.63,    15.26,    13.79,    15.60
      218.0,      14.28,    12.59,    15.23,    13.73,    15.56
      219.0,      14.23,    12.54,    15.19,    13.68,    15.53
      220.0,      14.19,    12.49,    15.16,    13.62,    15.49
      221.0,      14.15,    12.44,    15.12,    13.57,    15.45
      222.0,      14.10,    12.39,    15.09,    13.51,    15.42
      223.0,      14.06,    12.34,    15.06,    13.46,    15.39
      224.0,      14.02,    12.30,    15.02,    13.40,    15.35
      225.0,      13.98,    12.25,    14.99,    13.35,    15.32
      226.0,      13.93,    12.20,    14.96,    13.30,    15.28
      227.0,      13.89,    12.16,    14.92,    13.24,    15.25
      228.0,      13.85,    12.11,    14.89,    13.19,    15.21
      229.0,      13.81,    12.06,    14.86,    13.14,    15.18
      230.0,      13.77,    12.02,    14.83,    13.09,    15.15
      231.0,      13.73,    11.97,    14.79,    13.03,    15.11
      232.0,      13.69,    11.92,    14.76,    12.98,    15.08
      233.0,      13.65,    11.88,    14.73,    12.93,    15.05
      234.0,      13.61,    11.83,    14.69,    12.88,    15.02
      235.0,      13.57,    11.79,    14.66,    12.83,    14.98
      236.0,      13.52,    11.74,    14.63,    12.78,    14.95
      237.0,      13.48,    11.70,    14.60,    12.73,    14.92
      238.0,      13.45,    11.65,    14.57,    12.68,    14.89
      239.0,      13.41,    11.61,    14.53,    12.62,    14.86
      240.0,      13.37,    11.56,    14.50,    12.57,    14.83
      241.0,      13.33,    11.52,    14.47,    12.52,    14.80
      242.0,      13.29,    11.47,    14.44,    12.48,    14.76
      243.0,      13.25,    11.43,    14.41,    12.43,    14.73
      244.0,      13.21,    11.39,    14.37,    12.38,    14.70
      245.0,      13.17,    11.34,    14.34,    12.33,    14.67
      246.0,      13.13,    11.30,    14.31,    12.28,    14.64
      247.0,      13.09,    11.26,    14.28,    12.23,    14.61
      248.0,      13.06,    11.21,    14.25,    12.18,    14.58
      249.0,      13.02,    11.17,    14.22,    12.13,    14.55
      250.0,      12.98,    11.13,    14.19,    12.09,    14.52
      251.0,      12.94,    11.08,    14.16,    12.04,    14.50
      252.0,      12.91,    11.04,    14.12,    11.99,    14.47
      253.0,      12.87,    11.00,    14.09,    11.94,    14.44
      254.0,      12.83,    10.96,    14.06,    11.90,    14.41
      255.0,      12.79,    10.92,    14.03,    11.85,    14.38
      256.0,      12.76,    10.87,    14.00,    11.80,    14.35
      257.0,      12.72,    10.83,    13.97,    11.76,    14.32
      258.0,      12.68,    10.79,    13.94,    11.71,    14.30
      259.0,      12.65,    10.75,    13.91,    11.67,    14.27
      260.0,      12.61,    10.71,    13.88,    11.62,    14.24
      261.0,      12.58,    10.67,    13.85,    11.58,    14.21
      262.0,      12.54,    10.63,    13.82,    11.53,    14.19
      263.0,      12.50,    10.59,    13.79,    11.48,    14.16
      264.0,      12.47,    10.55,    13.76,    11.44,    14.13
      265.0,      12.43,    10.51,    13.73,    11.40,    14.10
      266.0,      12.40,    10.46,    13.70,    11.35,    14.08
      267.0,      12.36,    10.42,    13.67,    11.31,    14.05
      268.0,      12.33,    10.39,    13.64,    11.26,    14.03
      269.0,      12.29,    10.35,    13.61,    11.22,    14.00
      270.0,      12.26,    10.31,    13.58,    11.17,    13.97
      271.0,      12.22,    10.27,    13.55,    11.13,    13.95
      272.0,      12.19,    10.23,    13.52,    11.09,    13.92
      273.0,      12.15,    10.19,    13.49,    11.04,    13.90
      274.0,      12.12,    10.15,    13.46,    11.00,    13.87
      275.0,      12.09,    10.11,    13.43,    10.96,    13.85
      276.0,      12.05,    10.07,    13.40,    10.92,    13.82
      277.0,      12.02,    10.03,    13.37,    10.87,    13.79
      278.0,      11.99,    10.00,    13.34,    10.83,    13.77
      279.0,      11.95,     9.96,    13.31,    10.79,    13.75
      280.0,      11.92,     9.92,    13.29,    10.75,    13.72
      281.0,      11.89,     9.88,    13.26,    10.71,    13.70
      282.0,      11.85,     9.84,    13.23,    10.67,    13.67
      283.0,      11.82,     9.81,    13.20,    10.62,    13.65
      284.0,      11.79,     9.77,    13.17,    10.58,    13.62
      285.0,      11.75,     9.73,    13.14,    10.54,    13.60
      286.0,      11.72,     9.69,    13.11,    10.50,    13.58
      287.0,      11.69,     9.66,    13.08,    10.46,    13.55
      288.0,      11.66,     9.62,    13.06,    10.42,    13.53
      289.0,      11.62,     9.58,    13.03,    10.38,    13.50
      290.0,      11.59,     9.55,    13.00,    10.34,    13.48
      291.0,      11.56,     9.51,    12.97,    10.30,    13.46
      292.0,      11.53,     9.47,    12.94,    10.26,    13.43
      293.0,      11.50,     9.44,    12.91,    10.22,    13.41
      294.0,      11.46,     9.40,    12.89,    10.18,    13.39
      295.0,      11.43,     9.37,    12.86,    10.14,    13.37
      296.0,      11.40,     9.33,    12.83,    10.10,    13.34
      297.0,      11.37,     9.30,    12.80,    10.07,    13.32
      298.0,      11.34,     9.26,    12.77,    10.03,    13.30
      299.0,      11.31,     9.22,    12.75,     9.99,    13.28
      300.0,      11.28,     9.19,    12.72,     9.95,    13.25
      301.0,      11.25,     9.15,    12.69,     9.91,    13.23
      302.0,      11.22,     9.12,    12.66,     9.87,    13.21
      303.0,      11.19,     9.08,    12.64,     9.84,    13.19
      304.0,      11.16,     9.05,    12.61,     9.80,    13.17
      305.0,      11.13,     9.02,    12.58,     9.76,    13.15
      306.0,      11.10,     8.98,    12.55,     9.72,    13.12
      307.0,      11.07,     8.95,    12.53,     9.69,    13.10
      308.0,      11.04,     8.91,    12.50,     9.65,    13.08
      309.0,      11.01,     8.88,    12.47,     9.61,    13.06
      310.0,      10.98,     8.84,    12.44,     9.58,    13.04
