Radius (km), Mean (m/s), NE (m/s), SE (m/s), SW (m/s), NW (m/s)
        0.0,       0.00,     0.00,     0.00,     0.00,     0.00
        1.0,       2.30,     2.33,     2.21,     2.33,     2.33
        2.0,       4.15,     4.18,     4.06,     4.18,     4.18
        3.0,       5.86,     5.89,     5.80,     5.89,     5.89
        4.0,       7.50,     7.51,     7.46,     7.51,     7.51
        5.0,       9.07,     9.06,     9.07,     9.06,     9.06
        6.0,      10.59,    10.57,    10.65,    10.57,    10.57
        7.0,      12.08,    12.04,    12.19,    12.04,    12.04
        8.0,      13.54,    13.48,    13.70,    13.48,    13.48
        9.0,      14.97,    14.89,    15.19,    14.89,    14.89
       10.0,      16.37,    16.28,    16.67,    16.28,    16.28
       11.0,      17.76,    17.64,    18.12,    17.64,    17.64
       12.0,      19.14,    18.99,    19.57,    19.00,    19.01
       13.0,      20.54,    20.35,    21.03,    20.38,    20.42
       14.0,      22.01,    21.76,    22.56,    21.82,    21.91
       15.0,      23.58,    23.25,    24.20,    23.36,    23.51
       16.0,      25.28,    24.85,    25.98,    25.03,    25.25
       17.0,      27.09,    26.57,    27.89,    26.82,    27.09
       18.0,      28.99,    28.37,    29.90,    28.69,    29.00
       19.0,      30.91,    30.21,    31.95,    30.58,    30.91
       20.0,      32.77,    32.01,    33.94,    32.41,    32.74
       21.0,      34.49,    33.69,    35.80,    34.10,    34.39
       22.0,      35.99,    35.18,    37.42,    35.57,    35.81
       23.0,      37.22,    36.42,    38.76,    36.76,    36.94
       24.0,      38.13,    37.37,    39.76,    37.65,    37.76
       25.0,      38.74,    38.03,    40.43,    38.23,    38.29
       26.0,      39.08,    38.41,    40.79,    38.54,    38.56
       27.0,      39.18,    38.57,    40.89,    38.63,    38.63
       28.0,      39.12,    38.56,    40.80,    38.55,    38.55
       29.0,      38.95,    38.44,    40.60,    38.36,    38.38
       30.0,      38.73,    38.26,    40.33,    38.13,    38.18
       31.0,      38.49,    38.06,    40.05,    37.89,    37.98
       32.0,      38.27,    37.87,    39.78,    37.66,    37.78
       33.0,      38.06,    37.69,    39.52,    37.43,    37.59
       34.0,      37.85,    37.52,    39.28,    37.22,    37.40
       35.0,      37.65,    37.35,    39.04,    37.00,    37.22
       36.0,      37.46,    37.19,    38.80,    36.79,    37.04
       37.0,      37.26,    37.02,    38.56,    36.58,    36.86
       38.0,      37.06,    36.86,    38.33,    36.38,    36.68
       39.0,      36.87,    36.70,    38.10,    36.17,    36.50
       40.0,      36.68,    36.54,    37.87,    35.97,    36.33
       41.0,      36.48,    36.38,    37.65,    35.76,    36.15
       42.0,      36.30,    36.22,    37.42,    35.56,    35.98
       43.0,      36.11,    36.06,    37.20,    35.36,    35.81
       44.0,      35.92,    35.90,    36.98,    35.16,    35.63
       45.0,      35.74,    35.75,    36.77,    34.97,    35.46
       46.0,      35.55,    35.59,    36.55,    34.77,    35.30
       47.0,      35.37,    35.44,    36.34,    34.58,    35.13
       48.0,      35.19,    35.29,    36.13,    34.39,    34.96
       49.0,      35.01,    35.13,    35.92,    34.19,    34.80
       50.0,      34.84,    34.98,    35.72,    34.00,    34.63
       51.0,      34.66,    34.83,    35.52,    33.82,    34.47
       52.0,      34.49,    34.68,    35.31,    33.63,    34.31
       53.0,      34.31,    34.54,    35.12,    33.44,    34.15
       54.0,      34.14,    34.39,    34.92,    33.26,    33.99
       55.0,      33.97,    34.24,    34.72,    33.08,    33.84
       56.0,      33.80,    34.10,    34.53,    32.90,    33.68
       57.0,      33.63,    33.95,    34.34,    32.72,    33.52
       58.0,      33.47,    33.81,    34.15,    32.54,    33.37
       59.0,      33.30,    33.67,    33.96,    32.36,    33.22
       60.0,      33.14,    33.53,    33.78,    32.19,    33.07
       61.0,      32.98,    33.38,    33.60,    32.01,    32.91
       62.0,      32.82,    33.24,    33.41,    31.84,    32.77
       63.0,      32.66,    33.11,    33.23,    31.67,    32.62
       64.0,      32.50,    32.97,    33.06,    31.50,    32.47
       65.0,      32.34,    32.83,    32.88,    31.33,    32.32
       66.0,      32.18,    32.69,    32.71,    31.16,    32.18
       67.0,      32.03,    32.56,    32.53,    30.99,    32.03
       68.0,      31.88,    32.42,    32.36,    30.83,    31.89
       69.0,      31.72,    32.29,    32.19,    30.66,    31.75
       70.0,      31.57,    32.16,    32.03,    30.50,    31.61
       71.0,      31.42,    32.02,    31.86,    30.34,    31.47
       72.0,      31.27,    31.89,    31.70,    30.18,    31.33
       73.0,      31.13,    31.76,    31.54,    30.02,    31.19
       74.0,      30.98,    31.63,    31.37,    29.86,    31.06
       75.0,      30.83,    31.50,    31.22,    29.70,    30.92
       76.0,      30.69,    31.37,    31.06,    29.55,    30.78
       77.0,      30.55,    31.25,    30.90,    29.39,    30.65
       78.0,      30.41,    31.12,    30.75,    29.24,    30.52
       79.0,      30.26,    30.99,    30.59,    29.09,    30.39
       80.0,      30.13,    30.87,    30.44,    28.93,    30.26
       81.0,      29.99,    30.74,    30.29,    28.78,    30.13
       82.0,      29.85,    30.62,    30.14,    28.63,    30.00
       83.0,      29.71,    30.50,    30.00,    28.49,    29.87
       84.0,      29.58,    30.37,    29.85,    28.34,    29.74
       85.0,      29.44,    30.25,    29.71,    28.19,    29.62
       86.0,      29.31,    30.13,    29.56,    28.05,    29.49
       87.0,      29.18,    30.01,    29.42,    27.91,    29.37
       88.0,      29.05,    29.89,    29.28,    27.76,    29.24
       89.0,      28.92,    29.77,    29.14,    27.62,    29.12
       90.0,      28.79,    29.66,    29.01,    27.48,    29.00
       91.0,      28.66,    29.54,    28.87,    27.34,    28.88
       92.0,      28.53,    29.42,    28.74,    27.20,    28.76
       93.0,      28.40,    29.31,    28.60,    27.07,    28.64
       94.0,      28.28,    29.19,    28.47,    26.93,    28.52
       95.0,      28.15,    29.08,    28.34,    26.80,    28.40
       96.0,      28.03,    28.96,    28.21,    26.66,    28.29
       97.0,      27.91,    28.85,    28.08,    26.53,    28.17
       98.0,      27.79,    28.74,    27.95,    26.40,    28.06
       99.0,      27.66,    28.63,    27.83,    26.26,    27.94
      100.0,      27.54,    28.52,    27.70,    26.13,    27.83
      101.0,      27.43,    28.41,    27.58,    26.00,    27.72
      102.0,      27.31,    28.30,    27.45,    25.88,    27.60
      103.0,      27.19,    28.19,    27.33,    25.75,    27.49
      104.0,      27.07,    28.08,    27.21,    25.62,    27.38
      105.0,      26.96,    27.97,    27.09,    25.50,    27.28
      106.0,      26.84,    27.86,    26.97,    25.37,    27.17
      107.0,      26.73,    27.76,    26.86,    25.25,    27.06
      108.0,      26.62,    27.65,    26.74,    25.12,    26.95
      109.0,      26.50,    27.54,    26.63,    25.00,    26.85
      110.0,      26.39,    27.44,    26.51,    24.88,    26.74
      111.0,      26.28,    27.34,    26.40,    24.76,    26.64
      112.0,      26.17,    27.23,    26.29,    24.64,    26.53
      113.0,      26.06,    27.13,    26.18,    24.52,    26.43
      114.0,      25.96,    27.03,    26.07,    24.41,    26.33
      115.0,      25.85,    26.92,    25.96,    24.29,    26.23
      116.0,      25.74,    26.82,    25.85,    24.17,    26.12
      117.0,      25.64,    26.72,    25.74,    24.06,    26.02
      118.0,      25.53,    26.62,    25.63,    23.94,    25.93
      119.0,      25.43,    26.52,    25.53,    23.83,    25.83
      120.0,      25.32,    26.42,    25.43,    23.72,    25.73
      121.0,      25.22,    26.33,    25.32,    23.61,    25.63
      122.0,      25.12,    26.23,    25.22,    23.50,    25.53
      123.0,      25.02,    26.13,    25.12,    23.39,    25.44
      124.0,      24.92,    26.03,    25.02,    23.28,    25.34
      125.0,      24.82,    25.94,    24.92,    23.17,    25.25
      126.0,      24.72,    25.84,    24.82,    23.06,    25.15
      127.0,      24.62,    25.75,    24.72,    22.95,    25.06
      128.0,      24.52,    25.65,    24.62,    22.85,    24.97
      129.0,      24.43,    25.56,    24.53,    22.74,    24.88
      130.0,      24.33,    25.47,    24.43,    22.64,    24.78
      131.0,      24.23,    25.37,    24.33,    22.53,    24.69
      132.0,      24.14,    25.28,    24.24,    22.43,    24.60
      133.0,      24.04,    25.19,    24.15,    22.33,    24.51
      134.0,      23.95,    25.10,    24.05,    22.23,    24.43
      135.0,      23.86,    25.01,    23.96,    22.12,    24.34
      136.0,      23.77,    24.91,    23.87,    22.02,    24.25
      137.0,      23.67,    24.83,    23.78,    21.92,    24.16
      138.0,      23.58,    24.74,    23.69,    21.83,    24.08
      139.0,      23.49,    24.65,    23.60,    21.73,    23.99
      140.0,      23.40,    24.56,    23.52,    21.63,    23.91
      141.0,      23.31,    24.47,    23.43,    21.53,    23.82
      142.0,      23.22,    24.38,    23.34,    21.44,    23.74
      143.0,      23.14,    24.30,    23.26,    21.34,    23.65
      144.0,      23.05,    24.21,    23.17,    21.25,    23.57
      145.0,      22.96,    24.12,    23.09,    21.15,    23.49
      146.0,      22.88,    24.04,    23.00,    21.06,    23.41
      147.0,      22.79,    23.95,    22.92,    20.97,    23.32
      148.0,      22.71,    23.87,    22.84,    20.88,    23.24
      149.0,      22.62,    23.78,    22.75,    20.79,    23.16
      150.0,      22.54,    23.70,    22.67,    20.70,    23.08
      151.0,      22.46,    23.62,    22.59,    20.61,    23.01
      152.0,      22.37,    23.53,    22.51,    20.52,    22.93
      153.0,      22.29,    23.45,    22.43,    20.43,    22.85
      154.0,      22.21,    23.37,    22.36,    20.34,    22.77
      155.0,      22.13,    23.29,    22.28,    20.25,    22.69
      156.0,      22.05,    23.21,    22.20,    20.17,    22.62
      157.0,      21.97,    23.13,    22.12,    20.08,    22.54
      158.0,      21.89,    23.05,    22.05,    19.99,    22.47
      159.0,      21.81,    22.97,    21.97,    19.91,    22.39
      160.0,      21.73,    22.89,    21.90,    19.82,    22.32
      161.0,      21.65,    22.81,    21.82,    19.74,    22.24
      162.0,      21.58,    22.73,    21.75,    19.66,    22.17
      163.0,      21.50,    22.65,    21.67,    19.57,    22.10
      164.0,      21.42,    22.57,    21.60,    19.49,    22.03
      165.0,      21.35,    22.50,    21.53,    19.41,    21.95
      166.0,      21.27,    22.42,    21.46,    19.33,    21.88
      167.0,      21.20,    22.34,    21.39,    19.25,    21.81
      168.0,      21.12,    22.27,    21.32,    19.17,    21.74
      169.0,      21.05,    22.19,    21.24,    19.09,    21.67
      170.0,      20.98,    22.12,    21.18,    19.01,    21.60
      171.0,      20.90,    22.04,    21.11,    18.94,    21.53
      172.0,      20.83,    21.97,    21.04,    18.86,    21.46
      173.0,      20.76,    21.89,    20.97,    18.78,    21.40
      174.0,      20.69,    21.82,    20.90,    18.70,    21.33
      175.0,      20.62,    21.75,    20.83,    18.63,    21.26
      176.0,      20.55,    21.67,    20.77,    18.55,    21.19
      177.0,      20.48,    21.60,    20.70,    18.48,    21.13
      178.0,      20.41,    21.53,    20.64,    18.40,    21.06
      179.0,      20.34,    21.46,    20.57,    18.33,    21.00
      180.0,      20.27,    21.38,    20.51,    18.26,    20.93
      181.0,      20.20,    21.31,    20.44,    18.18,    20.87
      182.0,      20.13,    21.24,    20.38,    18.11,    20.80
      183.0,      20.07,    21.17,    20.31,    18.04,    20.74
      184.0,      20.00,    21.10,    20.25,    17.97,    20.68
      185.0,      19.93,    21.03,    20.19,    17.90,    20.61
      186.0,      19.87,    20.96,    20.13,    17.83,    20.55
      187.0,      19.80,    20.89,    20.06,    17.76,    20.49
      188.0,      19.74,    20.82,    20.00,    17.69,    20.43
      189.0,      19.67,    20.76,    19.94,    17.62,    20.37
      190.0,      19.61,    20.69,    19.88,    17.55,    20.30
      191.0,      19.54,    20.62,    19.82,    17.49,    20.24
      192.0,      19.48,    20.55,    19.76,    17.42,    20.18
      193.0,      19.42,    20.49,    19.70,    17.35,    20.12
      194.0,      19.35,    20.42,    19.64,    17.28,    20.06
      195.0,      19.29,    20.35,    19.59,    17.22,    20.01
      196.0,      19.23,    20.29,    19.53,    17.15,    19.95
      197.0,      19.17,    20.22,    19.47,    17.09,    19.89
      198.0,      19.11,    20.16,    19.41,    17.02,    19.83
      199.0,      19.04,    20.09,    19.36,    16.96,    19.77
      200.0,      18.98,    20.03,    19.30,    16.90,    19.72
      201.0,      18.92,    19.96,    19.24,    16.83,    19.66
      202.0,      18.86,    19.90,    19.19,    16.77,    19.60
      203.0,      18.81,    19.84,    19.13,    16.71,    19.55
      204.0,      18.75,    19.77,    19.08,    16.64,    19.49
      205.0,      18.69,    19.71,    19.02,    16.58,    19.44
      206.0,      18.63,    19.65,    18.97,    16.52,    19.38
      207.0,      18.57,    19.58,    18.91,    16.46,    19.33
      208.0,      18.51,    19.52,    18.86,    16.40,    19.27
      209.0,      18.46,    19.46,    18.81,    16.34,    19.22
      210.0,      18.40,    19.40,    18.75,    16.28,    19.17
      211.0,      18.34,    19.34,    18.70,    16.22,    19.11
      212.0,      18.29,    19.28,    18.65,    16.16,    19.06
      213.0,      18.23,    19.21,    18.59,    16.11,    19.01
      214.0,      18.17,    19.15,    18.54,    16.05,    18.95
      215.0,      18.12,    19.09,    18.49,    15.99,    18.90
      216.0,      18.06,    19.03,    18.44,    15.93,    18.85
      217.0,      18.01,    18.97,    18.39,    15.88,    18.80
      218.0,      17.96,    18.92,    18.34,    15.82,    18.75
      219.0,      17.90,    18.86,    18.29,    15.76,    18.70
      220.0,      17.85,    18.80,    18.24,    15.71,    18.65
      221.0,      17.79,    18.74,    18.19,    15.65,    18.60
      222.0,      17.74,    18.68,    18.14,    15.60,    18.55
      223.0,      17.69,    18.62,    18.09,    15.54,    18.50
      224.0,      17.64,    18.57,    18.04,    15.49,    18.45
      225.0,      17.58,    18.51,    17.99,    15.44,    18.40
      226.0,      17.53,    18.45,    17.94,    15.38,    18.35
      227.0,      17.48,    18.39,    17.90,    15.33,    18.30
      228.0,      17.43,    18.34,    17.85,    15.28,    18.26
      229.0,      17.38,    18.28,    17.80,    15.22,    18.21
      230.0,      17.33,    18.23,    17.75,    15.17,    18.16
      231.0,      17.28,    18.17,    17.71,    15.12,    18.11
      232.0,      17.23,    18.11,    17.66,    15.07,    18.07
      233.0,      17.18,    18.06,    17.61,    15.02,    18.02
      234.0,      17.13,    18.00,    17.57,    14.97,    17.97
      235.0,      17.08,    17.95,    17.52,    14.92,    17.93
      236.0,      17.03,    17.89,    17.48,    14.87,    17.88
      237.0,      16.98,    17.84,    17.43,    14.82,    17.84
      238.0,      16.93,    17.79,    17.39,    14.77,    17.79
      239.0,      16.88,    17.73,    17.34,    14.72,    17.75
      240.0,      16.84,    17.68,    17.30,    14.67,    17.70
      241.0,      16.79,    17.63,    17.25,    14.62,    17.66
      242.0,      16.74,    17.57,    17.21,    14.57,    17.61
      243.0,      16.69,    17.52,    17.16,    14.53,    17.57
      244.0,      16.65,    17.47,    17.12,    14.48,    17.53
      245.0,      16.60,    17.41,    17.08,    14.43,    17.48
      246.0,      16.56,    17.36,    17.03,    14.39,    17.44
      247.0,      16.51,    17.31,    16.99,    14.34,    17.40
      248.0,      16.46,    17.26,    16.95,    14.29,    17.36
      249.0,      16.42,    17.21,    16.90,    14.25,    17.31
      250.0,      16.37,    17.16,    16.86,    14.20,    17.27
      251.0,      16.33,    17.11,    16.82,    14.16,    17.23
      252.0,      16.28,    17.06,    16.78,    14.11,    17.19
      253.0,      16.24,    17.00,    16.74,    14.07,    17.15
      254.0,      16.19,    16.95,    16.69,    14.02,    17.11
      255.0,      16.15,    16.90,    16.65,    13.98,    17.06
      256.0,      16.11,    16.85,    16.61,    13.93,    17.02
      257.0,      16.06,    16.80,    16.57,    13.89,    16.98
      258.0,      16.02,    16.76,    16.53,    13.85,    16.94
      259.0,      15.98,    16.71,    16.49,    13.80,    16.90
      260.0,      15.93,    16.66,    16.45,    13.76,    16.86
      261.0,      15.89,    16.61,    16.41,    13.72,    16.82
      262.0,      15.85,    16.56,    16.37,    13.68,    16.79
      263.0,      15.81,    16.51,    16.33,    13.63,    16.75
      264.0,      15.76,    16.46,    16.29,    13.59,    16.71
      265.0,      15.72,    16.42,    16.25,    13.55,    16.67
      266.0,      15.68,    16.37,    16.21,    13.51,    16.63
      267.0,      15.64,    16.32,    16.17,    13.47,    16.59
      268.0,      15.60,    16.27,    16.13,    13.43,    16.55
      269.0,      15.56,    16.23,    16.09,    13.39,    16.52
      270.0,      15.52,    16.18,    16.06,    13.35,    16.48
      271.0,      15.48,    16.13,    16.02,    13.31,    16.44
      272.0,      15.44,    16.09,    15.98,    13.27,    16.41
      273.0,      15.40,    16.04,    15.94,    13.23,    16.37
      274.0,      15.36,    15.99,    15.90,    13.19,    16.33
      275.0,      15.32,    15.95,    15.87,    13.15,    16.30
      276.0,      15.28,    15.90,    15.83,    13.11,    16.26
      277.0,      15.24,    15.86,    15.79,    13.08,    16.22
      278.0,      15.20,    15.81,    15.76,    13.04,    16.19
      279.0,      15.16,    15.77,    15.72,    13.00,    16.15
      280.0,      15.12,    15.72,    15.68,    12.96,    16.12
      281.0,      15.08,    15.68,    15.65,    12.92,    16.08
      282.0,      15.04,    15.63,    15.61,    12.89,    16.05
      283.0,      15.01,    15.59,    15.57,    12.85,    16.01
      284.0,      14.97,    15.54,    15.54,    12.81,    15.98
      285.0,      14.93,    15.50,    15.50,    12.78,    15.94
      286.0,      14.89,    15.46,    15.46,    12.74,    15.91
      287.0,      14.85,    15.41,    15.43,    12.70,    15.87
      288.0,      14.82,    15.37,    15.39,    12.67,    15.84
      289.0,      14.78,    15.33,    15.36,    12.63,    15.81
      290.0,      14.74,    15.28,    15.32,    12.60,    15.77
      291.0,      14.71,    15.24,    15.29,    12.56,    15.74
      292.0,      14.67,    15.20,    15.25,    12.53,    15.71
      293.0,      14.63,    15.15,    15.22,    12.49,    15.67
      294.0,      14.60,    15.11,    15.18,    12.46,    15.64
      295.0,      14.56,    15.07,    15.15,    12.42,    15.61
      296.0,      14.53,    15.03,    15.12,    12.39,    15.57
      297.0,      14.49,    14.99,    15.08,    12.36,    15.54
      298.0,      14.46,    14.94,    15.05,    12.32,    15.51
      299.0,      14.42,    14.90,    15.01,    12.29,    15.48
      300.0,      14.39,    14.86,    14.98,    12.26,    15.45
      301.0,      14.35,    14.82,    14.95,    12.22,    15.41
      302.0,      14.32,    14.78,    14.91,    12.19,    15.38
      303.0,      14.28,    14.74,    14.88,    12.16,    15.35
      304.0,      14.25,    14.70,    14.85,    12.12,    15.32
      305.0,      14.21,    14.66,    14.81,    12.09,    15.29
      306.0,      14.18,    14.62,    14.78,    12.06,    15.26
      307.0,      14.14,    14.58,    14.75,    12.03,    15.23
      308.0,      14.11,    14.54,    14.71,    12.00,    15.20
      309.0,      14.08,    14.50,    14.68,    11.96,    15.17
      310.0,      14.04,    14.46,    14.65,    11.93,    15.14
