Radius (km), Mean (m/s), NE (m/s), SE (m/s), SW (m/s), NW (m/s)
        0.0,       0.00,     0.00,     0.00,     0.00,     0.00
        1.0,       2.06,     1.86,     1.86,     2.30,     2.20
        2.0,       3.48,     3.31,     3.31,     3.69,     3.63
        3.0,       4.75,     4.63,     4.63,     4.86,     4.85
        4.0,       5.91,     5.88,     5.88,     5.92,     5.97
        5.0,       7.01,     7.08,     7.08,     6.89,     7.01
        6.0,       8.06,     8.23,     8.23,     7.80,     7.99
        7.0,       9.07,     9.35,     9.35,     8.67,     8.92
        8.0,      10.05,    10.45,    10.45,     9.50,     9.82
        9.0,      11.00,    11.52,    11.52,    10.29,    10.69
       10.0,      11.93,    12.57,    12.57,    11.06,    11.53
       11.0,      12.84,    13.60,    13.60,    11.80,    12.35
       12.0,      13.72,    14.62,    14.62,    12.52,    13.15
       13.0,      14.60,    15.62,    15.62,    13.22,    13.92
       14.0,      15.45,    16.61,    16.61,    13.91,    14.69
       15.0,      16.30,    17.59,    17.59,    14.58,    15.43
       16.0,      17.13,    18.55,    18.55,    15.23,    16.16
       17.0,      17.94,    19.51,    19.51,    15.87,    16.88
       18.0,      18.75,    20.46,    20.46,    16.51,    17.59
       19.0,      19.55,    21.39,    21.39,    17.13,    18.29
       20.0,      20.34,    22.32,    22.32,    17.73,    18.98
       21.0,      21.12,    23.24,    23.24,    18.33,    19.65
       22.0,      21.89,    24.16,    24.16,    18.93,    20.33
       23.0,      22.68,    25.07,    25.10,    19.52,    21.03
       24.0,      23.50,    25.99,    26.09,    20.13,    21.77
       25.0,      24.37,    26.97,    27.18,    20.77,    22.57
       26.0,      25.33,    28.03,    28.39,    21.46,    23.43
       27.0,      26.36,    29.20,    29.72,    22.20,    24.34
       28.0,      27.46,    30.46,    31.13,    22.97,    25.29
       29.0,      28.59,    31.79,    32.58,    23.75,    26.22
       30.0,      29.68,    33.12,    33.98,    24.52,    27.10
       31.0,      30.68,    34.38,    35.23,    25.23,    27.89
       32.0,      31.54,    35.49,    36.28,    25.84,    28.55
       33.0,      32.20,    36.39,    37.04,    26.33,    29.05
       34.0,      32.65,    37.02,    37.51,    26.69,    29.39
       35.0,      32.88,    37.35,    37.67,    26.92,    29.57
       36.0,      32.90,    37.41,    37.55,    27.01,    29.61
       37.0,      32.74,    37.21,    37.22,    27.00,    29.55
       38.0,      32.47,    36.82,    36.72,    26.91,    29.42
       39.0,      32.11,    36.30,    36.14,    26.77,    29.25
       40.0,      31.73,    35.71,    35.53,    26.60,    29.06
       41.0,      31.34,    35.11,    34.92,    26.44,    28.88
       42.0,      30.97,    34.54,    34.35,    26.28,    28.70
       43.0,      30.62,    34.00,    33.82,    26.12,    28.53
       44.0,      30.29,    33.50,    33.32,    25.98,    28.37
       45.0,      29.98,    33.04,    32.84,    25.84,    28.20
       46.0,      29.67,    32.59,    32.37,    25.70,    28.04
       47.0,      29.38,    32.15,    31.92,    25.56,    27.88
       48.0,      29.09,    31.73,    31.49,    25.42,    27.72
       49.0,      28.81,    31.32,    31.08,    25.28,    27.57
       50.0,      28.54,    30.92,    30.67,    25.15,    27.41
       51.0,      28.27,    30.54,    30.28,    25.01,    27.25
       52.0,      28.02,    30.17,    29.91,    24.88,    27.10
       53.0,      27.76,    29.81,    29.55,    24.75,    26.95
       54.0,      27.52,    29.46,    29.20,    24.62,    26.80
       55.0,      27.28,    29.12,    28.86,    24.49,    26.65
       56.0,      27.05,    28.79,    28.53,    24.36,    26.50
       57.0,      26.82,    28.47,    28.22,    24.23,    26.35
       58.0,      26.60,    28.17,    27.91,    24.11,    26.21
       59.0,      26.38,    27.86,    27.62,    23.98,    26.07
       60.0,      26.17,    27.57,    27.34,    23.86,    25.92
       61.0,      25.97,    27.29,    27.06,    23.73,    25.78
       62.0,      25.76,    27.01,    26.79,    23.61,    25.64
       63.0,      25.57,    26.75,    26.54,    23.49,    25.50
       64.0,      25.38,    26.49,    26.29,    23.37,    25.36
       65.0,      25.19,    26.23,    26.05,    23.25,    25.23
       66.0,      25.01,    25.99,    25.81,    23.13,    25.09
       67.0,      24.83,    25.75,    25.59,    23.01,    24.96
       68.0,      24.65,    25.51,    25.37,    22.89,    24.83
       69.0,      24.48,    25.29,    25.15,    22.78,    24.69
       70.0,      24.31,    25.07,    24.95,    22.66,    24.56
       71.0,      24.15,    24.85,    24.75,    22.55,    24.44
       72.0,      23.99,    24.64,    24.56,    22.44,    24.31
       73.0,      23.83,    24.43,    24.37,    22.33,    24.18
       74.0,      23.67,    24.23,    24.19,    22.22,    24.05
       75.0,      23.52,    24.04,    24.01,    22.10,    23.93
       76.0,      23.37,    23.85,    23.84,    22.00,    23.81
       77.0,      23.23,    23.66,    23.67,    21.89,    23.68
       78.0,      23.08,    23.48,    23.51,    21.78,    23.56
       79.0,      22.94,    23.31,    23.36,    21.67,    23.44
       80.0,      22.81,    23.13,    23.20,    21.57,    23.32
       81.0,      22.67,    22.96,    23.06,    21.46,    23.20
       82.0,      22.54,    22.80,    22.91,    21.36,    23.09
       83.0,      22.41,    22.64,    22.77,    21.26,    22.97
       84.0,      22.28,    22.48,    22.64,    21.15,    22.86
       85.0,      22.15,    22.32,    22.50,    21.05,    22.74
       86.0,      22.03,    22.17,    22.37,    20.95,    22.63
       87.0,      21.91,    22.02,    22.25,    20.85,    22.52
       88.0,      21.79,    21.88,    22.13,    20.75,    22.40
       89.0,      21.67,    21.74,    22.01,    20.65,    22.29
       90.0,      21.56,    21.60,    21.89,    20.56,    22.19
       91.0,      21.44,    21.46,    21.78,    20.46,    22.08
       92.0,      21.33,    21.32,    21.67,    20.36,    21.97
       93.0,      21.22,    21.19,    21.56,    20.27,    21.86
       94.0,      21.11,    21.06,    21.45,    20.17,    21.76
       95.0,      21.01,    20.94,    21.35,    20.08,    21.65
       96.0,      20.90,    20.81,    21.25,    19.99,    21.55
       97.0,      20.80,    20.69,    21.15,    19.89,    21.45
       98.0,      20.69,    20.57,    21.06,    19.80,    21.34
       99.0,      20.59,    20.45,    20.96,    19.71,    21.24
      100.0,      20.49,    20.33,    20.87,    19.62,    21.14
      101.0,      20.39,    20.22,    20.78,    19.53,    21.04
      102.0,      20.30,    20.11,    20.69,    19.44,    20.95
      103.0,      20.20,    20.00,    20.61,    19.35,    20.85
      104.0,      20.11,    19.89,    20.52,    19.27,    20.75
      105.0,      20.01,    19.78,    20.44,    19.18,    20.66
      106.0,      19.92,    19.67,    20.36,    19.09,    20.56
      107.0,      19.83,    19.57,    20.28,    19.01,    20.47
      108.0,      19.74,    19.47,    20.20,    18.92,    20.37
      109.0,      19.65,    19.36,    20.13,    18.84,    20.28
      110.0,      19.57,    19.26,    20.05,    18.76,    20.19
      111.0,      19.48,    19.16,    19.98,    18.67,    20.10
      112.0,      19.39,    19.07,    19.91,    18.59,    20.01
      113.0,      19.31,    18.97,    19.84,    18.51,    19.92
      114.0,      19.23,    18.88,    19.77,    18.43,    19.83
      115.0,      19.14,    18.78,    19.70,    18.35,    19.74
      116.0,      19.06,    18.69,    19.63,    18.27,    19.66
      117.0,      18.98,    18.60,    19.56,    18.19,    19.57
      118.0,      18.90,    18.51,    19.50,    18.11,    19.48
      119.0,      18.82,    18.42,    19.43,    18.03,    19.40
      120.0,      18.74,    18.33,    19.37,    17.96,    19.31
      121.0,      18.67,    18.24,    19.31,    17.88,    19.23
      122.0,      18.59,    18.16,    19.25,    17.80,    19.15
      123.0,      18.51,    18.07,    19.19,    17.73,    19.07
      124.0,      18.44,    17.99,    19.13,    17.65,    18.98
      125.0,      18.36,    17.90,    19.07,    17.58,    18.90
      126.0,      18.29,    17.82,    19.01,    17.50,    18.82
      127.0,      18.22,    17.74,    18.95,    17.43,    18.74
      128.0,      18.14,    17.66,    18.90,    17.36,    18.67
      129.0,      18.07,    17.58,    18.84,    17.29,    18.59
      130.0,      18.00,    17.50,    18.78,    17.21,    18.51
      131.0,      17.93,    17.42,    18.73,    17.14,    18.43
      132.0,      17.86,    17.34,    18.67,    17.07,    18.36
      133.0,      17.79,    17.27,    18.62,    17.00,    18.28
      134.0,      17.72,    17.19,    18.57,    16.93,    18.21
      135.0,      17.66,    17.11,    18.52,    16.86,    18.13
      136.0,      17.59,    17.04,    18.46,    16.79,    18.06
      137.0,      17.52,    16.96,    18.41,    16.73,    17.99
      138.0,      17.46,    16.89,    18.36,    16.66,    17.91
      139.0,      17.39,    16.82,    18.31,    16.59,    17.84
      140.0,      17.33,    16.74,    18.26,    16.52,    17.77
      141.0,      17.26,    16.67,    18.21,    16.46,    17.70
      142.0,      17.20,    16.60,    18.16,    16.39,    17.63
      143.0,      17.13,    16.53,    18.12,    16.33,    17.56
      144.0,      17.07,    16.46,    18.07,    16.26,    17.49
      145.0,      17.01,    16.39,    18.02,    16.20,    17.42
      146.0,      16.95,    16.32,    17.97,    16.13,    17.36
      147.0,      16.88,    16.25,    17.93,    16.07,    17.29
      148.0,      16.82,    16.18,    17.88,    16.01,    17.22
      149.0,      16.76,    16.11,    17.83,    15.94,    17.16
      150.0,      16.70,    16.04,    17.79,    15.88,    17.09
      151.0,      16.64,    15.98,    17.74,    15.82,    17.03
      152.0,      16.58,    15.91,    17.70,    15.76,    16.96
      153.0,      16.52,    15.84,    17.65,    15.70,    16.90
      154.0,      16.47,    15.78,    17.61,    15.64,    16.84
      155.0,      16.41,    15.71,    17.57,    15.58,    16.77
      156.0,      16.35,    15.65,    17.52,    15.52,    16.71
      157.0,      16.29,    15.58,    17.48,    15.46,    16.65
      158.0,      16.24,    15.52,    17.43,    15.40,    16.59
      159.0,      16.18,    15.46,    17.39,    15.34,    16.53
      160.0,      16.12,    15.39,    17.35,    15.28,    16.47
      161.0,      16.07,    15.33,    17.31,    15.23,    16.41
      162.0,      16.01,    15.27,    17.26,    15.17,    16.35
      163.0,      15.96,    15.20,    17.22,    15.11,    16.29
      164.0,      15.90,    15.14,    17.18,    15.06,    16.23
      165.0,      15.85,    15.08,    17.14,    15.00,    16.17
      166.0,      15.79,    15.02,    17.10,    14.94,    16.11
      167.0,      15.74,    14.96,    17.06,    14.89,    16.06
      168.0,      15.69,    14.90,    17.02,    14.83,    16.00
      169.0,      15.63,    14.84,    16.98,    14.78,    15.94
      170.0,      15.58,    14.78,    16.94,    14.73,    15.89
      171.0,      15.53,    14.72,    16.90,    14.67,    15.83
      172.0,      15.48,    14.66,    16.86,    14.62,    15.78
      173.0,      15.43,    14.60,    16.82,    14.57,    15.72
      174.0,      15.38,    14.54,    16.78,    14.51,    15.67
      175.0,      15.32,    14.48,    16.74,    14.46,    15.62
      176.0,      15.27,    14.43,    16.70,    14.41,    15.56
      177.0,      15.22,    14.37,    16.66,    14.36,    15.51
      178.0,      15.17,    14.31,    16.62,    14.31,    15.46
      179.0,      15.12,    14.25,    16.58,    14.25,    15.41
      180.0,      15.07,    14.20,    16.54,    14.20,    15.36
      181.0,      15.03,    14.14,    16.50,    14.15,    15.30
      182.0,      14.98,    14.08,    16.46,    14.10,    15.25
      183.0,      14.93,    14.03,    16.43,    14.05,    15.20
      184.0,      14.88,    13.97,    16.39,    14.00,    15.15
      185.0,      14.83,    13.92,    16.35,    13.96,    15.10
      186.0,      14.78,    13.86,    16.31,    13.91,    15.06
      187.0,      14.74,    13.81,    16.28,    13.86,    15.01
      188.0,      14.69,    13.75,    16.24,    13.81,    14.96
      189.0,      14.64,    13.70,    16.20,    13.76,    14.91
      190.0,      14.60,    13.64,    16.16,    13.71,    14.86
      191.0,      14.55,    13.59,    16.13,    13.67,    14.82
      192.0,      14.50,    13.54,    16.09,    13.62,    14.77
      193.0,      14.46,    13.48,    16.05,    13.57,    14.72
      194.0,      14.41,    13.43,    16.02,    13.53,    14.68
      195.0,      14.37,    13.38,    15.98,    13.48,    14.63
      196.0,      14.32,    13.32,    15.94,    13.44,    14.58
      197.0,      14.28,    13.27,    15.91,    13.39,    14.54
      198.0,      14.23,    13.22,    15.87,    13.35,    14.49
      199.0,      14.19,    13.17,    15.83,    13.30,    14.45
      200.0,      14.14,    13.11,    15.80,    13.26,    14.41
      201.0,      14.10,    13.06,    15.76,    13.21,    14.36
      202.0,      14.06,    13.01,    15.73,    13.17,    14.32
      203.0,      14.01,    12.96,    15.69,    13.12,    14.28
      204.0,      13.97,    12.91,    15.66,    13.08,    14.23
      205.0,      13.93,    12.86,    15.62,    13.04,    14.19
      206.0,      13.88,    12.81,    15.59,    12.99,    14.15
      207.0,      13.84,    12.76,    15.55,    12.95,    14.11
      208.0,      13.80,    12.71,    15.52,    12.91,    14.07
      209.0,      13.76,    12.66,    15.48,    12.87,    14.02
      210.0,      13.72,    12.61,    15.45,    12.83,    13.98
      211.0,      13.67,    12.56,    15.41,    12.78,    13.94
      212.0,      13.63,    12.51,    15.38,    12.74,    13.90
      213.0,      13.59,    12.46,    15.34,    12.70,    13.86
      214.0,      13.55,    12.41,    15.31,    12.66,    13.82
      215.0,      13.51,    12.36,    15.27,    12.62,    13.78
      216.0,      13.47,    12.31,    15.24,    12.58,    13.74
      217.0,      13.43,    12.27,    15.20,    12.54,    13.71
      218.0,      13.39,    12.22,    15.17,    12.50,    13.67
      219.0,      13.35,    12.17,    15.14,    12.46,    13.63
      220.0,      13.31,    12.12,    15.10,    12.42,    13.59
      221.0,      13.27,    12.08,    15.07,    12.38,    13.55
      222.0,      13.23,    12.03,    15.03,    12.34,    13.52
      223.0,      13.19,    11.98,    15.00,    12.30,    13.48
      224.0,      13.15,    11.94,    14.97,    12.26,    13.44
      225.0,      13.11,    11.89,    14.93,    12.23,    13.41
      226.0,      13.07,    11.84,    14.90,    12.19,    13.37
      227.0,      13.04,    11.80,    14.87,    12.15,    13.33
      228.0,      13.00,    11.75,    14.83,    12.11,    13.30
      229.0,      12.96,    11.70,    14.80,    12.07,    13.26
      230.0,      12.92,    11.66,    14.77,    12.04,    13.23
      231.0,      12.88,    11.61,    14.73,    12.00,    13.19
      232.0,      12.85,    11.57,    14.70,    11.96,    13.16
      233.0,      12.81,    11.52,    14.67,    11.93,    13.12
      234.0,      12.77,    11.48,    14.64,    11.89,    13.09
      235.0,      12.74,    11.43,    14.60,    11.85,    13.05
      236.0,      12.70,    11.39,    14.57,    11.82,    13.02
      237.0,      12.66,    11.34,    14.54,    11.78,    12.99
      238.0,      12.63,    11.30,    14.51,    11.75,    12.95
      239.0,      12.59,    11.26,    14.47,    11.71,    12.92
      240.0,      12.55,    11.21,    14.44,    11.68,    12.89
      241.0,      12.52,    11.17,    14.41,    11.64,    12.85
      242.0,      12.48,    11.12,    14.38,    11.61,    12.82
      243.0,      12.45,    11.08,    14.34,    11.57,    12.79
      244.0,      12.41,    11.04,    14.31,    11.54,    12.76
      245.0,      12.38,    11.00,    14.28,    11.50,    12.72
      246.0,      12.34,    10.95,    14.25,    11.47,    12.69
      247.0,      12.31,    10.91,    14.22,    11.44,    12.66
      248.0,      12.27,    10.87,    14.19,    11.40,    12.63
      249.0,      12.24,    10.82,    14.15,    11.37,    12.60
      250.0,      12.20,    10.78,    14.12,    11.34,    12.57
      251.0,      12.17,    10.74,    14.09,    11.30,    12.54
      252.0,      12.13,    10.70,    14.06,    11.27,    12.51
      253.0,      12.10,    10.66,    14.03,    11.24,    12.48
      254.0,      12.07,    10.62,    14.00,    11.20,    12.45
      255.0,      12.03,    10.57,    13.97,    11.17,    12.42
      256.0,      12.00,    10.53,    13.93,    11.14,    12.39
      257.0,      11.97,    10.49,    13.90,    11.11,    12.36
      258.0,      11.93,    10.45,    13.87,    11.07,    12.33
      259.0,      11.90,    10.41,    13.84,    11.04,    12.30
      260.0,      11.87,    10.37,    13.81,    11.01,    12.27
      261.0,      11.83,    10.33,    13.78,    10.98,    12.24
      262.0,      11.80,    10.29,    13.75,    10.95,    12.22
      263.0,      11.77,    10.25,    13.72,    10.92,    12.19
      264.0,      11.74,    10.21,    13.69,    10.89,    12.16
      265.0,      11.70,    10.17,    13.66,    10.86,    12.13
      266.0,      11.67,    10.13,    13.63,    10.83,    12.10
      267.0,      11.64,    10.09,    13.60,    10.79,    12.08
      268.0,      11.61,    10.05,    13.57,    10.76,    12.05
      269.0,      11.58,    10.01,    13.54,    10.73,    12.02
      270.0,      11.55,     9.97,    13.51,    10.70,    12.00
      271.0,      11.51,     9.94,    13.48,    10.67,    11.97
      272.0,      11.48,     9.90,    13.45,    10.64,    11.94
      273.0,      11.45,     9.86,    13.42,    10.62,    11.92
      274.0,      11.42,     9.82,    13.39,    10.59,    11.89
      275.0,      11.39,     9.78,    13.36,    10.56,    11.86
      276.0,      11.36,     9.74,    13.33,    10.53,    11.84
      277.0,      11.33,     9.71,    13.30,    10.50,    11.81
      278.0,      11.30,     9.67,    13.27,    10.47,    11.79
      279.0,      11.27,     9.63,    13.24,    10.44,    11.76
      280.0,      11.24,     9.59,    13.21,    10.41,    11.73
      281.0,      11.21,     9.56,    13.18,    10.38,    11.71
      282.0,      11.18,     9.52,    13.15,    10.36,    11.68
      283.0,      11.15,     9.48,    13.12,    10.33,    11.66
      284.0,      11.12,     9.44,    13.09,    10.30,    11.64
      285.0,      11.09,     9.41,    13.06,    10.27,    11.61
      286.0,      11.06,     9.37,    13.03,    10.24,    11.59
      287.0,      11.03,     9.34,    13.01,    10.22,    11.56
      288.0,      11.00,     9.30,    12.98,    10.19,    11.54
      289.0,      10.97,     9.26,    12.95,    10.16,    11.51
      290.0,      10.94,     9.23,    12.92,    10.13,    11.49
      291.0,      10.91,     9.19,    12.89,    10.11,    11.47
      292.0,      10.89,     9.16,    12.86,    10.08,    11.44
      293.0,      10.86,     9.12,    12.83,    10.05,    11.42
      294.0,      10.83,     9.08,    12.81,    10.03,    11.40
      295.0,      10.80,     9.05,    12.78,    10.00,    11.37
      296.0,      10.77,     9.01,    12.75,     9.97,    11.35
      297.0,      10.74,     8.98,    12.72,     9.95,    11.33
      298.0,      10.72,     8.94,    12.69,     9.92,    11.31
      299.0,      10.69,     8.91,    12.66,     9.89,    11.28
      300.0,      10.66,     8.87,    12.64,     9.87,    11.26
      301.0,      10.63,     8.84,    12.61,     9.84,    11.24
      302.0,      10.60,     8.81,    12.58,     9.82,    11.22
      303.0,      10.58,     8.77,    12.55,     9.79,    11.19
      304.0,      10.55,     8.74,    12.52,     9.77,    11.17
      305.0,      10.52,     8.70,    12.50,     9.74,    11.15
      306.0,      10.50,     8.67,    12.47,     9.72,    11.13
      307.0,      10.47,     8.64,    12.44,     9.69,    11.11
      308.0,      10.44,     8.60,    12.41,     9.67,    11.09
      309.0,      10.41,     8.57,    12.39,     9.64,    11.06
      310.0,      10.39,     8.54,    12.36,     9.62,    11.04
