Radius (km), Mean (m/s), NE (m/s), SE (m/s), SW (m/s), NW (m/s)
        0.0,       0.00,     0.00,     0.00,     0.00,     0.00
        1.0,       0.57,     0.62,     0.41,     0.62,     0.62
        2.0,       1.08,     1.16,     0.84,     1.16,     1.16
        3.0,       1.57,     1.67,     1.27,     1.67,     1.67
        4.0,       2.05,     2.17,     1.71,     2.17,     2.17
        5.0,       2.52,     2.65,     2.15,     2.65,     2.65
        6.0,       2.99,     3.12,     2.59,     3.12,     3.12
        7.0,       3.45,     3.59,     3.04,     3.59,     3.59
        8.0,       3.91,     4.04,     3.49,     4.04,     4.04
        9.0,       4.36,     4.50,     3.93,     4.50,     4.50
       10.0,       4.81,     4.95,     4.38,     4.95,     4.95
       11.0,       5.25,     5.39,     4.84,     5.39,     5.39
       12.0,       5.69,     5.83,     5.29,     5.83,     5.83
       13.0,       6.13,     6.27,     5.74,     6.27,     6.27
       14.0,       6.57,     6.70,     6.20,     6.70,     6.70
       15.0,       7.01,     7.13,     6.65,     7.13,     7.13
       16.0,       7.44,     7.56,     7.11,     7.56,     7.56
       17.0,       7.88,     7.98,     7.57,     7.98,     7.98
       18.0,       8.31,     8.40,     8.02,     8.40,     8.40
       19.0,       8.74,     8.82,     8.48,     8.82,     8.82
       20.0,       9.16,     9.24,     8.94,     9.24,     9.24
       21.0,       9.59,     9.65,     9.40,     9.65,     9.65
       22.0,      10.02,    10.07,     9.86,    10.07,    10.07
       23.0,      10.44,    10.48,    10.33,    10.48,    10.48
       24.0,      10.86,    10.89,    10.79,    10.89,    10.89
       25.0,      11.28,    11.30,    11.25,    11.30,    11.30
       26.0,      11.71,    11.70,    11.71,    11.70,    11.70
       27.0,      12.13,    12.11,    12.18,    12.11,    12.11
       28.0,      12.54,    12.51,    12.64,    12.51,    12.51
       29.0,      12.96,    12.91,    13.10,    12.91,    12.91
       30.0,      13.38,    13.31,    13.57,    13.31,    13.31
       31.0,      13.79,    13.71,    14.03,    13.71,    13.71
       32.0,      14.21,    14.11,    14.50,    14.11,    14.11
       33.0,      14.62,    14.51,    14.97,    14.51,    14.51
       34.0,      15.04,    14.90,    15.43,    14.90,    14.90
       35.0,      15.45,    15.30,    15.90,    15.30,    15.30
       36.0,      15.86,    15.69,    16.37,    15.69,    15.69
       37.0,      16.27,    16.09,    16.83,    16.09,    16.09
       38.0,      16.68,    16.48,    17.30,    16.48,    16.48
       39.0,      17.09,    16.87,    17.77,    16.87,    16.87
       40.0,      17.50,    17.26,    18.24,    17.26,    17.26
       41.0,      17.91,    17.64,    18.71,    17.64,    17.64
       42.0,      18.32,    18.03,    19.18,    18.03,    18.03
       43.0,      18.73,    18.42,    19.65,    18.42,    18.42
       44.0,      19.13,    18.80,    20.12,    18.80,    18.80
       45.0,      19.54,    19.19,    20.59,    19.19,    19.19
       46.0,      19.94,    19.57,    21.06,    19.57,    19.57
       47.0,      20.35,    19.96,    21.53,    19.96,    19.96
       48.0,      20.75,    20.34,    22.00,    20.34,    20.34
       49.0,      21.16,    20.72,    22.47,    20.72,    20.72
       50.0,      21.56,    21.10,    22.94,    21.10,    21.10
       51.0,      21.96,    21.48,    23.42,    21.48,    21.48
       52.0,      22.37,    21.86,    23.89,    21.86,    21.86
       53.0,      22.77,    22.24,    24.36,    22.24,    22.24
       54.0,      23.17,    22.62,    24.83,    22.62,    22.62
       55.0,      23.57,    22.99,    25.31,    22.99,    22.99
       56.0,      23.97,    23.37,    25.78,    23.37,    23.37
       57.0,      24.37,    23.75,    26.25,    23.75,    23.75
       58.0,      24.77,    24.12,    26.73,    24.12,    24.12
       59.0,      25.17,    24.50,    27.20,    24.50,    24.50
       60.0,      25.57,    24.87,    27.67,    24.87,    24.87
       61.0,      25.97,    25.24,    28.15,    25.24,    25.24
       62.0,      26.37,    25.62,    28.62,    25.62,    25.62
       63.0,      26.77,    25.99,    29.10,    25.99,    25.99
       64.0,      27.16,    26.36,    29.57,    26.36,    26.36
       65.0,      27.56,    26.73,    30.05,    26.73,    26.73
       66.0,      27.96,    27.10,    30.52,    27.10,    27.10
       67.0,      28.35,    27.47,    31.00,    27.47,    27.47
       68.0,      28.75,    27.84,    31.48,    27.84,    27.84
       69.0,      29.14,    28.21,    31.95,    28.21,    28.21
       70.0,      29.54,    28.58,    32.43,    28.58,    28.58
       71.0,      29.93,    28.94,    32.90,    28.94,    28.94
       72.0,      30.33,    29.31,    33.38,    29.31,    29.31
       73.0,      30.72,    29.68,    33.86,    29.68,    29.68
       74.0,      31.12,    30.04,    34.33,    30.04,    30.04
       75.0,      31.51,    30.41,    34.81,    30.41,    30.41
       76.0,      31.90,    30.78,    35.29,    30.78,    30.78
       77.0,      32.30,    31.14,    35.77,    31.14,    31.14
       78.0,      32.69,    31.50,    36.24,    31.50,    31.50
       79.0,      33.08,    31.87,    36.72,    31.87,    31.87
       80.0,      33.47,    32.23,    37.20,    32.23,    32.23
       81.0,      33.87,    32.59,    37.68,    32.59,    32.59
       82.0,      34.26,    32.96,    38.16,    32.96,    32.96
       83.0,      34.65,    33.32,    38.64,    33.32,    33.32
       84.0,      35.04,    33.68,    39.11,    33.68,    33.68
       85.0,      35.43,    34.04,    39.59,    34.04,    34.04
       86.0,      35.82,    34.40,    40.07,    34.40,    34.40
       87.0,      36.21,    34.76,    40.55,    34.76,    34.76
       88.0,      36.60,    35.12,    41.03,    35.12,    35.12
       89.0,      36.99,    35.48,    41.51,    35.48,    35.48
       90.0,      37.38,    35.84,    41.99,    35.84,    35.84
       91.0,      37.77,    36.20,    42.47,    36.20,    36.20
       92.0,      38.16,    36.56,    42.95,    36.56,    36.56
       93.0,      38.55,    36.92,    43.43,    36.92,    36.92
       94.0,      38.93,    37.27,    43.91,    37.27,    37.27
       95.0,      39.32,    37.63,    44.39,    37.63,    37.63
       96.0,      39.71,    37.99,    44.87,    37.99,    37.99
       97.0,      40.10,    38.35,    45.35,    38.35,    38.35
       98.0,      40.50,    38.70,    45.84,    38.71,    38.75
       99.0,      40.93,    39.07,    46.37,    39.10,    39.20
      100.0,      41.42,    39.46,    46.98,    39.53,    39.73
      101.0,      41.99,    39.90,    47.68,    40.04,    40.36
      102.0,      42.65,    40.42,    48.50,    40.61,    41.05
      103.0,      43.37,    41.02,    49.40,    41.25,    41.79
      104.0,      44.11,    41.68,    50.33,    41.92,    42.52
      105.0,      44.83,    42.35,    51.23,    42.56,    43.18
      106.0,      45.46,    42.98,    52.01,    43.13,    43.71
      107.0,      45.93,    43.49,    52.60,    43.56,    44.06
      108.0,      46.20,    43.82,    52.94,    43.82,    44.20
      109.0,      46.23,    43.93,    52.98,    43.88,    44.12
      110.0,      46.03,    43.79,    52.74,    43.73,    43.85
      111.0,      45.61,    43.40,    52.23,    43.39,    43.40
      112.0,      45.01,    42.80,    51.51,    42.90,    42.84
      113.0,      44.29,    42.02,    50.63,    42.29,    42.20
      114.0,      43.49,    41.13,    49.68,    41.61,    41.53
      115.0,      42.67,    40.20,    48.72,    40.91,    40.88
      116.0,      41.88,    39.26,    47.78,    40.22,    40.25
      117.0,      41.12,    38.37,    46.89,    39.57,    39.66
      118.0,      40.41,    37.54,    46.07,    38.95,    39.10
      119.0,      39.75,    36.77,    45.30,    38.36,    38.57
      120.0,      39.12,    36.05,    44.56,    37.79,    38.06
      121.0,      38.51,    35.37,    43.85,    37.23,    37.57
      122.0,      37.92,    34.72,    43.17,    36.69,    37.10
      123.0,      37.36,    34.09,    42.52,    36.16,    36.65
      124.0,      36.81,    33.49,    41.89,    35.65,    36.21
      125.0,      36.28,    32.91,    41.28,    35.14,    35.79
      126.0,      35.77,    32.34,    40.69,    34.65,    35.38
      127.0,      35.27,    31.80,    40.13,    34.17,    34.99
      128.0,      34.80,    31.28,    39.59,    33.70,    34.61
      129.0,      34.34,    30.78,    39.06,    33.25,    34.25
      130.0,      33.89,    30.30,    38.56,    32.80,    33.90
      131.0,      33.46,    29.83,    38.07,    32.36,    33.57
      132.0,      33.04,    29.38,    37.60,    31.94,    33.24
      133.0,      32.64,    28.95,    37.15,    31.52,    32.93
      134.0,      32.25,    28.53,    36.71,    31.11,    32.63
      135.0,      31.87,    28.13,    36.29,    30.72,    32.34
      136.0,      31.50,    27.74,    35.88,    30.33,    32.05
      137.0,      31.15,    27.37,    35.49,    29.95,    31.78
      138.0,      30.81,    27.00,    35.11,    29.58,    31.52
      139.0,      30.47,    26.66,    34.74,    29.22,    31.27
      140.0,      30.15,    26.32,    34.39,    28.87,    31.03
      141.0,      29.84,    26.00,    34.05,    28.52,    30.80
      142.0,      29.54,    25.68,    33.72,    28.19,    30.57
      143.0,      29.25,    25.38,    33.41,    27.86,    30.35
      144.0,      28.97,    25.09,    33.10,    27.54,    30.14
      145.0,      28.69,    24.81,    32.80,    27.23,    29.94
      146.0,      28.43,    24.54,    32.52,    26.92,    29.74
      147.0,      28.17,    24.27,    32.24,    26.62,    29.55
      148.0,      27.92,    24.02,    31.97,    26.33,    29.37
      149.0,      27.68,    23.77,    31.71,    26.05,    29.19
      150.0,      27.45,    23.54,    31.46,    25.77,    29.02
      151.0,      27.22,    23.31,    31.22,    25.50,    28.86
      152.0,      27.00,    23.09,    30.99,    25.23,    28.70
      153.0,      26.79,    22.87,    30.76,    24.97,    28.54
      154.0,      26.58,    22.66,    30.54,    24.72,    28.39
      155.0,      26.38,    22.46,    30.33,    24.47,    28.25
      156.0,      26.18,    22.27,    30.13,    24.23,    28.11
      157.0,      25.99,    22.08,    29.93,    23.99,    27.97
      158.0,      25.81,    21.90,    29.73,    23.76,    27.84
      159.0,      25.63,    21.72,    29.55,    23.53,    27.72
      160.0,      25.46,    21.55,    29.37,    23.31,    27.59
      161.0,      25.29,    21.39,    29.19,    23.10,    27.47
      162.0,      25.12,    21.23,    29.02,    22.89,    27.36
      163.0,      24.96,    21.07,    28.86,    22.68,    27.25
      164.0,      24.81,    20.92,    28.69,    22.48,    27.14
      165.0,      24.66,    20.78,    28.54,    22.28,    27.03
      166.0,      24.51,    20.64,    28.39,    22.09,    26.93
      167.0,      24.37,    20.50,    28.24,    21.90,    26.83
      168.0,      24.23,    20.37,    28.10,    21.72,    26.74
      169.0,      24.10,    20.24,    27.96,    21.54,    26.65
      170.0,      23.96,    20.11,    27.83,    21.36,    26.55
      171.0,      23.84,    19.99,    27.70,    21.19,    26.47
      172.0,      23.71,    19.87,    27.57,    21.02,    26.38
      173.0,      23.59,    19.76,    27.44,    20.86,    26.30
      174.0,      23.47,    19.64,    27.32,    20.70,    26.22
      175.0,      23.36,    19.53,    27.21,    20.54,    26.14
      176.0,      23.24,    19.43,    27.09,    20.39,    26.06
      177.0,      23.13,    19.33,    26.98,    20.24,    25.99
      178.0,      23.03,    19.23,    26.87,    20.09,    25.92
      179.0,      22.92,    19.13,    26.77,    19.95,    25.85
      180.0,      22.82,    19.03,    26.66,    19.81,    25.78
      181.0,      22.72,    18.94,    26.56,    19.67,    25.71
      182.0,      22.62,    18.85,    26.47,    19.54,    25.65
      183.0,      22.53,    18.76,    26.37,    19.41,    25.58
      184.0,      22.44,    18.68,    26.28,    19.28,    25.52
      185.0,      22.35,    18.59,    26.18,    19.15,    25.46
      186.0,      22.26,    18.51,    26.10,    19.03,    25.40
      187.0,      22.17,    18.43,    26.01,    18.91,    25.34
      188.0,      22.09,    18.35,    25.92,    18.79,    25.29
      189.0,      22.01,    18.28,    25.84,    18.68,    25.23
      190.0,      21.92,    18.20,    25.76,    18.56,    25.18
      191.0,      21.85,    18.13,    25.68,    18.45,    25.13
      192.0,      21.77,    18.06,    25.60,    18.34,    25.07
      193.0,      21.69,    17.99,    25.52,    18.24,    25.02
      194.0,      21.62,    17.92,    25.45,    18.14,    24.97
      195.0,      21.55,    17.85,    25.37,    18.03,    24.93
      196.0,      21.47,    17.79,    25.30,    17.94,    24.88
      197.0,      21.41,    17.72,    25.23,    17.84,    24.83
      198.0,      21.34,    17.66,    25.16,    17.74,    24.79
      199.0,      21.27,    17.60,    25.09,    17.65,    24.74
      200.0,      21.20,    17.54,    25.02,    17.56,    24.70
      201.0,      21.14,    17.48,    24.96,    17.47,    24.66
      202.0,      21.08,    17.42,    24.89,    17.38,    24.61
      203.0,      21.01,    17.36,    24.83,    17.30,    24.57
      204.0,      20.95,    17.30,    24.76,    17.21,    24.53
      205.0,      20.89,    17.25,    24.70,    17.13,    24.49
      206.0,      20.83,    17.19,    24.64,    17.05,    24.45
      207.0,      20.78,    17.14,    24.58,    16.97,    24.41
      208.0,      20.72,    17.09,    24.52,    16.90,    24.37
      209.0,      20.66,    17.04,    24.46,    16.82,    24.34
      210.0,      20.61,    16.99,    24.40,    16.75,    24.30
      211.0,      20.55,    16.94,    24.35,    16.67,    24.26
      212.0,      20.50,    16.89,    24.29,    16.60,    24.23
      213.0,      20.45,    16.84,    24.24,    16.53,    24.19
      214.0,      20.40,    16.79,    24.18,    16.46,    24.15
      215.0,      20.35,    16.74,    24.13,    16.40,    24.12
      216.0,      20.30,    16.69,    24.08,    16.33,    24.09
      217.0,      20.25,    16.65,    24.02,    16.27,    24.05
      218.0,      20.20,    16.60,    23.97,    16.20,    24.02
      219.0,      20.15,    16.56,    23.92,    16.14,    23.99
      220.0,      20.10,    16.51,    23.87,    16.08,    23.95
      221.0,      20.06,    16.47,    23.82,    16.02,    23.92
      222.0,      20.01,    16.43,    23.77,    15.96,    23.89
      223.0,      19.97,    16.38,    23.72,    15.90,    23.86
      224.0,      19.92,    16.34,    23.67,    15.85,    23.83
      225.0,      19.88,    16.30,    23.62,    15.79,    23.80
      226.0,      19.83,    16.26,    23.58,    15.74,    23.77
      227.0,      19.79,    16.22,    23.53,    15.68,    23.73
      228.0,      19.75,    16.18,    23.48,    15.63,    23.70
      229.0,      19.71,    16.14,    23.43,    15.58,    23.68
      230.0,      19.66,    16.10,    23.39,    15.53,    23.65
      231.0,      19.62,    16.06,    23.34,    15.48,    23.62
      232.0,      19.58,    16.02,    23.30,    15.43,    23.59
      233.0,      19.54,    15.98,    23.25,    15.38,    23.56
      234.0,      19.50,    15.94,    23.21,    15.34,    23.53
      235.0,      19.46,    15.90,    23.16,    15.29,    23.50
      236.0,      19.43,    15.86,    23.12,    15.24,    23.47
      237.0,      19.39,    15.83,    23.08,    15.20,    23.45
      238.0,      19.35,    15.79,    23.03,    15.16,    23.42
      239.0,      19.31,    15.75,    22.99,    15.11,    23.39
      240.0,      19.27,    15.72,    22.95,    15.07,    23.36
      241.0,      19.24,    15.68,    22.91,    15.03,    23.34
      242.0,      19.20,    15.65,    22.86,    14.99,    23.31
      243.0,      19.17,    15.61,    22.82,    14.95,    23.28
      244.0,      19.13,    15.57,    22.78,    14.91,    23.26
      245.0,      19.09,    15.54,    22.74,    14.87,    23.23
      246.0,      19.06,    15.50,    22.70,    14.83,    23.20
      247.0,      19.02,    15.47,    22.66,    14.79,    23.18
      248.0,      18.99,    15.43,    22.62,    14.75,    23.15
      249.0,      18.96,    15.40,    22.58,    14.72,    23.13
      250.0,      18.92,    15.37,    22.54,    14.68,    23.10
      251.0,      18.89,    15.33,    22.50,    14.65,    23.07
      252.0,      18.85,    15.30,    22.46,    14.61,    23.05
      253.0,      18.82,    15.27,    22.42,    14.58,    23.02
      254.0,      18.79,    15.23,    22.38,    14.54,    23.00
      255.0,      18.76,    15.20,    22.34,    14.51,    22.97
      256.0,      18.72,    15.17,    22.30,    14.48,    22.95
      257.0,      18.69,    15.13,    22.26,    14.44,    22.92
      258.0,      18.66,    15.10,    22.22,    14.41,    22.90
      259.0,      18.63,    15.07,    22.18,    14.38,    22.87
      260.0,      18.60,    15.04,    22.15,    14.35,    22.85
      261.0,      18.56,    15.00,    22.11,    14.32,    22.83
      262.0,      18.53,    14.97,    22.07,    14.29,    22.80
      263.0,      18.50,    14.94,    22.03,    14.26,    22.78
      264.0,      18.47,    14.91,    21.99,    14.23,    22.75
      265.0,      18.44,    14.88,    21.96,    14.20,    22.73
      266.0,      18.41,    14.85,    21.92,    14.17,    22.70
      267.0,      18.38,    14.81,    21.88,    14.14,    22.68
      268.0,      18.35,    14.78,    21.84,    14.12,    22.66
      269.0,      18.32,    14.75,    21.81,    14.09,    22.63
      270.0,      18.29,    14.72,    21.77,    14.06,    22.61
      271.0,      18.26,    14.69,    21.73,    14.03,    22.58
      272.0,      18.23,    14.66,    21.70,    14.01,    22.56
      273.0,      18.20,    14.63,    21.66,    13.98,    22.54
      274.0,      18.17,    14.60,    21.62,    13.96,    22.51
      275.0,      18.14,    14.57,    21.59,    13.93,    22.49
      276.0,      18.12,    14.54,    21.55,    13.91,    22.47
      277.0,      18.09,    14.51,    21.52,    13.88,    22.44
      278.0,      18.06,    14.48,    21.48,    13.86,    22.42
      279.0,      18.03,    14.45,    21.44,    13.83,    22.40
      280.0,      18.00,    14.42,    21.41,    13.81,    22.37
      281.0,      17.97,    14.39,    21.37,    13.78,    22.35
      282.0,      17.95,    14.36,    21.34,    13.76,    22.33
      283.0,      17.92,    14.33,    21.30,    13.74,    22.30
      284.0,      17.89,    14.30,    21.27,    13.71,    22.28
      285.0,      17.86,    14.27,    21.23,    13.69,    22.26
      286.0,      17.84,    14.24,    21.20,    13.67,    22.24
      287.0,      17.81,    14.21,    21.16,    13.65,    22.21
      288.0,      17.78,    14.19,    21.13,    13.63,    22.19
      289.0,      17.75,    14.16,    21.09,    13.60,    22.17
      290.0,      17.73,    14.13,    21.06,    13.58,    22.15
      291.0,      17.70,    14.10,    21.02,    13.56,    22.12
      292.0,      17.67,    14.07,    20.99,    13.54,    22.10
      293.0,      17.65,    14.04,    20.95,    13.52,    22.08
      294.0,      17.62,    14.01,    20.92,    13.50,    22.05
      295.0,      17.59,    13.98,    20.88,    13.48,    22.03
      296.0,      17.57,    13.96,    20.85,    13.46,    22.01
      297.0,      17.54,    13.93,    20.81,    13.44,    21.99
      298.0,      17.52,    13.90,    20.78,    13.42,    21.97
      299.0,      17.49,    13.87,    20.75,    13.40,    21.94
      300.0,      17.46,    13.84,    20.71,    13.38,    21.92
      301.0,      17.44,    13.82,    20.68,    13.36,    21.90
      302.0,      17.41,    13.79,    20.64,    13.34,    21.88
      303.0,      17.39,    13.76,    20.61,    13.32,    21.85
      304.0,      17.36,    13.73,    20.58,    13.30,    21.83
      305.0,      17.34,    13.71,    20.54,    13.28,    21.81
      306.0,      17.31,    13.68,    20.51,    13.26,    21.79
      307.0,      17.28,    13.65,    20.48,    13.24,    21.77
      308.0,      17.26,    13.62,    20.44,    13.23,    21.74
      309.0,      17.23,    13.60,    20.41,    13.21,    21.72
      310.0,      17.21,    13.57,    20.38,    13.19,    21.70
