Radius (km), Mean (m/s), NE (m/s), SE (m/s), SW (m/s), NW (m/s)
        0.0,       0.00,     0.00,     0.00,     0.00,     0.00
        1.0,       0.79,     0.67,     0.82,     0.84,     0.84
        2.0,       1.41,     1.24,     1.44,     1.47,     1.47
        3.0,       1.97,     1.77,     2.01,     2.04,     2.04
        4.0,       2.49,     2.28,     2.54,     2.58,     2.58
        5.0,       3.00,     2.78,     3.05,     3.09,     3.09
        6.0,       3.49,     3.27,     3.54,     3.57,     3.57
        7.0,       3.96,     3.74,     4.01,     4.05,     4.05
        8.0,       4.42,     4.21,     4.47,     4.51,     4.51
        9.0,       4.88,     4.67,     4.92,     4.96,     4.96
       10.0,       5.32,     5.13,     5.37,     5.40,     5.40
       11.0,       5.76,     5.58,     5.80,     5.83,     5.83
       12.0,       6.19,     6.02,     6.23,     6.25,     6.25
       13.0,       6.61,     6.46,     6.65,     6.67,     6.67
       14.0,       7.03,     6.90,     7.06,     7.08,     7.08
       15.0,       7.44,     7.33,     7.47,     7.49,     7.49
       16.0,       7.85,     7.76,     7.88,     7.89,     7.89
       17.0,       8.26,     8.19,     8.28,     8.28,     8.28
       18.0,       8.66,     8.61,     8.67,     8.67,     8.67
       19.0,       9.05,     9.03,     9.06,     9.06,     9.06
       20.0,       9.44,     9.45,     9.45,     9.44,     9.44
       21.0,       9.83,     9.86,     9.84,     9.82,     9.82
       22.0,      10.22,    10.28,    10.22,    10.19,    10.19
       23.0,      10.60,    10.69,    10.59,    10.57,    10.57
       24.0,      10.98,    11.10,    10.97,    10.94,    10.94
       25.0,      11.36,    11.50,    11.34,    11.30,    11.30
       26.0,      11.74,    11.91,    11.71,    11.67,    11.67
       27.0,      12.11,    12.31,    12.08,    12.03,    12.03
       28.0,      12.48,    12.71,    12.44,    12.38,    12.38
       29.0,      12.85,    13.11,    12.80,    12.74,    12.74
       30.0,      13.21,    13.51,    13.16,    13.09,    13.09
       31.0,      13.58,    13.91,    13.52,    13.44,    13.44
       32.0,      13.94,    14.31,    13.87,    13.79,    13.79
       33.0,      14.30,    14.70,    14.23,    14.14,    14.14
       34.0,      14.66,    15.09,    14.58,    14.48,    14.48
       35.0,      15.02,    15.48,    14.93,    14.83,    14.83
       36.0,      15.37,    15.87,    15.27,    15.17,    15.17
       37.0,      15.72,    16.26,    15.62,    15.51,    15.51
       38.0,      16.07,    16.65,    15.96,    15.84,    15.84
       39.0,      16.42,    17.03,    16.31,    16.18,    16.18
       40.0,      16.77,    17.42,    16.65,    16.51,    16.51
       41.0,      17.12,    17.80,    16.99,    16.84,    16.84
       42.0,      17.46,    18.18,    17.32,    17.18,    17.18
       43.0,      17.81,    18.57,    17.66,    17.50,    17.50
       44.0,      18.15,    18.95,    18.00,    17.83,    17.83
       45.0,      18.49,    19.33,    18.33,    18.16,    18.16
       46.0,      18.83,    19.70,    18.66,    18.48,    18.48
       47.0,      19.17,    20.08,    18.99,    18.81,    18.81
       48.0,      19.51,    20.46,    19.32,    19.13,    19.13
       49.0,      19.85,    20.83,    19.65,    19.45,    19.45
       50.0,      20.18,    21.21,    19.98,    19.77,    19.77
       51.0,      20.51,    21.58,    20.30,    20.09,    20.09
       52.0,      20.85,    21.96,    20.63,    20.40,    20.40
       53.0,      21.18,    22.33,    20.95,    20.72,    20.72
       54.0,      21.51,    22.70,    21.27,    21.04,    21.04
       55.0,      21.84,    23.07,    21.59,    21.35,    21.35
       56.0,      22.17,    23.44,    21.91,    21.66,    21.66
       57.0,      22.50,    23.81,    22.23,    21.97,    21.97
       58.0,      22.82,    24.18,    22.55,    22.28,    22.28
       59.0,      23.15,    24.54,    22.87,    22.59,    22.59
       60.0,      23.47,    24.91,    23.18,    22.90,    22.90
       61.0,      23.80,    25.28,    23.50,    23.21,    23.21
       62.0,      24.12,    25.64,    23.81,    23.52,    23.52
       63.0,      24.44,    26.01,    24.13,    23.82,    23.82
       64.0,      24.76,    26.37,    24.44,    24.13,    24.13
       65.0,      25.09,    26.73,    24.75,    24.43,    24.43
       66.0,      25.41,    27.10,    25.06,    24.73,    24.73
       67.0,      25.72,    27.46,    25.37,    25.03,    25.03
       68.0,      26.04,    27.82,    25.68,    25.33,    25.33
       69.0,      26.36,    28.18,    25.99,    25.63,    25.63
       70.0,      26.68,    28.54,    26.29,    25.93,    25.93
       71.0,      26.99,    28.90,    26.60,    26.23,    26.23
       72.0,      27.31,    29.26,    26.91,    26.53,    26.53
       73.0,      27.62,    29.62,    27.21,    26.83,    26.83
       74.0,      27.93,    29.98,    27.51,    27.12,    27.12
       75.0,      28.25,    30.33,    27.82,    27.42,    27.42
       76.0,      28.56,    30.69,    28.12,    27.71,    27.71
       77.0,      28.87,    31.05,    28.42,    28.01,    28.01
       78.0,      29.18,    31.40,    28.72,    28.30,    28.30
       79.0,      29.49,    31.76,    29.02,    28.59,    28.59
       80.0,      29.80,    32.11,    29.32,    28.88,    28.88
       81.0,      30.11,    32.46,    29.62,    29.17,    29.17
       82.0,      30.42,    32.82,    29.92,    29.46,    29.46
       83.0,      30.72,    33.17,    30.22,    29.75,    29.75
       84.0,      31.03,    33.52,    30.52,    30.04,    30.04
       85.0,      31.34,    33.88,    30.81,    30.33,    30.33
       86.0,      31.64,    34.23,    31.11,    30.62,    30.62
       87.0,      31.95,    34.58,    31.40,    30.91,    30.91
       88.0,      32.25,    34.93,    31.70,    31.19,    31.19
       89.0,      32.56,    35.28,    31.99,    31.48,    31.48
       90.0,      32.86,    35.63,    32.29,    31.76,    31.76
       91.0,      33.16,    35.98,    32.58,    32.05,    32.05
       92.0,      33.46,    36.33,    32.87,    32.33,    32.33
       93.0,      33.77,    36.67,    33.16,    32.61,    32.61
       94.0,      34.07,    37.02,    33.45,    32.90,    32.90
       95.0,      34.37,    37.37,    33.74,    33.18,    33.18
       96.0,      34.67,    37.72,    34.03,    33.46,    33.46
       97.0,      34.97,    38.07,    34.32,    33.74,    33.74
       98.0,      35.27,    38.44,    34.61,    34.02,    34.02
       99.0,      35.60,    38.85,    34.92,    34.30,    34.32
      100.0,      35.96,    39.34,    35.26,    34.60,    34.63
      101.0,      36.36,    39.90,    35.66,    34.92,    34.97
      102.0,      36.82,    40.53,    36.11,    35.29,    35.35
      103.0,      37.32,    41.21,    36.62,    35.71,    35.76
      104.0,      37.85,    41.88,    37.15,    36.16,    36.19
      105.0,      38.36,    42.51,    37.67,    36.64,    36.61
      106.0,      38.81,    43.02,    38.13,    37.09,    36.99
      107.0,      39.17,    43.39,    38.50,    37.47,    37.32
      108.0,      39.40,    43.56,    38.72,    37.75,    37.55
      109.0,      39.48,    43.54,    38.78,    37.89,    37.69
      110.0,      39.40,    43.34,    38.66,    37.87,    37.73
      111.0,      39.18,    42.97,    38.39,    37.68,    37.66
      112.0,      38.83,    42.47,    37.99,    37.35,    37.52
      113.0,      38.40,    41.90,    37.49,    36.89,    37.31
      114.0,      37.91,    41.29,    36.94,    36.35,    37.07
      115.0,      37.41,    40.68,    36.37,    35.77,    36.81
      116.0,      36.91,    40.09,    35.81,    35.18,    36.55
      117.0,      36.44,    39.53,    35.29,    34.62,    36.31
      118.0,      35.99,    39.00,    34.80,    34.09,    36.08
      119.0,      35.58,    38.50,    34.34,    33.60,    35.87
      120.0,      35.18,    38.01,    33.90,    33.15,    35.67
      121.0,      34.80,    37.54,    33.49,    32.72,    35.48
      122.0,      34.44,    37.08,    33.09,    32.31,    35.29
      123.0,      34.09,    36.63,    32.70,    31.91,    35.10
      124.0,      33.74,    36.20,    32.32,    31.52,    34.92
      125.0,      33.41,    35.78,    31.96,    31.15,    34.75
      126.0,      33.09,    35.38,    31.62,    30.79,    34.58
      127.0,      32.78,    34.98,    31.28,    30.44,    34.41
      128.0,      32.48,    34.60,    30.95,    30.11,    34.25
      129.0,      32.18,    34.23,    30.64,    29.78,    34.09
      130.0,      31.90,    33.86,    30.34,    29.47,    33.93
      131.0,      31.62,    33.51,    30.05,    29.16,    33.78
      132.0,      31.36,    33.17,    29.76,    28.87,    33.63
      133.0,      31.10,    32.84,    29.49,    28.58,    33.48
      134.0,      30.85,    32.52,    29.23,    28.30,    33.34
      135.0,      30.60,    32.21,    28.97,    28.03,    33.20
      136.0,      30.37,    31.91,    28.72,    27.77,    33.06
      137.0,      30.14,    31.62,    28.49,    27.52,    32.93
      138.0,      29.92,    31.33,    28.25,    27.28,    32.80
      139.0,      29.70,    31.06,    28.03,    27.04,    32.67
      140.0,      29.49,    30.79,    27.82,    26.81,    32.54
      141.0,      29.28,    30.53,    27.61,    26.58,    32.42
      142.0,      29.09,    30.27,    27.40,    26.37,    32.30
      143.0,      28.89,    30.03,    27.21,    26.16,    32.18
      144.0,      28.71,    29.79,    27.02,    25.95,    32.06
      145.0,      28.52,    29.56,    26.83,    25.75,    31.95
      146.0,      28.34,    29.33,    26.66,    25.56,    31.84
      147.0,      28.17,    29.11,    26.48,    25.37,    31.72
      148.0,      28.00,    28.90,    26.32,    25.19,    31.61
      149.0,      27.84,    28.69,    26.15,    25.01,    31.51
      150.0,      27.68,    28.49,    25.99,    24.83,    31.40
      151.0,      27.52,    28.29,    25.84,    24.67,    31.30
      152.0,      27.37,    28.10,    25.69,    24.50,    31.20
      153.0,      27.23,    27.92,    25.55,    24.34,    31.09
      154.0,      27.08,    27.74,    25.41,    24.18,    31.00
      155.0,      26.94,    27.56,    25.27,    24.03,    30.90
      156.0,      26.81,    27.39,    25.14,    23.88,    30.80
      157.0,      26.67,    27.23,    25.01,    23.74,    30.71
      158.0,      26.54,    27.07,    24.89,    23.60,    30.61
      159.0,      26.41,    26.91,    24.77,    23.46,    30.52
      160.0,      26.29,    26.76,    24.65,    23.33,    30.43
      161.0,      26.17,    26.61,    24.53,    23.19,    30.34
      162.0,      26.05,    26.47,    24.42,    23.07,    30.25
      163.0,      25.93,    26.33,    24.31,    22.94,    30.16
      164.0,      25.82,    26.19,    24.20,    22.82,    30.07
      165.0,      25.71,    26.06,    24.10,    22.70,    29.99
      166.0,      25.60,    25.93,    24.00,    22.58,    29.90
      167.0,      25.50,    25.80,    23.90,    22.47,    29.82
      168.0,      25.39,    25.68,    23.80,    22.35,    29.73
      169.0,      25.29,    25.56,    23.71,    22.24,    29.65
      170.0,      25.19,    25.44,    23.62,    22.13,    29.57
      171.0,      25.09,    25.33,    23.53,    22.03,    29.49
      172.0,      25.00,    25.22,    23.44,    21.93,    29.41
      173.0,      24.90,    25.11,    23.36,    21.82,    29.33
      174.0,      24.81,    25.00,    23.27,    21.72,    29.25
      175.0,      24.72,    24.90,    23.19,    21.63,    29.17
      176.0,      24.63,    24.80,    23.11,    21.53,    29.10
      177.0,      24.55,    24.70,    23.03,    21.43,    29.02
      178.0,      24.46,    24.61,    22.96,    21.34,    28.94
      179.0,      24.38,    24.51,    22.88,    21.25,    28.87
      180.0,      24.30,    24.42,    22.81,    21.16,    28.79
      181.0,      24.22,    24.33,    22.73,    21.07,    28.72
      182.0,      24.14,    24.25,    22.66,    20.99,    28.65
      183.0,      24.06,    24.16,    22.59,    20.90,    28.57
      184.0,      23.98,    24.08,    22.53,    20.82,    28.50
      185.0,      23.91,    24.00,    22.46,    20.73,    28.43
      186.0,      23.83,    23.92,    22.39,    20.65,    28.36
      187.0,      23.76,    23.84,    22.33,    20.57,    28.29
      188.0,      23.69,    23.77,    22.26,    20.49,    28.22
      189.0,      23.61,    23.70,    22.20,    20.41,    28.15
      190.0,      23.55,    23.62,    22.14,    20.34,    28.08
      191.0,      23.48,    23.55,    22.08,    20.26,    28.01
      192.0,      23.41,    23.48,    22.02,    20.19,    27.94
      193.0,      23.34,    23.42,    21.96,    20.11,    27.87
      194.0,      23.28,    23.35,    21.91,    20.04,    27.81
      195.0,      23.21,    23.29,    21.85,    19.97,    27.74
      196.0,      23.15,    23.22,    21.79,    19.90,    27.67
      197.0,      23.08,    23.16,    21.74,    19.83,    27.60
      198.0,      23.02,    23.10,    21.68,    19.76,    27.54
      199.0,      22.96,    23.04,    21.63,    19.69,    27.47
      200.0,      22.90,    22.98,    21.58,    19.62,    27.41
      201.0,      22.84,    22.93,    21.52,    19.55,    27.34
      202.0,      22.78,    22.87,    21.47,    19.48,    27.28
      203.0,      22.72,    22.82,    21.42,    19.42,    27.21
      204.0,      22.66,    22.76,    21.37,    19.35,    27.15
      205.0,      22.60,    22.71,    21.32,    19.29,    27.09
      206.0,      22.54,    22.66,    21.27,    19.23,    27.02
      207.0,      22.49,    22.61,    21.22,    19.16,    26.96
      208.0,      22.43,    22.56,    21.18,    19.10,    26.90
      209.0,      22.38,    22.51,    21.13,    19.04,    26.83
      210.0,      22.32,    22.46,    21.08,    18.98,    26.77
      211.0,      22.27,    22.41,    21.04,    18.91,    26.71
      212.0,      22.21,    22.37,    20.99,    18.85,    26.65
      213.0,      22.16,    22.32,    20.94,    18.79,    26.58
      214.0,      22.11,    22.28,    20.90,    18.73,    26.52
      215.0,      22.06,    22.23,    20.85,    18.68,    26.46
      216.0,      22.00,    22.19,    20.81,    18.62,    26.40
      217.0,      21.95,    22.15,    20.77,    18.56,    26.34
      218.0,      21.90,    22.11,    20.72,    18.50,    26.28
      219.0,      21.85,    22.07,    20.68,    18.44,    26.22
      220.0,      21.80,    22.02,    20.64,    18.39,    26.16
      221.0,      21.75,    21.98,    20.59,    18.33,    26.10
      222.0,      21.70,    21.95,    20.55,    18.27,    26.04
      223.0,      21.65,    21.91,    20.51,    18.22,    25.98
      224.0,      21.61,    21.87,    20.47,    18.16,    25.92
      225.0,      21.56,    21.83,    20.43,    18.11,    25.86
      226.0,      21.51,    21.79,    20.39,    18.05,    25.81
      227.0,      21.46,    21.76,    20.34,    18.00,    25.75
      228.0,      21.42,    21.72,    20.30,    17.95,    25.69
      229.0,      21.37,    21.69,    20.26,    17.89,    25.63
      230.0,      21.32,    21.65,    20.22,    17.84,    25.57
      231.0,      21.28,    21.62,    20.18,    17.79,    25.51
      232.0,      21.23,    21.58,    20.15,    17.73,    25.46
      233.0,      21.18,    21.55,    20.11,    17.68,    25.40
      234.0,      21.14,    21.51,    20.07,    17.63,    25.34
      235.0,      21.09,    21.48,    20.03,    17.58,    25.29
      236.0,      21.05,    21.45,    19.99,    17.53,    25.23
      237.0,      21.00,    21.42,    19.95,    17.48,    25.17
      238.0,      20.96,    21.38,    19.91,    17.42,    25.12
      239.0,      20.92,    21.35,    19.88,    17.37,    25.06
      240.0,      20.87,    21.32,    19.84,    17.32,    25.00
      241.0,      20.83,    21.29,    19.80,    17.27,    24.95
      242.0,      20.78,    21.26,    19.76,    17.22,    24.89
      243.0,      20.74,    21.23,    19.73,    17.17,    24.84
      244.0,      20.70,    21.20,    19.69,    17.12,    24.78
      245.0,      20.66,    21.17,    19.65,    17.08,    24.72
      246.0,      20.61,    21.14,    19.62,    17.03,    24.67
      247.0,      20.57,    21.11,    19.58,    16.98,    24.61
      248.0,      20.53,    21.08,    19.54,    16.93,    24.56
      249.0,      20.49,    21.06,    19.51,    16.88,    24.50
      250.0,      20.45,    21.03,    19.47,    16.83,    24.45
      251.0,      20.40,    21.00,    19.43,    16.79,    24.40
      252.0,      20.36,    20.97,    19.40,    16.74,    24.34
      253.0,      20.32,    20.94,    19.36,    16.69,    24.29
      254.0,      20.28,    20.92,    19.33,    16.64,    24.23
      255.0,      20.24,    20.89,    19.29,    16.60,    24.18
      256.0,      20.20,    20.86,    19.26,    16.55,    24.12
      257.0,      20.16,    20.84,    19.22,    16.50,    24.07
      258.0,      20.12,    20.81,    19.19,    16.46,    24.02
      259.0,      20.08,    20.78,    19.15,    16.41,    23.96
      260.0,      20.04,    20.76,    19.12,    16.36,    23.91
      261.0,      20.00,    20.73,    19.08,    16.32,    23.86
      262.0,      19.96,    20.71,    19.05,    16.27,    23.81
      263.0,      19.92,    20.68,    19.01,    16.23,    23.75
      264.0,      19.88,    20.66,    18.98,    16.18,    23.70
      265.0,      19.84,    20.63,    18.95,    16.13,    23.65
      266.0,      19.80,    20.61,    18.91,    16.09,    23.59
      267.0,      19.76,    20.58,    18.88,    16.04,    23.54
      268.0,      19.72,    20.56,    18.84,    16.00,    23.49
      269.0,      19.68,    20.53,    18.81,    15.96,    23.44
      270.0,      19.65,    20.51,    18.78,    15.91,    23.39
      271.0,      19.61,    20.48,    18.74,    15.87,    23.33
      272.0,      19.57,    20.46,    18.71,    15.82,    23.28
      273.0,      19.53,    20.44,    18.68,    15.78,    23.23
      274.0,      19.49,    20.41,    18.64,    15.73,    23.18
      275.0,      19.45,    20.39,    18.61,    15.69,    23.13
      276.0,      19.42,    20.37,    18.58,    15.65,    23.08
      277.0,      19.38,    20.34,    18.54,    15.60,    23.03
      278.0,      19.34,    20.32,    18.51,    15.56,    22.98
      279.0,      19.30,    20.30,    18.48,    15.52,    22.92
      280.0,      19.27,    20.27,    18.44,    15.47,    22.87
      281.0,      19.23,    20.25,    18.41,    15.43,    22.82
      282.0,      19.19,    20.23,    18.38,    15.39,    22.77
      283.0,      19.15,    20.20,    18.35,    15.35,    22.72
      284.0,      19.12,    20.18,    18.31,    15.30,    22.67
      285.0,      19.08,    20.16,    18.28,    15.26,    22.62
      286.0,      19.04,    20.14,    18.25,    15.22,    22.57
      287.0,      19.01,    20.12,    18.22,    15.18,    22.52
      288.0,      18.97,    20.09,    18.18,    15.14,    22.47
      289.0,      18.93,    20.07,    18.15,    15.09,    22.42
      290.0,      18.90,    20.05,    18.12,    15.05,    22.37
      291.0,      18.86,    20.03,    18.09,    15.01,    22.32
      292.0,      18.83,    20.00,    18.06,    14.97,    22.27
      293.0,      18.79,    19.98,    18.02,    14.93,    22.23
      294.0,      18.75,    19.96,    17.99,    14.89,    22.18
      295.0,      18.72,    19.94,    17.96,    14.85,    22.13
      296.0,      18.68,    19.92,    17.93,    14.80,    22.08
      297.0,      18.65,    19.90,    17.90,    14.76,    22.03
      298.0,      18.61,    19.88,    17.87,    14.72,    21.98
      299.0,      18.58,    19.85,    17.83,    14.68,    21.93
      300.0,      18.54,    19.83,    17.80,    14.64,    21.88
      301.0,      18.51,    19.81,    17.77,    14.60,    21.84
      302.0,      18.47,    19.79,    17.74,    14.56,    21.79
      303.0,      18.44,    19.77,    17.71,    14.52,    21.74
      304.0,      18.40,    19.75,    17.68,    14.48,    21.69
      305.0,      18.37,    19.73,    17.65,    14.44,    21.64
      306.0,      18.33,    19.71,    17.62,    14.40,    21.60
      307.0,      18.30,    19.69,    17.59,    14.36,    21.55
      308.0,      18.26,    19.66,    17.56,    14.32,    21.50
      309.0,      18.23,    19.64,    17.52,    14.28,    21.45
      310.0,      18.19,    19.62,    17.49,    14.24,    21.41
