Radius (km), Mean (m/s), NE (m/s), SE (m/s), SW (m/s), NW (m/s)
        0.0,       0.00,     0.00,     0.00,     0.00,     0.00
        1.0,       0.69,     0.69,     0.58,     0.74,     0.74
        2.0,       1.26,     1.26,     1.10,     1.33,     1.33
        3.0,       1.79,     1.80,     1.60,     1.88,     1.88
        4.0,       2.30,     2.31,     2.10,     2.40,     2.40
        5.0,       2.80,     2.81,     2.58,     2.90,     2.90
        6.0,       3.28,     3.29,     3.05,     3.39,     3.39
        7.0,       3.75,     3.76,     3.52,     3.86,     3.86
        8.0,       4.21,     4.23,     3.99,     4.32,     4.32
        9.0,       4.67,     4.68,     4.45,     4.78,     4.78
       10.0,       5.12,     5.13,     4.90,     5.22,     5.22
       11.0,       5.56,     5.58,     5.35,     5.66,     5.66
       12.0,       6.00,     6.02,     5.80,     6.09,     6.09
       13.0,       6.44,     6.45,     6.25,     6.52,     6.52
       14.0,       6.87,     6.88,     6.70,     6.94,     6.94
       15.0,       7.29,     7.31,     7.14,     7.36,     7.36
       16.0,       7.72,     7.73,     7.58,     7.78,     7.78
       17.0,       8.14,     8.15,     8.02,     8.19,     8.19
       18.0,       8.55,     8.57,     8.45,     8.59,     8.59
       19.0,       8.96,     8.98,     8.89,     9.00,     9.00
       20.0,       9.38,     9.39,     9.32,     9.39,     9.39
       21.0,       9.78,     9.80,     9.75,     9.79,     9.79
       22.0,      10.19,    10.20,    10.18,    10.19,    10.19
       23.0,      10.59,    10.61,    10.61,    10.58,    10.58
       24.0,      10.99,    11.01,    11.04,    10.96,    10.96
       25.0,      11.39,    11.41,    11.47,    11.35,    11.35
       26.0,      11.79,    11.80,    11.89,    11.73,    11.73
       27.0,      12.19,    12.20,    12.31,    12.12,    12.12
       28.0,      12.58,    12.59,    12.74,    12.49,    12.49
       29.0,      12.97,    12.98,    13.16,    12.87,    12.87
       30.0,      13.36,    13.37,    13.58,    13.25,    13.25
       31.0,      13.75,    13.76,    14.00,    13.62,    13.62
       32.0,      14.14,    14.14,    14.42,    13.99,    13.99
       33.0,      14.52,    14.53,    14.83,    14.36,    14.36
       34.0,      14.90,    14.91,    15.25,    14.73,    14.73
       35.0,      15.29,    15.29,    15.67,    15.10,    15.10
       36.0,      15.67,    15.67,    16.08,    15.46,    15.46
       37.0,      16.05,    16.05,    16.49,    15.82,    15.82
       38.0,      16.43,    16.43,    16.91,    16.18,    16.18
       39.0,      16.80,    16.80,    17.32,    16.54,    16.54
       40.0,      17.18,    17.18,    17.73,    16.90,    16.90
       41.0,      17.55,    17.55,    18.14,    17.26,    17.26
       42.0,      17.93,    17.92,    18.55,    17.62,    17.62
       43.0,      18.30,    18.30,    18.96,    17.97,    17.97
       44.0,      18.67,    18.67,    19.37,    18.33,    18.33
       45.0,      19.04,    19.04,    19.78,    18.68,    18.68
       46.0,      19.41,    19.40,    20.19,    19.03,    19.03
       47.0,      19.78,    19.77,    20.59,    19.38,    19.38
       48.0,      20.15,    20.14,    21.00,    19.73,    19.73
       49.0,      20.51,    20.50,    21.40,    20.08,    20.08
       50.0,      20.88,    20.87,    21.81,    20.42,    20.42
       51.0,      21.24,    21.23,    22.21,    20.77,    20.77
       52.0,      21.61,    21.59,    22.62,    21.11,    21.11
       53.0,      21.97,    21.95,    23.02,    21.46,    21.46
       54.0,      22.33,    22.31,    23.42,    21.80,    21.80
       55.0,      22.69,    22.67,    23.82,    22.14,    22.14
       56.0,      23.05,    23.03,    24.23,    22.48,    22.48
       57.0,      23.41,    23.39,    24.63,    22.82,    22.82
       58.0,      23.77,    23.75,    25.03,    23.16,    23.16
       59.0,      24.13,    24.10,    25.43,    23.50,    23.50
       60.0,      24.49,    24.46,    25.83,    23.83,    23.83
       61.0,      24.85,    24.81,    26.23,    24.17,    24.17
       62.0,      25.20,    25.17,    26.62,    24.51,    24.51
       63.0,      25.56,    25.52,    27.02,    24.84,    24.84
       64.0,      25.91,    25.87,    27.42,    25.17,    25.17
       65.0,      26.26,    26.23,    27.82,    25.51,    25.51
       66.0,      26.62,    26.58,    28.21,    25.84,    25.84
       67.0,      26.97,    26.93,    28.61,    26.17,    26.17
       68.0,      27.32,    27.28,    29.01,    26.50,    26.50
       69.0,      27.67,    27.63,    29.40,    26.83,    26.83
       70.0,      28.02,    27.98,    29.80,    27.16,    27.16
       71.0,      28.37,    28.32,    30.19,    27.49,    27.49
       72.0,      28.72,    28.67,    30.58,    27.82,    27.82
       73.0,      29.07,    29.02,    30.98,    28.14,    28.14
       74.0,      29.42,    29.36,    31.37,    28.47,    28.47
       75.0,      29.77,    29.71,    31.77,    28.80,    28.80
       76.0,      30.11,    30.05,    32.16,    29.12,    29.12
       77.0,      30.46,    30.40,    32.55,    29.45,    29.45
       78.0,      30.81,    30.74,    32.94,    29.77,    29.77
       79.0,      31.15,    31.09,    33.33,    30.09,    30.09
       80.0,      31.50,    31.43,    33.72,    30.41,    30.41
       81.0,      31.84,    31.77,    34.12,    30.74,    30.74
       82.0,      32.18,    32.11,    34.51,    31.06,    31.06
       83.0,      32.53,    32.45,    34.90,    31.38,    31.38
       84.0,      32.87,    32.79,    35.29,    31.70,    31.70
       85.0,      33.21,    33.13,    35.68,    32.02,    32.02
       86.0,      33.55,    33.47,    36.06,    32.34,    32.34
       87.0,      33.89,    33.81,    36.45,    32.65,    32.65
       88.0,      34.23,    34.15,    36.84,    32.97,    32.97
       89.0,      34.57,    34.49,    37.23,    33.29,    33.29
       90.0,      34.91,    34.83,    37.62,    33.61,    33.61
       91.0,      35.25,    35.16,    38.00,    33.92,    33.92
       92.0,      35.59,    35.50,    38.39,    34.24,    34.24
       93.0,      35.93,    35.83,    38.78,    34.55,    34.55
       94.0,      36.27,    36.17,    39.17,    34.87,    34.87
       95.0,      36.61,    36.51,    39.55,    35.18,    35.18
       96.0,      36.94,    36.84,    39.94,    35.50,    35.50
       97.0,      37.28,    37.18,    40.33,    35.81,    35.82
       98.0,      37.64,    37.55,    40.74,    36.12,    36.16
       99.0,      38.04,    37.97,    41.21,    36.45,    36.55
      100.0,      38.51,    38.46,    41.77,    36.80,    37.01
      101.0,      39.06,    39.04,    42.44,    37.21,    37.55
      102.0,      39.69,    39.70,    43.21,    37.68,    38.16
      103.0,      40.37,    40.39,    44.05,    38.22,    38.81
      104.0,      41.06,    41.08,    44.89,    38.80,    39.46
      105.0,      41.70,    41.71,    45.66,    39.38,    40.05
      106.0,      42.23,    42.21,    46.29,    39.90,    40.53
      107.0,      42.61,    42.55,    46.71,    40.32,    40.85
      108.0,      42.78,    42.68,    46.88,    40.59,    40.98
      109.0,      42.74,    42.61,    46.78,    40.67,    40.91
      110.0,      42.49,    42.34,    46.41,    40.55,    40.65
      111.0,      42.05,    41.91,    45.82,    40.23,    40.24
      112.0,      41.47,    41.35,    45.06,    39.75,    39.71
      113.0,      40.79,    40.73,    44.20,    39.14,    39.11
      114.0,      40.07,    40.07,    43.28,    38.45,    38.48
      115.0,      39.35,    39.42,    42.37,    37.74,    37.85
      116.0,      38.65,    38.80,    41.50,    37.03,    37.26
      117.0,      37.99,    38.22,    40.68,    36.36,    36.69
      118.0,      37.37,    37.67,    39.91,    35.73,    36.17
      119.0,      36.79,    37.14,    39.18,    35.15,    35.66
      120.0,      36.23,    36.64,    38.48,    34.61,    35.18
      121.0,      35.69,    36.16,    37.81,    34.09,    34.72
      122.0,      35.18,    35.69,    37.17,    33.59,    34.27
      123.0,      34.68,    35.25,    36.54,    33.10,    33.84
      124.0,      34.21,    34.81,    35.95,    32.64,    33.43
      125.0,      33.75,    34.40,    35.37,    32.19,    33.03
      126.0,      33.30,    34.00,    34.82,    31.76,    32.65
      127.0,      32.88,    33.61,    34.29,    31.34,    32.28
      128.0,      32.47,    33.24,    33.77,    30.93,    31.92
      129.0,      32.07,    32.89,    33.28,    30.55,    31.58
      130.0,      31.69,    32.54,    32.81,    30.17,    31.25
      131.0,      31.32,    32.21,    32.35,    29.81,    30.93
      132.0,      30.97,    31.89,    31.91,    29.46,    30.62
      133.0,      30.63,    31.58,    31.49,    29.12,    30.32
      134.0,      30.30,    31.28,    31.08,    28.80,    30.04
      135.0,      29.98,    31.00,    30.69,    28.48,    29.76
      136.0,      29.68,    30.72,    30.31,    28.18,    29.50
      137.0,      29.38,    30.46,    29.94,    27.89,    29.24
      138.0,      29.10,    30.20,    29.59,    27.60,    29.00
      139.0,      28.82,    29.95,    29.26,    27.33,    28.76
      140.0,      28.56,    29.71,    28.93,    27.07,    28.53
      141.0,      28.30,    29.48,    28.62,    26.81,    28.31
      142.0,      28.06,    29.26,    28.32,    26.56,    28.10
      143.0,      27.82,    29.05,    28.02,    26.32,    27.89
      144.0,      27.59,    28.84,    27.74,    26.09,    27.69
      145.0,      27.37,    28.64,    27.47,    25.87,    27.50
      146.0,      27.16,    28.45,    27.21,    25.65,    27.31
      147.0,      26.95,    28.26,    26.96,    25.44,    27.14
      148.0,      26.75,    28.08,    26.72,    25.24,    26.96
      149.0,      26.56,    27.91,    26.49,    25.04,    26.80
      150.0,      26.37,    27.74,    26.26,    24.85,    26.63
      151.0,      26.19,    27.58,    26.05,    24.67,    26.48
      152.0,      26.02,    27.42,    25.84,    24.49,    26.33
      153.0,      25.85,    27.27,    25.64,    24.32,    26.18
      154.0,      25.69,    27.12,    25.44,    24.15,    26.04
      155.0,      25.53,    26.98,    25.25,    23.99,    25.91
      156.0,      25.38,    26.84,    25.07,    23.83,    25.77
      157.0,      25.23,    26.71,    24.90,    23.68,    25.65
      158.0,      25.09,    26.58,    24.73,    23.53,    25.52
      159.0,      24.95,    26.46,    24.56,    23.38,    25.40
      160.0,      24.82,    26.34,    24.41,    23.24,    25.29
      161.0,      24.69,    26.22,    24.26,    23.11,    25.18
      162.0,      24.57,    26.11,    24.11,    22.97,    25.07
      163.0,      24.44,    26.00,    23.97,    22.85,    24.96
      164.0,      24.33,    25.89,    23.83,    22.72,    24.86
      165.0,      24.21,    25.79,    23.70,    22.60,    24.76
      166.0,      24.10,    25.69,    23.57,    22.48,    24.67
      167.0,      23.99,    25.59,    23.44,    22.37,    24.58
      168.0,      23.89,    25.50,    23.32,    22.25,    24.49
      169.0,      23.79,    25.41,    23.21,    22.14,    24.40
      170.0,      23.69,    25.32,    23.10,    22.04,    24.31
      171.0,      23.60,    25.24,    22.99,    21.93,    24.23
      172.0,      23.50,    25.15,    22.88,    21.83,    24.15
      173.0,      23.41,    25.07,    22.78,    21.73,    24.07
      174.0,      23.33,    24.99,    22.68,    21.64,    24.00
      175.0,      23.24,    24.92,    22.59,    21.54,    23.92
      176.0,      23.16,    24.84,    22.49,    21.45,    23.85
      177.0,      23.08,    24.77,    22.40,    21.36,    23.78
      178.0,      23.00,    24.70,    22.32,    21.28,    23.72
      179.0,      22.93,    24.63,    22.23,    21.19,    23.65
      180.0,      22.85,    24.56,    22.15,    21.11,    23.59
      181.0,      22.78,    24.50,    22.07,    21.03,    23.52
      182.0,      22.71,    24.44,    21.99,    20.95,    23.46
      183.0,      22.64,    24.37,    21.92,    20.87,    23.40
      184.0,      22.57,    24.31,    21.84,    20.79,    23.35
      185.0,      22.51,    24.25,    21.77,    20.72,    23.29
      186.0,      22.44,    24.20,    21.71,    20.64,    23.23
      187.0,      22.38,    24.14,    21.64,    20.57,    23.18
      188.0,      22.32,    24.09,    21.57,    20.50,    23.13
      189.0,      22.26,    24.03,    21.51,    20.43,    23.08
      190.0,      22.20,    23.98,    21.45,    20.36,    23.03
      191.0,      22.15,    23.93,    21.39,    20.30,    22.98
      192.0,      22.09,    23.88,    21.33,    20.23,    22.93
      193.0,      22.04,    23.83,    21.27,    20.17,    22.88
      194.0,      21.99,    23.78,    21.22,    20.10,    22.84
      195.0,      21.93,    23.74,    21.16,    20.04,    22.79
      196.0,      21.88,    23.69,    21.11,    19.98,    22.75
      197.0,      21.83,    23.64,    21.06,    19.92,    22.70
      198.0,      21.78,    23.60,    21.01,    19.86,    22.66
      199.0,      21.74,    23.56,    20.96,    19.80,    22.62
      200.0,      21.69,    23.51,    20.91,    19.75,    22.58
      201.0,      21.64,    23.47,    20.87,    19.69,    22.54
      202.0,      21.60,    23.43,    20.82,    19.63,    22.50
      203.0,      21.55,    23.39,    20.78,    19.58,    22.46
      204.0,      21.51,    23.35,    20.73,    19.53,    22.42
      205.0,      21.47,    23.31,    20.69,    19.47,    22.39
      206.0,      21.42,    23.28,    20.65,    19.42,    22.35
      207.0,      21.38,    23.24,    20.61,    19.37,    22.31
      208.0,      21.34,    23.20,    20.57,    19.32,    22.28
      209.0,      21.30,    23.16,    20.53,    19.27,    22.24
      210.0,      21.26,    23.13,    20.49,    19.22,    22.21
      211.0,      21.22,    23.09,    20.45,    19.17,    22.17
      212.0,      21.18,    23.06,    20.41,    19.12,    22.14
      213.0,      21.15,    23.02,    20.38,    19.07,    22.11
      214.0,      21.11,    22.99,    20.34,    19.02,    22.08
      215.0,      21.07,    22.96,    20.31,    18.98,    22.04
      216.0,      21.03,    22.92,    20.27,    18.93,    22.01
      217.0,      21.00,    22.89,    20.24,    18.88,    21.98
      218.0,      20.96,    22.86,    20.21,    18.84,    21.95
      219.0,      20.93,    22.83,    20.17,    18.79,    21.92
      220.0,      20.89,    22.80,    20.14,    18.75,    21.89
      221.0,      20.86,    22.77,    20.11,    18.70,    21.86
      222.0,      20.83,    22.73,    20.08,    18.66,    21.83
      223.0,      20.79,    22.70,    20.05,    18.62,    21.80
      224.0,      20.76,    22.67,    20.02,    18.57,    21.77
      225.0,      20.73,    22.64,    19.99,    18.53,    21.74
      226.0,      20.69,    22.62,    19.96,    18.49,    21.72
      227.0,      20.66,    22.59,    19.93,    18.45,    21.69
      228.0,      20.63,    22.56,    19.90,    18.40,    21.66
      229.0,      20.60,    22.53,    19.87,    18.36,    21.63
      230.0,      20.57,    22.50,    19.84,    18.32,    21.61
      231.0,      20.54,    22.47,    19.82,    18.28,    21.58
      232.0,      20.51,    22.45,    19.79,    18.24,    21.55
      233.0,      20.48,    22.42,    19.76,    18.20,    21.53
      234.0,      20.45,    22.39,    19.73,    18.16,    21.50
      235.0,      20.42,    22.36,    19.71,    18.12,    21.47
      236.0,      20.39,    22.34,    19.68,    18.08,    21.45
      237.0,      20.36,    22.31,    19.66,    18.04,    21.42
      238.0,      20.33,    22.28,    19.63,    18.00,    21.40
      239.0,      20.30,    22.26,    19.61,    17.97,    21.37
      240.0,      20.27,    22.23,    19.58,    17.93,    21.35
      241.0,      20.24,    22.21,    19.56,    17.89,    21.32
      242.0,      20.22,    22.18,    19.53,    17.85,    21.30
      243.0,      20.19,    22.15,    19.51,    17.81,    21.27
      244.0,      20.16,    22.13,    19.48,    17.78,    21.25
      245.0,      20.13,    22.10,    19.46,    17.74,    21.22
      246.0,      20.10,    22.08,    19.44,    17.70,    21.20
      247.0,      20.08,    22.05,    19.41,    17.67,    21.18
      248.0,      20.05,    22.03,    19.39,    17.63,    21.15
      249.0,      20.02,    22.00,    19.37,    17.59,    21.13
      250.0,      20.00,    21.98,    19.34,    17.56,    21.10
      251.0,      19.97,    21.96,    19.32,    17.52,    21.08
      252.0,      19.94,    21.93,    19.30,    17.48,    21.06
      253.0,      19.92,    21.91,    19.27,    17.45,    21.03
      254.0,      19.89,    21.88,    19.25,    17.41,    21.01
      255.0,      19.86,    21.86,    19.23,    17.38,    20.99
      256.0,      19.84,    21.83,    19.21,    17.34,    20.97
      257.0,      19.81,    21.81,    19.19,    17.31,    20.94
      258.0,      19.79,    21.79,    19.16,    17.27,    20.92
      259.0,      19.76,    21.76,    19.14,    17.24,    20.90
      260.0,      19.73,    21.74,    19.12,    17.20,    20.87
      261.0,      19.71,    21.72,    19.10,    17.17,    20.85
      262.0,      19.68,    21.69,    19.08,    17.13,    20.83
      263.0,      19.66,    21.67,    19.06,    17.10,    20.81
      264.0,      19.63,    21.65,    19.04,    17.06,    20.79
      265.0,      19.61,    21.62,    19.01,    17.03,    20.76
      266.0,      19.58,    21.60,    18.99,    16.99,    20.74
      267.0,      19.56,    21.58,    18.97,    16.96,    20.72
      268.0,      19.53,    21.56,    18.95,    16.93,    20.70
      269.0,      19.51,    21.53,    18.93,    16.89,    20.68
      270.0,      19.48,    21.51,    18.91,    16.86,    20.65
      271.0,      19.46,    21.49,    18.89,    16.83,    20.63
      272.0,      19.43,    21.46,    18.87,    16.79,    20.61
      273.0,      19.41,    21.44,    18.85,    16.76,    20.59
      274.0,      19.39,    21.42,    18.83,    16.73,    20.57
      275.0,      19.36,    21.40,    18.81,    16.69,    20.55
      276.0,      19.34,    21.38,    18.79,    16.66,    20.52
      277.0,      19.31,    21.35,    18.77,    16.63,    20.50
      278.0,      19.29,    21.33,    18.75,    16.60,    20.48
      279.0,      19.27,    21.31,    18.73,    16.56,    20.46
      280.0,      19.24,    21.29,    18.71,    16.53,    20.44
      281.0,      19.22,    21.26,    18.69,    16.50,    20.42
      282.0,      19.19,    21.24,    18.67,    16.47,    20.40
      283.0,      19.17,    21.22,    18.65,    16.43,    20.38
      284.0,      19.15,    21.20,    18.63,    16.40,    20.36
      285.0,      19.12,    21.18,    18.61,    16.37,    20.33
      286.0,      19.10,    21.16,    18.59,    16.34,    20.31
      287.0,      19.08,    21.13,    18.57,    16.30,    20.29
      288.0,      19.05,    21.11,    18.55,    16.27,    20.27
      289.0,      19.03,    21.09,    18.53,    16.24,    20.25
      290.0,      19.01,    21.07,    18.51,    16.21,    20.23
      291.0,      18.98,    21.05,    18.50,    16.18,    20.21
      292.0,      18.96,    21.03,    18.48,    16.15,    20.19
      293.0,      18.94,    21.00,    18.46,    16.11,    20.17
      294.0,      18.91,    20.98,    18.44,    16.08,    20.15
      295.0,      18.89,    20.96,    18.42,    16.05,    20.13
      296.0,      18.87,    20.94,    18.40,    16.02,    20.11
      297.0,      18.84,    20.92,    18.38,    15.99,    20.09
      298.0,      18.82,    20.90,    18.36,    15.96,    20.07
      299.0,      18.80,    20.88,    18.34,    15.93,    20.05
      300.0,      18.78,    20.85,    18.32,    15.90,    20.02
      301.0,      18.75,    20.83,    18.31,    15.87,    20.00
      302.0,      18.73,    20.81,    18.29,    15.84,    19.98
      303.0,      18.71,    20.79,    18.27,    15.80,    19.96
      304.0,      18.68,    20.77,    18.25,    15.77,    19.94
      305.0,      18.66,    20.75,    18.23,    15.74,    19.92
      306.0,      18.64,    20.73,    18.21,    15.71,    19.90
      307.0,      18.62,    20.71,    18.19,    15.68,    19.88
      308.0,      18.59,    20.69,    18.18,    15.65,    19.86
      309.0,      18.57,    20.67,    18.16,    15.62,    19.84
      310.0,      18.55,    20.64,    18.14,    15.59,    19.82
