Radius (km), Mean (m/s), NE (m/s), SE (m/s), SW (m/s), NW (m/s)
        0.0,       0.00,     0.00,     0.00,     0.00,     0.00
        1.0,       2.23,     2.26,     2.12,     2.26,     2.26
        2.0,       4.08,     4.12,     3.96,     4.12,     4.12
        3.0,       5.81,     5.84,     5.72,     5.84,     5.84
        4.0,       7.47,     7.49,     7.41,     7.49,     7.49
        5.0,       9.08,     9.08,     9.07,     9.08,     9.08
        6.0,      10.64,    10.63,    10.69,    10.63,    10.63
        7.0,      12.17,    12.14,    12.29,    12.14,    12.14
        8.0,      13.68,    13.62,    13.86,    13.62,    13.62
        9.0,      15.16,    15.08,    15.42,    15.08,    15.08
       10.0,      16.62,    16.51,    16.95,    16.51,    16.51
       11.0,      18.07,    17.93,    18.48,    17.93,    17.93
       12.0,      19.50,    19.33,    20.00,    19.34,    19.35
       13.0,      20.97,    20.75,    21.54,    20.77,    20.82
       14.0,      22.51,    22.22,    23.16,    22.28,    22.37
       15.0,      24.16,    23.78,    24.90,    23.89,    24.06
       16.0,      25.94,    25.46,    26.79,    25.64,    25.88
       17.0,      27.86,    27.27,    28.83,    27.52,    27.82
       18.0,      29.87,    29.17,    30.98,    29.49,    29.83
       19.0,      31.90,    31.11,    33.17,    31.48,    31.84
       20.0,      33.87,    33.01,    35.32,    33.41,    33.76
       21.0,      35.69,    34.78,    37.31,    35.18,    35.51
       22.0,      37.28,    36.35,    39.06,    36.73,    37.00
       23.0,      38.57,    37.65,    40.49,    37.98,    38.18
       24.0,      39.54,    38.65,    41.56,    38.91,    39.05
       25.0,      40.18,    39.33,    42.26,    39.53,    39.60
       26.0,      40.52,    39.73,    42.63,    39.85,    39.87
       27.0,      40.62,    39.88,    42.72,    39.93,    39.93
       28.0,      40.53,    39.85,    42.61,    39.84,    39.84
       29.0,      40.34,    39.70,    42.36,    39.64,    39.65
       30.0,      40.09,    39.50,    42.05,    39.39,    39.43
       31.0,      39.83,    39.28,    41.72,    39.12,    39.20
       32.0,      39.58,    39.06,    41.40,    38.87,    38.98
       33.0,      39.34,    38.86,    41.10,    38.63,    38.77
       34.0,      39.11,    38.67,    40.81,    38.39,    38.57
       35.0,      38.88,    38.48,    40.53,    38.16,    38.36
       36.0,      38.66,    38.29,    40.25,    37.93,    38.16
       37.0,      38.44,    38.10,    39.98,    37.70,    37.96
       38.0,      38.22,    37.92,    39.71,    37.48,    37.76
       39.0,      38.00,    37.74,    39.44,    37.26,    37.57
       40.0,      37.78,    37.56,    39.17,    37.03,    37.37
       41.0,      37.57,    37.38,    38.91,    36.81,    37.18
       42.0,      37.36,    37.20,    38.65,    36.60,    36.99
       43.0,      37.15,    37.02,    38.40,    36.38,    36.79
       44.0,      36.94,    36.84,    38.14,    36.16,    36.61
       45.0,      36.73,    36.67,    37.89,    35.95,    36.42
       46.0,      36.53,    36.50,    37.65,    35.74,    36.23
       47.0,      36.33,    36.32,    37.41,    35.53,    36.05
       48.0,      36.13,    36.15,    37.16,    35.32,    35.87
       49.0,      35.93,    35.98,    36.93,    35.12,    35.68
       50.0,      35.73,    35.82,    36.69,    34.91,    35.50
       51.0,      35.54,    35.65,    36.46,    34.71,    35.33
       52.0,      35.34,    35.48,    36.23,    34.51,    35.15
       53.0,      35.15,    35.32,    36.01,    34.31,    34.97
       54.0,      34.96,    35.15,    35.78,    34.11,    34.80
       55.0,      34.77,    34.99,    35.56,    33.91,    34.63
       56.0,      34.59,    34.83,    35.34,    33.72,    34.46
       57.0,      34.40,    34.67,    35.13,    33.52,    34.29
       58.0,      34.22,    34.51,    34.91,    33.33,    34.12
       59.0,      34.04,    34.35,    34.70,    33.14,    33.95
       60.0,      33.86,    34.20,    34.50,    32.95,    33.78
       61.0,      33.68,    34.04,    34.29,    32.77,    33.62
       62.0,      33.50,    33.89,    34.09,    32.58,    33.46
       63.0,      33.33,    33.74,    33.89,    32.39,    33.30
       64.0,      33.15,    33.58,    33.69,    32.21,    33.13
       65.0,      32.98,    33.43,    33.49,    32.03,    32.98
       66.0,      32.81,    33.28,    33.30,    31.85,    32.82
       67.0,      32.64,    33.13,    33.10,    31.67,    32.66
       68.0,      32.48,    32.99,    32.91,    31.49,    32.51
       69.0,      32.31,    32.84,    32.73,    31.32,    32.35
       70.0,      32.14,    32.69,    32.54,    31.14,    32.20
       71.0,      31.98,    32.55,    32.36,    30.97,    32.05
       72.0,      31.82,    32.41,    32.18,    30.80,    31.90
       73.0,      31.66,    32.26,    32.00,    30.63,    31.75
       74.0,      31.50,    32.12,    31.82,    30.46,    31.60
       75.0,      31.34,    31.98,    31.65,    30.29,    31.45
       76.0,      31.19,    31.84,    31.47,    30.12,    31.31
       77.0,      31.03,    31.70,    31.30,    29.96,    31.16
       78.0,      30.88,    31.57,    31.13,    29.80,    31.02
       79.0,      30.73,    31.43,    30.97,    29.63,    30.88
       80.0,      30.58,    31.29,    30.80,    29.47,    30.73
       81.0,      30.43,    31.16,    30.64,    29.31,    30.59
       82.0,      30.28,    31.03,    30.48,    29.15,    30.45
       83.0,      30.13,    30.89,    30.32,    29.00,    30.32
       84.0,      29.98,    30.76,    30.16,    28.84,    30.18
       85.0,      29.84,    30.63,    30.00,    28.68,    30.04
       86.0,      29.70,    30.50,    29.85,    28.53,    29.91
       87.0,      29.55,    30.37,    29.69,    28.38,    29.78
       88.0,      29.41,    30.24,    29.54,    28.23,    29.64
       89.0,      29.27,    30.11,    29.39,    28.08,    29.51
       90.0,      29.14,    29.99,    29.25,    27.93,    29.38
       91.0,      29.00,    29.86,    29.10,    27.78,    29.25
       92.0,      28.86,    29.74,    28.96,    27.63,    29.12
       93.0,      28.73,    29.61,    28.81,    27.49,    29.00
       94.0,      28.59,    29.49,    28.67,    27.34,    28.87
       95.0,      28.46,    29.37,    28.53,    27.20,    28.74
       96.0,      28.33,    29.25,    28.39,    27.06,    28.62
       97.0,      28.20,    29.13,    28.25,    26.91,    28.50
       98.0,      28.07,    29.01,    28.12,    26.77,    28.37
       99.0,      27.94,    28.89,    27.98,    26.64,    28.25
      100.0,      27.81,    28.77,    27.85,    26.50,    28.13
      101.0,      27.69,    28.65,    27.72,    26.36,    28.01
      102.0,      27.56,    28.53,    27.59,    26.23,    27.89
      103.0,      27.44,    28.42,    27.46,    26.09,    27.78
      104.0,      27.31,    28.30,    27.33,    25.96,    27.66
      105.0,      27.19,    28.19,    27.21,    25.82,    27.54
      106.0,      27.07,    28.08,    27.08,    25.69,    27.43
      107.0,      26.95,    27.96,    26.96,    25.56,    27.31
      108.0,      26.83,    27.85,    26.84,    25.43,    27.20
      109.0,      26.71,    27.74,    26.72,    25.30,    27.09
      110.0,      26.59,    27.63,    26.60,    25.18,    26.98
      111.0,      26.48,    27.52,    26.48,    25.05,    26.87
      112.0,      26.36,    27.41,    26.36,    24.92,    26.76
      113.0,      26.25,    27.30,    26.25,    24.80,    26.65
      114.0,      26.13,    27.19,    26.13,    24.68,    26.54
      115.0,      26.02,    27.09,    26.02,    24.55,    26.43
      116.0,      25.91,    26.98,    25.90,    24.43,    26.33
      117.0,      25.80,    26.88,    25.79,    24.31,    26.22
      118.0,      25.69,    26.77,    25.68,    24.19,    26.11
      119.0,      25.58,    26.67,    25.57,    24.07,    26.01
      120.0,      25.47,    26.56,    25.46,    23.95,    25.91
      121.0,      25.36,    26.46,    25.36,    23.84,    25.81
      122.0,      25.26,    26.36,    25.25,    23.72,    25.70
      123.0,      25.15,    26.26,    25.15,    23.61,    25.60
      124.0,      25.05,    26.15,    25.04,    23.49,    25.50
      125.0,      24.94,    26.05,    24.94,    23.38,    25.40
      126.0,      24.84,    25.95,    24.84,    23.26,    25.30
      127.0,      24.74,    25.86,    24.74,    23.15,    25.21
      128.0,      24.64,    25.76,    24.64,    23.04,    25.11
      129.0,      24.54,    25.66,    24.54,    22.93,    25.01
      130.0,      24.44,    25.56,    24.44,    22.82,    24.92
      131.0,      24.34,    25.47,    24.34,    22.71,    24.82
      132.0,      24.24,    25.37,    24.25,    22.61,    24.73
      133.0,      24.14,    25.27,    24.15,    22.50,    24.63
      134.0,      24.04,    25.18,    24.06,    22.39,    24.54
      135.0,      23.95,    25.09,    23.96,    22.29,    24.45
      136.0,      23.85,    24.99,    23.87,    22.18,    24.36
      137.0,      23.76,    24.90,    23.78,    22.08,    24.27
      138.0,      23.66,    24.81,    23.69,    21.98,    24.18
      139.0,      23.57,    24.72,    23.60,    21.87,    24.09
      140.0,      23.48,    24.62,    23.51,    21.77,    24.00
      141.0,      23.38,    24.53,    23.42,    21.67,    23.91
      142.0,      23.29,    24.44,    23.33,    21.57,    23.82
      143.0,      23.20,    24.35,    23.24,    21.47,    23.74
      144.0,      23.11,    24.26,    23.16,    21.38,    23.65
      145.0,      23.02,    24.18,    23.07,    21.28,    23.57
      146.0,      22.93,    24.09,    22.99,    21.18,    23.48
      147.0,      22.85,    24.00,    22.90,    21.09,    23.40
      148.0,      22.76,    23.91,    22.82,    20.99,    23.31
      149.0,      22.67,    23.83,    22.74,    20.90,    23.23
      150.0,      22.59,    23.74,    22.65,    20.80,    23.15
      151.0,      22.50,    23.66,    22.57,    20.71,    23.07
      152.0,      22.42,    23.57,    22.49,    20.62,    22.98
      153.0,      22.33,    23.49,    22.41,    20.52,    22.90
      154.0,      22.25,    23.40,    22.33,    20.43,    22.82
      155.0,      22.17,    23.32,    22.26,    20.34,    22.74
      156.0,      22.08,    23.24,    22.18,    20.25,    22.67
      157.0,      22.00,    23.16,    22.10,    20.16,    22.59
      158.0,      21.92,    23.07,    22.02,    20.08,    22.51
      159.0,      21.84,    22.99,    21.95,    19.99,    22.43
      160.0,      21.76,    22.91,    21.87,    19.90,    22.36
      161.0,      21.68,    22.83,    21.80,    19.81,    22.28
      162.0,      21.60,    22.75,    21.73,    19.73,    22.20
      163.0,      21.52,    22.67,    21.65,    19.64,    22.13
      164.0,      21.45,    22.59,    21.58,    19.56,    22.06
      165.0,      21.37,    22.51,    21.51,    19.47,    21.98
      166.0,      21.29,    22.44,    21.44,    19.39,    21.91
      167.0,      21.22,    22.36,    21.37,    19.31,    21.84
      168.0,      21.14,    22.28,    21.29,    19.23,    21.76
      169.0,      21.07,    22.20,    21.22,    19.15,    21.69
      170.0,      20.99,    22.13,    21.16,    19.06,    21.62
      171.0,      20.92,    22.05,    21.09,    18.98,    21.55
      172.0,      20.85,    21.98,    21.02,    18.90,    21.48
      173.0,      20.77,    21.90,    20.95,    18.83,    21.41
      174.0,      20.70,    21.83,    20.88,    18.75,    21.34
      175.0,      20.63,    21.75,    20.82,    18.67,    21.27
      176.0,      20.56,    21.68,    20.75,    18.59,    21.20
      177.0,      20.49,    21.61,    20.69,    18.52,    21.14
      178.0,      20.42,    21.53,    20.62,    18.44,    21.07
      179.0,      20.35,    21.46,    20.56,    18.36,    21.00
      180.0,      20.28,    21.39,    20.49,    18.29,    20.94
      181.0,      20.21,    21.32,    20.43,    18.21,    20.87
      182.0,      20.14,    21.25,    20.37,    18.14,    20.81
      183.0,      20.07,    21.18,    20.30,    18.07,    20.74
      184.0,      20.00,    21.11,    20.24,    17.99,    20.68
      185.0,      19.94,    21.04,    20.18,    17.92,    20.61
      186.0,      19.87,    20.97,    20.12,    17.85,    20.55
      187.0,      19.80,    20.90,    20.06,    17.78,    20.49
      188.0,      19.74,    20.83,    20.00,    17.71,    20.42
      189.0,      19.67,    20.76,    19.94,    17.64,    20.36
      190.0,      19.61,    20.69,    19.88,    17.57,    20.30
      191.0,      19.54,    20.62,    19.82,    17.50,    20.24
      192.0,      19.48,    20.56,    19.76,    17.43,    20.18
      193.0,      19.42,    20.49,    19.70,    17.36,    20.12
      194.0,      19.35,    20.42,    19.64,    17.29,    20.06
      195.0,      19.29,    20.36,    19.59,    17.23,    20.00
      196.0,      19.23,    20.29,    19.53,    17.16,    19.94
      197.0,      19.17,    20.23,    19.47,    17.09,    19.88
      198.0,      19.11,    20.16,    19.42,    17.03,    19.82
      199.0,      19.04,    20.10,    19.36,    16.96,    19.76
      200.0,      18.98,    20.03,    19.30,    16.90,    19.70
      201.0,      18.92,    19.97,    19.25,    16.83,    19.65
      202.0,      18.86,    19.90,    19.20,    16.77,    19.59
      203.0,      18.80,    19.84,    19.14,    16.71,    19.53
      204.0,      18.75,    19.78,    19.09,    16.64,    19.48
      205.0,      18.69,    19.71,    19.03,    16.58,    19.42
      206.0,      18.63,    19.65,    18.98,    16.52,    19.37
      207.0,      18.57,    19.59,    18.93,    16.46,    19.31
      208.0,      18.51,    19.53,    18.87,    16.40,    19.26
      209.0,      18.46,    19.47,    18.82,    16.33,    19.20
      210.0,      18.40,    19.40,    18.77,    16.27,    19.15
      211.0,      18.34,    19.34,    18.72,    16.21,    19.10
      212.0,      18.29,    19.28,    18.67,    16.15,    19.04
      213.0,      18.23,    19.22,    18.62,    16.10,    18.99
      214.0,      18.18,    19.16,    18.57,    16.04,    18.94
      215.0,      18.12,    19.10,    18.52,    15.98,    18.88
      216.0,      18.07,    19.04,    18.47,    15.92,    18.83
      217.0,      18.01,    18.98,    18.42,    15.86,    18.78
      218.0,      17.96,    18.93,    18.37,    15.81,    18.73
      219.0,      17.90,    18.87,    18.32,    15.75,    18.68
      220.0,      17.85,    18.81,    18.27,    15.69,    18.63
      221.0,      17.80,    18.75,    18.22,    15.64,    18.58
      222.0,      17.74,    18.69,    18.17,    15.58,    18.53
      223.0,      17.69,    18.64,    18.12,    15.53,    18.48
      224.0,      17.64,    18.58,    18.08,    15.47,    18.43
      225.0,      17.59,    18.52,    18.03,    15.42,    18.38
      226.0,      17.54,    18.47,    17.98,    15.36,    18.33
      227.0,      17.49,    18.41,    17.93,    15.31,    18.29
      228.0,      17.43,    18.36,    17.89,    15.26,    18.24
      229.0,      17.38,    18.30,    17.84,    15.20,    18.19
      230.0,      17.33,    18.24,    17.80,    15.15,    18.14
      231.0,      17.28,    18.19,    17.75,    15.10,    18.10
      232.0,      17.23,    18.13,    17.70,    15.05,    18.05
      233.0,      17.19,    18.08,    17.66,    15.00,    18.00
      234.0,      17.14,    18.03,    17.61,    14.95,    17.96
      235.0,      17.09,    17.97,    17.57,    14.90,    17.91
      236.0,      17.04,    17.92,    17.52,    14.85,    17.87
      237.0,      16.99,    17.87,    17.48,    14.80,    17.82
      238.0,      16.94,    17.81,    17.44,    14.75,    17.78
      239.0,      16.90,    17.76,    17.39,    14.70,    17.73
      240.0,      16.85,    17.71,    17.35,    14.65,    17.69
      241.0,      16.80,    17.65,    17.31,    14.60,    17.64
      242.0,      16.75,    17.60,    17.26,    14.55,    17.60
      243.0,      16.71,    17.55,    17.22,    14.50,    17.56
      244.0,      16.66,    17.50,    17.18,    14.46,    17.51
      245.0,      16.62,    17.45,    17.14,    14.41,    17.47
      246.0,      16.57,    17.40,    17.09,    14.36,    17.43
      247.0,      16.52,    17.35,    17.05,    14.32,    17.39
      248.0,      16.48,    17.29,    17.01,    14.27,    17.34
      249.0,      16.43,    17.24,    16.97,    14.22,    17.30
      250.0,      16.39,    17.19,    16.93,    14.18,    17.26
      251.0,      16.35,    17.14,    16.89,    14.13,    17.22
      252.0,      16.30,    17.09,    16.84,    14.09,    17.18
      253.0,      16.26,    17.05,    16.80,    14.04,    17.14
      254.0,      16.21,    17.00,    16.76,    14.00,    17.10
      255.0,      16.17,    16.95,    16.72,    13.95,    17.06
      256.0,      16.13,    16.90,    16.68,    13.91,    17.02
      257.0,      16.08,    16.85,    16.64,    13.87,    16.98
      258.0,      16.04,    16.80,    16.60,    13.82,    16.94
      259.0,      16.00,    16.75,    16.56,    13.78,    16.90
      260.0,      15.96,    16.71,    16.52,    13.74,    16.86
      261.0,      15.91,    16.66,    16.49,    13.69,    16.82
      262.0,      15.87,    16.61,    16.45,    13.65,    16.78
      263.0,      15.83,    16.56,    16.41,    13.61,    16.74
      264.0,      15.79,    16.52,    16.37,    13.57,    16.70
      265.0,      15.75,    16.47,    16.33,    13.53,    16.67
      266.0,      15.71,    16.42,    16.29,    13.49,    16.63
      267.0,      15.67,    16.38,    16.25,    13.45,    16.59
      268.0,      15.63,    16.33,    16.22,    13.41,    16.55
      269.0,      15.59,    16.28,    16.18,    13.37,    16.52
      270.0,      15.55,    16.24,    16.14,    13.33,    16.48
      271.0,      15.51,    16.19,    16.10,    13.29,    16.44
      272.0,      15.47,    16.15,    16.07,    13.25,    16.41
      273.0,      15.43,    16.10,    16.03,    13.21,    16.37
      274.0,      15.39,    16.06,    15.99,    13.17,    16.34
      275.0,      15.35,    16.01,    15.96,    13.13,    16.30
      276.0,      15.31,    15.97,    15.92,    13.09,    16.26
      277.0,      15.27,    15.92,    15.88,    13.05,    16.23
      278.0,      15.23,    15.88,    15.85,    13.02,    16.19
      279.0,      15.20,    15.84,    15.81,    12.98,    16.16
      280.0,      15.16,    15.79,    15.78,    12.94,    16.12
      281.0,      15.12,    15.75,    15.74,    12.90,    16.09
      282.0,      15.08,    15.70,    15.70,    12.87,    16.05
      283.0,      15.05,    15.66,    15.67,    12.83,    16.02
      284.0,      15.01,    15.62,    15.63,    12.79,    15.99
      285.0,      14.97,    15.58,    15.60,    12.76,    15.95
      286.0,      14.93,    15.53,    15.56,    12.72,    15.92
      287.0,      14.90,    15.49,    15.53,    12.69,    15.89
      288.0,      14.86,    15.45,    15.49,    12.65,    15.85
      289.0,      14.82,    15.41,    15.46,    12.61,    15.82
      290.0,      14.79,    15.36,    15.42,    12.58,    15.79
      291.0,      14.75,    15.32,    15.39,    12.55,    15.75
      292.0,      14.72,    15.28,    15.36,    12.51,    15.72
      293.0,      14.68,    15.24,    15.32,    12.48,    15.69
      294.0,      14.65,    15.20,    15.29,    12.44,    15.66
      295.0,      14.61,    15.16,    15.25,    12.41,    15.63
      296.0,      14.58,    15.12,    15.22,    12.37,    15.59
      297.0,      14.54,    15.07,    15.19,    12.34,    15.56
      298.0,      14.51,    15.03,    15.15,    12.31,    15.53
      299.0,      14.47,    14.99,    15.12,    12.27,    15.50
      300.0,      14.44,    14.95,    15.09,    12.24,    15.47
      301.0,      14.40,    14.91,    15.05,    12.21,    15.44
      302.0,      14.37,    14.87,    15.02,    12.18,    15.41
      303.0,      14.34,    14.83,    14.99,    12.14,    15.38
      304.0,      14.30,    14.79,    14.96,    12.11,    15.35
      305.0,      14.27,    14.75,    14.92,    12.08,    15.32
      306.0,      14.24,    14.72,    14.89,    12.05,    15.29
      307.0,      14.20,    14.68,    14.86,    12.02,    15.26
      308.0,      14.17,    14.64,    14.83,    11.99,    15.23
      309.0,      14.14,    14.60,    14.79,    11.95,    15.20
      310.0,      14.10,    14.56,    14.76,    11.92,    15.17
