Radius (km), Mean (m/s), NE (m/s), SE (m/s), SW (m/s), NW (m/s)
        0.0,       0.00,     0.00,     0.00,     0.00,     0.00
        1.0,       2.05,     1.85,     1.85,     2.28,     2.20
        2.0,       3.47,     3.30,     3.30,     3.68,     3.63
        3.0,       4.74,     4.62,     4.62,     4.87,     4.86
        4.0,       5.92,     5.87,     5.87,     5.94,     5.97
        5.0,       7.02,     7.07,     7.07,     6.93,     7.01
        6.0,       8.08,     8.23,     8.23,     7.86,     8.00
        7.0,       9.10,     9.36,     9.36,     8.75,     8.94
        8.0,      10.09,    10.46,    10.46,     9.59,     9.84
        9.0,      11.05,    11.54,    11.54,    10.41,    10.71
       10.0,      11.99,    12.60,    12.60,    11.19,    11.55
       11.0,      12.90,    13.64,    13.64,    11.96,    12.37
       12.0,      13.80,    14.67,    14.67,    12.70,    13.17
       13.0,      14.68,    15.68,    15.68,    13.42,    13.95
       14.0,      15.55,    16.68,    16.68,    14.13,    14.72
       15.0,      16.40,    17.67,    17.67,    14.82,    15.47
       16.0,      17.25,    18.64,    18.64,    15.49,    16.20
       17.0,      18.07,    19.61,    19.61,    16.16,    16.93
       18.0,      18.89,    20.56,    20.56,    16.81,    17.64
       19.0,      19.70,    21.51,    21.51,    17.45,    18.34
       20.0,      20.50,    22.45,    22.45,    18.08,    19.03
       21.0,      21.29,    23.38,    23.38,    18.70,    19.71
       22.0,      22.08,    24.31,    24.31,    19.31,    20.39
       23.0,      22.87,    25.23,    25.26,    19.92,    21.09
       24.0,      23.70,    26.17,    26.27,    20.54,    21.83
       25.0,      24.59,    27.16,    27.37,    21.20,    22.63
       26.0,      25.56,    28.23,    28.60,    21.90,    23.49
       27.0,      26.61,    29.41,    29.96,    22.66,    24.41
       28.0,      27.73,    30.70,    31.41,    23.47,    25.36
       29.0,      28.88,    32.04,    32.88,    24.31,    26.29
       30.0,      30.00,    33.40,    34.30,    25.13,    27.18
       31.0,      31.03,    34.68,    35.58,    25.89,    27.97
       32.0,      31.91,    35.81,    36.64,    26.56,    28.63
       33.0,      32.59,    36.72,    37.41,    27.09,    29.14
       34.0,      33.04,    37.35,    37.87,    27.47,    29.48
       35.0,      33.27,    37.69,    38.02,    27.69,    29.66
       36.0,      33.27,    37.73,    37.89,    27.76,    29.71
       37.0,      33.10,    37.53,    37.53,    27.69,    29.66
       38.0,      32.80,    37.12,    37.01,    27.53,    29.53
       39.0,      32.41,    36.58,    36.40,    27.30,    29.36
       40.0,      31.99,    35.97,    35.76,    27.05,    29.18
       41.0,      31.57,    35.35,    35.13,    26.78,    29.00
       42.0,      31.16,    34.76,    34.54,    26.54,    28.83
       43.0,      30.79,    34.20,    33.98,    26.30,    28.66
       44.0,      30.43,    33.69,    33.46,    26.09,    28.50
       45.0,      30.09,    33.20,    32.96,    25.88,    28.34
       46.0,      29.77,    32.74,    32.47,    25.68,    28.18
       47.0,      29.45,    32.29,    32.01,    25.49,    28.02
       48.0,      29.14,    31.85,    31.56,    25.30,    27.87
       49.0,      28.84,    31.43,    31.12,    25.11,    27.71
       50.0,      28.55,    31.02,    30.70,    24.93,    27.56
       51.0,      28.27,    30.63,    30.30,    24.75,    27.41
       52.0,      28.00,    30.25,    29.91,    24.58,    27.26
       53.0,      27.73,    29.87,    29.53,    24.41,    27.11
       54.0,      27.47,    29.52,    29.17,    24.25,    26.96
       55.0,      27.22,    29.17,    28.82,    24.09,    26.81
       56.0,      26.98,    28.83,    28.48,    23.94,    26.67
       57.0,      26.74,    28.50,    28.15,    23.78,    26.52
       58.0,      26.51,    28.18,    27.83,    23.63,    26.38
       59.0,      26.28,    27.87,    27.53,    23.49,    26.24
       60.0,      26.06,    27.57,    27.23,    23.35,    26.10
       61.0,      25.85,    27.28,    26.95,    23.21,    25.96
       62.0,      25.64,    27.00,    26.67,    23.07,    25.82
       63.0,      25.44,    26.73,    26.41,    22.94,    25.68
       64.0,      25.24,    26.46,    26.15,    22.81,    25.55
       65.0,      25.05,    26.20,    25.90,    22.68,    25.41
       66.0,      24.86,    25.95,    25.66,    22.55,    25.28
       67.0,      24.68,    25.70,    25.42,    22.43,    25.15
       68.0,      24.50,    25.46,    25.20,    22.31,    25.02
       69.0,      24.32,    25.23,    24.98,    22.19,    24.89
       70.0,      24.15,    25.01,    24.77,    22.08,    24.76
       71.0,      23.98,    24.79,    24.56,    21.96,    24.63
       72.0,      23.82,    24.57,    24.36,    21.85,    24.50
       73.0,      23.66,    24.36,    24.17,    21.74,    24.38
       74.0,      23.51,    24.16,    23.98,    21.63,    24.25
       75.0,      23.35,    23.96,    23.80,    21.53,    24.13
       76.0,      23.21,    23.77,    23.63,    21.42,    24.01
       77.0,      23.06,    23.58,    23.46,    21.32,    23.89
       78.0,      22.92,    23.39,    23.29,    21.22,    23.76
       79.0,      22.78,    23.21,    23.13,    21.12,    23.65
       80.0,      22.64,    23.04,    22.98,    21.02,    23.53
       81.0,      22.51,    22.87,    22.82,    20.92,    23.41
       82.0,      22.37,    22.70,    22.68,    20.83,    23.29
       83.0,      22.25,    22.53,    22.53,    20.73,    23.18
       84.0,      22.12,    22.37,    22.40,    20.64,    23.06
       85.0,      21.99,    22.22,    22.26,    20.55,    22.95
       86.0,      21.87,    22.06,    22.13,    20.46,    22.84
       87.0,      21.75,    21.91,    22.00,    20.37,    22.73
       88.0,      21.64,    21.77,    21.88,    20.29,    22.62
       89.0,      21.52,    21.62,    21.76,    20.20,    22.51
       90.0,      21.41,    21.48,    21.64,    20.11,    22.40
       91.0,      21.30,    21.34,    21.52,    20.03,    22.29
       92.0,      21.19,    21.21,    21.41,    19.95,    22.18
       93.0,      21.08,    21.07,    21.30,    19.87,    22.08
       94.0,      20.97,    20.94,    21.20,    19.79,    21.97
       95.0,      20.87,    20.82,    21.09,    19.71,    21.87
       96.0,      20.77,    20.69,    20.99,    19.63,    21.76
       97.0,      20.67,    20.57,    20.89,    19.55,    21.66
       98.0,      20.57,    20.44,    20.80,    19.47,    21.56
       99.0,      20.47,    20.33,    20.70,    19.39,    21.46
      100.0,      20.37,    20.21,    20.61,    19.32,    21.36
      101.0,      20.28,    20.09,    20.52,    19.24,    21.26
      102.0,      20.19,    19.98,    20.43,    19.17,    21.16
      103.0,      20.09,    19.87,    20.34,    19.09,    21.07
      104.0,      20.00,    19.76,    20.26,    19.02,    20.97
      105.0,      19.91,    19.65,    20.18,    18.95,    20.87
      106.0,      19.82,    19.55,    20.10,    18.88,    20.78
      107.0,      19.74,    19.44,    20.02,    18.81,    20.68
      108.0,      19.65,    19.34,    19.94,    18.74,    20.59
      109.0,      19.57,    19.24,    19.86,    18.67,    20.50
      110.0,      19.48,    19.14,    19.79,    18.60,    20.41
      111.0,      19.40,    19.04,    19.72,    18.53,    20.31
      112.0,      19.32,    18.94,    19.64,    18.46,    20.22
      113.0,      19.24,    18.84,    19.57,    18.39,    20.13
      114.0,      19.16,    18.75,    19.50,    18.33,    20.05
      115.0,      19.08,    18.66,    19.44,    18.26,    19.96
      116.0,      19.00,    18.56,    19.37,    18.20,    19.87
      117.0,      18.92,    18.47,    19.30,    18.13,    19.78
      118.0,      18.85,    18.38,    19.24,    18.07,    19.70
      119.0,      18.77,    18.29,    19.17,    18.00,    19.61
      120.0,      18.70,    18.21,    19.11,    17.94,    19.53
      121.0,      18.62,    18.12,    19.05,    17.87,    19.44
      122.0,      18.55,    18.03,    18.99,    17.81,    19.36
      123.0,      18.48,    17.95,    18.93,    17.75,    19.28
      124.0,      18.40,    17.87,    18.87,    17.69,    19.20
      125.0,      18.33,    17.78,    18.81,    17.62,    19.11
      126.0,      18.26,    17.70,    18.76,    17.56,    19.03
      127.0,      18.19,    17.62,    18.70,    17.50,    18.95
      128.0,      18.12,    17.54,    18.64,    17.44,    18.88
      129.0,      18.06,    17.46,    18.59,    17.38,    18.80
      130.0,      17.99,    17.38,    18.53,    17.32,    18.72
      131.0,      17.92,    17.30,    18.48,    17.26,    18.64
      132.0,      17.85,    17.22,    18.43,    17.20,    18.56
      133.0,      17.79,    17.15,    18.37,    17.14,    18.49
      134.0,      17.72,    17.07,    18.32,    17.09,    18.41
      135.0,      17.66,    17.00,    18.27,    17.03,    18.34
      136.0,      17.59,    16.92,    18.22,    16.97,    18.26
      137.0,      17.53,    16.85,    18.17,    16.91,    18.19
      138.0,      17.47,    16.77,    18.12,    16.85,    18.12
      139.0,      17.40,    16.70,    18.07,    16.80,    18.05
      140.0,      17.34,    16.63,    18.02,    16.74,    17.97
      141.0,      17.28,    16.56,    17.98,    16.68,    17.90
      142.0,      17.22,    16.49,    17.93,    16.63,    17.83
      143.0,      17.16,    16.42,    17.88,    16.57,    17.76
      144.0,      17.10,    16.35,    17.83,    16.52,    17.69
      145.0,      17.04,    16.28,    17.79,    16.46,    17.62
      146.0,      16.98,    16.21,    17.74,    16.41,    17.55
      147.0,      16.92,    16.14,    17.70,    16.35,    17.49
      148.0,      16.86,    16.07,    17.65,    16.30,    17.42
      149.0,      16.80,    16.01,    17.61,    16.24,    17.35
      150.0,      16.74,    15.94,    17.56,    16.19,    17.29
      151.0,      16.69,    15.87,    17.52,    16.13,    17.22
      152.0,      16.63,    15.81,    17.48,    16.08,    17.15
      153.0,      16.57,    15.74,    17.43,    16.03,    17.09
      154.0,      16.52,    15.68,    17.39,    15.97,    17.03
      155.0,      16.46,    15.61,    17.35,    15.92,    16.96
      156.0,      16.40,    15.55,    17.30,    15.87,    16.90
      157.0,      16.35,    15.48,    17.26,    15.82,    16.84
      158.0,      16.29,    15.42,    17.22,    15.76,    16.77
      159.0,      16.24,    15.36,    17.18,    15.71,    16.71
      160.0,      16.19,    15.29,    17.14,    15.66,    16.65
      161.0,      16.13,    15.23,    17.10,    15.61,    16.59
      162.0,      16.08,    15.17,    17.06,    15.56,    16.53
      163.0,      16.03,    15.11,    17.01,    15.51,    16.47
      164.0,      15.97,    15.05,    16.97,    15.46,    16.41
      165.0,      15.92,    14.99,    16.93,    15.41,    16.35
      166.0,      15.87,    14.93,    16.89,    15.36,    16.29
      167.0,      15.82,    14.87,    16.86,    15.31,    16.23
      168.0,      15.76,    14.81,    16.82,    15.26,    16.18
      169.0,      15.71,    14.75,    16.78,    15.21,    16.12
      170.0,      15.66,    14.69,    16.74,    15.16,    16.06
      171.0,      15.61,    14.63,    16.70,    15.11,    16.01
      172.0,      15.56,    14.57,    16.66,    15.06,    15.95
      173.0,      15.51,    14.51,    16.62,    15.01,    15.89
      174.0,      15.46,    14.46,    16.58,    14.96,    15.84
      175.0,      15.41,    14.40,    16.55,    14.91,    15.79
      176.0,      15.36,    14.34,    16.51,    14.86,    15.73
      177.0,      15.31,    14.28,    16.47,    14.81,    15.68
      178.0,      15.26,    14.23,    16.43,    14.76,    15.62
      179.0,      15.21,    14.17,    16.39,    14.72,    15.57
      180.0,      15.17,    14.11,    16.36,    14.67,    15.52
      181.0,      15.12,    14.06,    16.32,    14.62,    15.47
      182.0,      15.07,    14.00,    16.28,    14.57,    15.41
      183.0,      15.02,    13.95,    16.25,    14.53,    15.36
      184.0,      14.97,    13.89,    16.21,    14.48,    15.31
      185.0,      14.93,    13.84,    16.17,    14.43,    15.26
      186.0,      14.88,    13.78,    16.14,    14.39,    15.21
      187.0,      14.83,    13.73,    16.10,    14.34,    15.16
      188.0,      14.79,    13.68,    16.07,    14.29,    15.11
      189.0,      14.74,    13.62,    16.03,    14.25,    15.06
      190.0,      14.69,    13.57,    15.99,    14.20,    15.01
      191.0,      14.65,    13.52,    15.96,    14.15,    14.97
      192.0,      14.60,    13.46,    15.92,    14.11,    14.92
      193.0,      14.56,    13.41,    15.89,    14.06,    14.87
      194.0,      14.51,    13.36,    15.85,    14.02,    14.82
      195.0,      14.47,    13.31,    15.82,    13.97,    14.78
      196.0,      14.42,    13.25,    15.78,    13.93,    14.73
      197.0,      14.38,    13.20,    15.75,    13.88,    14.68
      198.0,      14.33,    13.15,    15.71,    13.84,    14.64
      199.0,      14.29,    13.10,    15.68,    13.79,    14.59
      200.0,      14.25,    13.05,    15.64,    13.75,    14.55
      201.0,      14.20,    13.00,    15.61,    13.70,    14.50
      202.0,      14.16,    12.95,    15.57,    13.66,    14.46
      203.0,      14.12,    12.90,    15.54,    13.61,    14.41
      204.0,      14.07,    12.85,    15.51,    13.57,    14.37
      205.0,      14.03,    12.80,    15.47,    13.53,    14.33
      206.0,      13.99,    12.75,    15.44,    13.48,    14.28
      207.0,      13.94,    12.70,    15.40,    13.44,    14.24
      208.0,      13.90,    12.65,    15.37,    13.40,    14.20
      209.0,      13.86,    12.60,    15.34,    13.35,    14.16
      210.0,      13.82,    12.55,    15.30,    13.31,    14.11
      211.0,      13.78,    12.50,    15.27,    13.27,    14.07
      212.0,      13.74,    12.45,    15.24,    13.22,    14.03
      213.0,      13.69,    12.40,    15.20,    13.18,    13.99
      214.0,      13.65,    12.35,    15.17,    13.14,    13.95
      215.0,      13.61,    12.31,    15.14,    13.10,    13.91
      216.0,      13.57,    12.26,    15.10,    13.05,    13.87
      217.0,      13.53,    12.21,    15.07,    13.01,    13.83
      218.0,      13.49,    12.16,    15.04,    12.97,    13.79
      219.0,      13.45,    12.12,    15.00,    12.93,    13.75
      220.0,      13.41,    12.07,    14.97,    12.89,    13.71
      221.0,      13.37,    12.02,    14.94,    12.85,    13.67
      222.0,      13.33,    11.98,    14.91,    12.80,    13.63
      223.0,      13.29,    11.93,    14.87,    12.76,    13.59
      224.0,      13.25,    11.88,    14.84,    12.72,    13.56
      225.0,      13.21,    11.84,    14.81,    12.68,    13.52
      226.0,      13.17,    11.79,    14.78,    12.64,    13.48
      227.0,      13.13,    11.75,    14.75,    12.60,    13.44
      228.0,      13.10,    11.70,    14.71,    12.56,    13.41
      229.0,      13.06,    11.66,    14.68,    12.52,    13.37
      230.0,      13.02,    11.61,    14.65,    12.48,    13.33
      231.0,      12.98,    11.57,    14.62,    12.44,    13.30
      232.0,      12.94,    11.52,    14.59,    12.40,    13.26
      233.0,      12.90,    11.48,    14.55,    12.36,    13.23
      234.0,      12.87,    11.43,    14.52,    12.32,    13.19
      235.0,      12.83,    11.39,    14.49,    12.28,    13.15
      236.0,      12.79,    11.35,    14.46,    12.24,    13.12
      237.0,      12.75,    11.30,    14.43,    12.20,    13.08
      238.0,      12.72,    11.26,    14.40,    12.16,    13.05
      239.0,      12.68,    11.21,    14.37,    12.12,    13.02
      240.0,      12.64,    11.17,    14.33,    12.08,    12.98
      241.0,      12.61,    11.13,    14.30,    12.04,    12.95
      242.0,      12.57,    11.08,    14.27,    12.01,    12.91
      243.0,      12.53,    11.04,    14.24,    11.97,    12.88
      244.0,      12.50,    11.00,    14.21,    11.93,    12.85
      245.0,      12.46,    10.96,    14.18,    11.89,    12.82
      246.0,      12.42,    10.91,    14.15,    11.85,    12.78
      247.0,      12.39,    10.87,    14.12,    11.81,    12.75
      248.0,      12.35,    10.83,    14.09,    11.78,    12.72
      249.0,      12.32,    10.79,    14.06,    11.74,    12.69
      250.0,      12.28,    10.75,    14.03,    11.70,    12.65
      251.0,      12.25,    10.71,    14.00,    11.66,    12.62
      252.0,      12.21,    10.66,    13.97,    11.62,    12.59
      253.0,      12.18,    10.62,    13.94,    11.59,    12.56
      254.0,      12.14,    10.58,    13.91,    11.55,    12.53
      255.0,      12.11,    10.54,    13.88,    11.51,    12.50
      256.0,      12.07,    10.50,    13.85,    11.48,    12.47
      257.0,      12.04,    10.46,    13.82,    11.44,    12.44
      258.0,      12.00,    10.42,    13.79,    11.40,    12.41
      259.0,      11.97,    10.38,    13.76,    11.37,    12.38
      260.0,      11.94,    10.34,    13.73,    11.33,    12.35
      261.0,      11.90,    10.30,    13.70,    11.29,    12.32
      262.0,      11.87,    10.26,    13.67,    11.26,    12.29
      263.0,      11.84,    10.22,    13.64,    11.22,    12.26
      264.0,      11.80,    10.18,    13.61,    11.18,    12.23
      265.0,      11.77,    10.14,    13.58,    11.15,    12.20
      266.0,      11.74,    10.10,    13.55,    11.11,    12.17
      267.0,      11.70,    10.06,    13.52,    11.08,    12.14
      268.0,      11.67,    10.03,    13.49,    11.04,    12.12
      269.0,      11.64,     9.99,    13.46,    11.01,    12.09
      270.0,      11.60,     9.95,    13.44,    10.97,    12.06
      271.0,      11.57,     9.91,    13.41,    10.93,    12.03
      272.0,      11.54,     9.87,    13.38,    10.90,    12.00
      273.0,      11.51,     9.83,    13.35,    10.86,    11.98
      274.0,      11.47,     9.80,    13.32,    10.83,    11.95
      275.0,      11.44,     9.76,    13.29,    10.79,    11.92
      276.0,      11.41,     9.72,    13.26,    10.76,    11.90
      277.0,      11.38,     9.68,    13.23,    10.73,    11.87
      278.0,      11.35,     9.65,    13.21,    10.69,    11.84
      279.0,      11.31,     9.61,    13.18,    10.66,    11.82
      280.0,      11.28,     9.57,    13.15,    10.62,    11.79
      281.0,      11.25,     9.54,    13.12,    10.59,    11.76
      282.0,      11.22,     9.50,    13.09,    10.55,    11.74
      283.0,      11.19,     9.46,    13.06,    10.52,    11.71
      284.0,      11.16,     9.43,    13.04,    10.49,    11.69
      285.0,      11.13,     9.39,    13.01,    10.45,    11.66
      286.0,      11.10,     9.35,    12.98,    10.42,    11.64
      287.0,      11.07,     9.32,    12.95,    10.39,    11.61
      288.0,      11.04,     9.28,    12.92,    10.35,    11.59
      289.0,      11.01,     9.25,    12.90,    10.32,    11.56
      290.0,      10.98,     9.21,    12.87,    10.29,    11.54
      291.0,      10.95,     9.18,    12.84,    10.25,    11.51
      292.0,      10.91,     9.14,    12.81,    10.22,    11.49
      293.0,      10.88,     9.10,    12.79,    10.19,    11.46
      294.0,      10.86,     9.07,    12.76,    10.15,    11.44
      295.0,      10.83,     9.03,    12.73,    10.12,    11.42
      296.0,      10.80,     9.00,    12.70,    10.09,    11.39
      297.0,      10.77,     8.97,    12.68,    10.06,    11.37
      298.0,      10.74,     8.93,    12.65,    10.02,    11.34
      299.0,      10.71,     8.90,    12.62,     9.99,    11.32
      300.0,      10.68,     8.86,    12.59,     9.96,    11.30
      301.0,      10.65,     8.83,    12.57,     9.93,    11.27
      302.0,      10.62,     8.79,    12.54,     9.90,    11.25
      303.0,      10.59,     8.76,    12.51,     9.86,    11.23
      304.0,      10.56,     8.73,    12.49,     9.83,    11.21
      305.0,      10.53,     8.69,    12.46,     9.80,    11.18
      306.0,      10.51,     8.66,    12.43,     9.77,    11.16
      307.0,      10.48,     8.63,    12.41,     9.74,    11.14
      308.0,      10.45,     8.59,    12.38,     9.71,    11.12
      309.0,      10.42,     8.56,    12.35,     9.68,    11.09
      310.0,      10.39,     8.53,    12.33,     9.64,    11.07
