Radius (km), Mean (m/s), NE (m/s), SE (m/s), SW (m/s), NW (m/s)
        0.0,       0.00,     0.00,     0.00,     0.00,     0.00
        1.0,       2.10,     2.11,     2.02,     2.15,     2.11
        2.0,       3.72,     3.74,     3.64,     3.78,     3.74
        3.0,       5.21,     5.22,     5.14,     5.25,     5.22
        4.0,       6.61,     6.62,     6.57,     6.63,     6.62
        5.0,       7.95,     7.95,     7.94,     7.95,     7.95
        6.0,       9.24,     9.24,     9.28,     9.22,     9.24
        7.0,      10.50,    10.49,    10.58,    10.44,    10.49
        8.0,      11.73,    11.72,    11.85,    11.64,    11.72
        9.0,      12.93,    12.91,    13.10,    12.80,    12.91
       10.0,      14.11,    14.08,    14.33,    13.95,    14.08
       11.0,      15.27,    15.23,    15.54,    15.07,    15.23
       12.0,      16.41,    16.37,    16.74,    16.17,    16.37
       13.0,      17.53,    17.48,    17.92,    17.25,    17.48
       14.0,      18.64,    18.58,    19.08,    18.32,    18.58
       15.0,      19.74,    19.67,    20.24,    19.38,    19.67
       16.0,      20.82,    20.75,    21.38,    20.42,    20.75
       17.0,      21.90,    21.81,    22.52,    21.45,    21.82
       18.0,      23.00,    22.89,    23.68,    22.51,    22.91
       19.0,      24.15,    24.01,    24.91,    23.62,    24.06
       20.0,      25.41,    25.23,    26.26,    24.83,    25.31
       21.0,      26.79,    26.57,    27.74,    26.17,    26.69
       22.0,      28.30,    28.04,    29.35,    27.63,    28.19
       23.0,      29.91,    29.62,    31.07,    29.18,    29.78
       24.0,      31.55,    31.24,    32.81,    30.76,    31.39
       25.0,      33.14,    32.83,    34.50,    32.29,    32.95
       26.0,      34.59,    34.30,    36.03,    33.67,    34.37
       27.0,      35.82,    35.55,    37.33,    34.84,    35.57
       28.0,      36.77,    36.53,    38.33,    35.73,    36.49
       29.0,      37.40,    37.18,    38.99,    36.31,    37.11
       30.0,      37.71,    37.50,    39.32,    36.58,    37.42
       31.0,      37.72,    37.52,    39.35,    36.57,    37.45
       32.0,      37.50,    37.28,    39.14,    36.34,    37.26
       33.0,      37.11,    36.86,    38.75,    35.95,    36.90
       34.0,      36.62,    36.32,    38.26,    35.46,    36.46
       35.0,      36.09,    35.73,    37.72,    34.93,    35.97
       36.0,      35.56,    35.14,    37.20,    34.41,    35.49
       37.0,      35.05,    34.57,    36.69,    33.92,    35.03
       38.0,      34.58,    34.05,    36.22,    33.46,    34.60
       39.0,      34.14,    33.55,    35.78,    33.02,    34.20
       40.0,      33.71,    33.08,    35.35,    32.60,    33.81
       41.0,      33.30,    32.62,    34.94,    32.19,    33.44
       42.0,      32.90,    32.18,    34.55,    31.80,    33.07
       43.0,      32.52,    31.76,    34.16,    31.43,    32.72
       44.0,      32.15,    31.35,    33.79,    31.06,    32.38
       45.0,      31.79,    30.95,    33.43,    30.71,    32.06
       46.0,      31.44,    30.57,    33.09,    30.37,    31.74
       47.0,      31.11,    30.20,    32.75,    30.04,    31.43
       48.0,      30.78,    29.84,    32.43,    29.73,    31.14
       49.0,      30.47,    29.50,    32.11,    29.42,    30.85
       50.0,      30.17,    29.16,    31.81,    29.12,    30.57
       51.0,      29.87,    28.84,    31.52,    28.84,    30.31
       52.0,      29.59,    28.53,    31.23,    28.56,    30.05
       53.0,      29.32,    28.23,    30.96,    28.29,    29.79
       54.0,      29.05,    27.94,    30.69,    28.03,    29.55
       55.0,      28.80,    27.65,    30.43,    27.78,    29.31
       56.0,      28.55,    27.38,    30.18,    27.54,    29.08
       57.0,      28.31,    27.12,    29.94,    27.31,    28.86
       58.0,      28.07,    26.86,    29.70,    27.08,    28.65
       59.0,      27.85,    26.61,    29.48,    26.86,    28.44
       60.0,      27.63,    26.37,    29.25,    26.65,    28.23
       61.0,      27.41,    26.14,    29.04,    26.44,    28.04
       62.0,      27.21,    25.92,    28.83,    26.24,    27.85
       63.0,      27.01,    25.70,    28.63,    26.04,    27.66
       64.0,      26.81,    25.49,    28.43,    25.86,    27.48
       65.0,      26.63,    25.28,    28.24,    25.67,    27.30
       66.0,      26.44,    25.08,    28.06,    25.50,    27.13
       67.0,      26.27,    24.89,    27.88,    25.32,    26.97
       68.0,      26.09,    24.70,    27.70,    25.16,    26.81
       69.0,      25.93,    24.52,    27.53,    25.00,    26.65
       70.0,      25.76,    24.34,    27.37,    24.84,    26.50
       71.0,      25.60,    24.17,    27.21,    24.69,    26.35
       72.0,      25.45,    24.00,    27.05,    24.54,    26.21
       73.0,      25.30,    23.84,    26.90,    24.39,    26.07
       74.0,      25.15,    23.68,    26.75,    24.25,    25.93
       75.0,      25.01,    23.53,    26.61,    24.12,    25.79
       76.0,      24.87,    23.38,    26.47,    23.98,    25.66
       77.0,      24.74,    23.24,    26.33,    23.85,    25.54
       78.0,      24.61,    23.09,    26.19,    23.73,    25.41
       79.0,      24.48,    22.96,    26.06,    23.60,    25.29
       80.0,      24.35,    22.82,    25.94,    23.48,    25.17
       81.0,      24.23,    22.69,    25.81,    23.37,    25.06
       82.0,      24.11,    22.57,    25.69,    23.25,    24.94
       83.0,      24.00,    22.44,    25.57,    23.14,    24.83
       84.0,      23.88,    22.32,    25.46,    23.04,    24.73
       85.0,      23.77,    22.20,    25.34,    22.93,    24.62
       86.0,      23.67,    22.09,    25.23,    22.83,    24.52
       87.0,      23.56,    21.97,    25.12,    22.73,    24.42
       88.0,      23.46,    21.86,    25.02,    22.63,    24.32
       89.0,      23.36,    21.76,    24.91,    22.53,    24.22
       90.0,      23.26,    21.65,    24.81,    22.44,    24.13
       91.0,      23.16,    21.55,    24.71,    22.35,    24.03
       92.0,      23.06,    21.45,    24.61,    22.26,    23.94
       93.0,      22.97,    21.35,    24.52,    22.17,    23.85
       94.0,      22.88,    21.25,    24.42,    22.08,    23.76
       95.0,      22.79,    21.16,    24.33,    22.00,    23.68
       96.0,      22.70,    21.07,    24.24,    21.91,    23.59
       97.0,      22.62,    20.98,    24.15,    21.83,    23.51
       98.0,      22.53,    20.89,    24.06,    21.75,    23.43
       99.0,      22.45,    20.80,    23.98,    21.68,    23.35
      100.0,      22.37,    20.72,    23.89,    21.60,    23.27
      101.0,      22.29,    20.63,    23.81,    21.52,    23.19
      102.0,      22.21,    20.55,    23.73,    21.45,    23.11
      103.0,      22.13,    20.47,    23.65,    21.38,    23.04
      104.0,      22.06,    20.39,    23.57,    21.31,    22.96
      105.0,      21.98,    20.31,    23.49,    21.24,    22.89
      106.0,      21.91,    20.24,    23.41,    21.17,    22.82
      107.0,      21.84,    20.16,    23.34,    21.10,    22.75
      108.0,      21.77,    20.09,    23.26,    21.03,    22.68
      109.0,      21.69,    20.01,    23.19,    20.97,    22.61
      110.0,      21.63,    19.94,    23.12,    20.90,    22.54
      111.0,      21.56,    19.87,    23.05,    20.84,    22.47
      112.0,      21.49,    19.80,    22.98,    20.78,    22.41
      113.0,      21.42,    19.73,    22.91,    20.72,    22.34
      114.0,      21.36,    19.67,    22.84,    20.65,    22.27
      115.0,      21.29,    19.60,    22.77,    20.59,    22.21
      116.0,      21.23,    19.53,    22.71,    20.54,    22.15
      117.0,      21.17,    19.47,    22.64,    20.48,    22.09
      118.0,      21.11,    19.40,    22.57,    20.42,    22.02
      119.0,      21.04,    19.34,    22.51,    20.36,    21.96
      120.0,      20.98,    19.28,    22.45,    20.31,    21.90
      121.0,      20.92,    19.22,    22.38,    20.25,    21.84
      122.0,      20.86,    19.16,    22.32,    20.20,    21.78
      123.0,      20.81,    19.10,    22.26,    20.14,    21.72
      124.0,      20.75,    19.04,    22.20,    20.09,    21.67
      125.0,      20.69,    18.98,    22.14,    20.03,    21.61
      126.0,      20.63,    18.92,    22.08,    19.98,    21.55
      127.0,      20.58,    18.86,    22.02,    19.93,    21.49
      128.0,      20.52,    18.81,    21.96,    19.88,    21.44
      129.0,      20.47,    18.75,    21.90,    19.83,    21.38
      130.0,      20.41,    18.70,    21.84,    19.78,    21.33
      131.0,      20.36,    18.64,    21.78,    19.73,    21.27
      132.0,      20.30,    18.59,    21.73,    19.68,    21.22
      133.0,      20.25,    18.53,    21.67,    19.63,    21.17
      134.0,      20.20,    18.48,    21.62,    19.58,    21.11
      135.0,      20.14,    18.43,    21.56,    19.53,    21.06
      136.0,      20.09,    18.37,    21.51,    19.48,    21.01
      137.0,      20.04,    18.32,    21.45,    19.44,    20.96
      138.0,      19.99,    18.27,    21.40,    19.39,    20.90
      139.0,      19.94,    18.22,    21.34,    19.34,    20.85
      140.0,      19.89,    18.17,    21.29,    19.30,    20.80
      141.0,      19.84,    18.12,    21.24,    19.25,    20.75
      142.0,      19.79,    18.07,    21.18,    19.21,    20.70
      143.0,      19.74,    18.02,    21.13,    19.16,    20.65
      144.0,      19.69,    17.97,    21.08,    19.11,    20.60
      145.0,      19.64,    17.92,    21.03,    19.07,    20.55
      146.0,      19.59,    17.87,    20.98,    19.03,    20.50
      147.0,      19.55,    17.82,    20.93,    18.98,    20.45
      148.0,      19.50,    17.78,    20.87,    18.94,    20.40
      149.0,      19.45,    17.73,    20.82,    18.89,    20.36
      150.0,      19.40,    17.68,    20.77,    18.85,    20.31
      151.0,      19.36,    17.63,    20.72,    18.81,    20.26
      152.0,      19.31,    17.59,    20.67,    18.77,    20.21
      153.0,      19.26,    17.54,    20.62,    18.72,    20.17
      154.0,      19.22,    17.50,    20.58,    18.68,    20.12
      155.0,      19.17,    17.45,    20.53,    18.64,    20.07
      156.0,      19.13,    17.40,    20.48,    18.60,    20.02
      157.0,      19.08,    17.36,    20.43,    18.56,    19.98
      158.0,      19.04,    17.31,    20.38,    18.51,    19.93
      159.0,      18.99,    17.27,    20.33,    18.47,    19.89
      160.0,      18.95,    17.22,    20.29,    18.43,    19.84
      161.0,      18.90,    17.18,    20.24,    18.39,    19.80
      162.0,      18.86,    17.14,    20.19,    18.35,    19.75
      163.0,      18.81,    17.09,    20.14,    18.31,    19.70
      164.0,      18.77,    17.05,    20.10,    18.27,    19.66
      165.0,      18.73,    17.01,    20.05,    18.23,    19.61
      166.0,      18.68,    16.96,    20.00,    18.19,    19.57
      167.0,      18.64,    16.92,    19.96,    18.15,    19.53
      168.0,      18.60,    16.88,    19.91,    18.11,    19.48
      169.0,      18.55,    16.83,    19.87,    18.07,    19.44
      170.0,      18.51,    16.79,    19.82,    18.03,    19.39
      171.0,      18.47,    16.75,    19.77,    17.99,    19.35
      172.0,      18.42,    16.71,    19.73,    17.95,    19.31
      173.0,      18.38,    16.67,    19.68,    17.92,    19.26
      174.0,      18.34,    16.62,    19.64,    17.88,    19.22
      175.0,      18.30,    16.58,    19.59,    17.84,    19.18
      176.0,      18.26,    16.54,    19.55,    17.80,    19.13
      177.0,      18.21,    16.50,    19.50,    17.76,    19.09
      178.0,      18.17,    16.46,    19.46,    17.72,    19.05
      179.0,      18.13,    16.42,    19.42,    17.69,    19.01
      180.0,      18.09,    16.38,    19.37,    17.65,    18.96
      181.0,      18.05,    16.34,    19.33,    17.61,    18.92
      182.0,      18.01,    16.30,    19.28,    17.57,    18.88
      183.0,      17.97,    16.26,    19.24,    17.54,    18.84
      184.0,      17.93,    16.22,    19.20,    17.50,    18.79
      185.0,      17.89,    16.18,    19.15,    17.46,    18.75
      186.0,      17.85,    16.14,    19.11,    17.43,    18.71
      187.0,      17.81,    16.10,    19.07,    17.39,    18.67
      188.0,      17.77,    16.06,    19.02,    17.35,    18.63
      189.0,      17.73,    16.02,    18.98,    17.31,    18.59
      190.0,      17.69,    15.98,    18.94,    17.28,    18.55
      191.0,      17.65,    15.94,    18.90,    17.24,    18.50
      192.0,      17.61,    15.90,    18.85,    17.21,    18.46
      193.0,      17.57,    15.86,    18.81,    17.17,    18.42
      194.0,      17.53,    15.82,    18.77,    17.13,    18.38
      195.0,      17.49,    15.78,    18.73,    17.10,    18.34
      196.0,      17.45,    15.75,    18.68,    17.06,    18.30
      197.0,      17.41,    15.71,    18.64,    17.03,    18.26
      198.0,      17.37,    15.67,    18.60,    16.99,    18.22
      199.0,      17.33,    15.63,    18.56,    16.95,    18.18
      200.0,      17.29,    15.59,    18.52,    16.92,    18.14
      201.0,      17.25,    15.56,    18.48,    16.88,    18.10
      202.0,      17.22,    15.52,    18.44,    16.85,    18.06
      203.0,      17.18,    15.48,    18.39,    16.81,    18.02
      204.0,      17.14,    15.44,    18.35,    16.78,    17.98
      205.0,      17.10,    15.41,    18.31,    16.74,    17.94
      206.0,      17.06,    15.37,    18.27,    16.71,    17.90
      207.0,      17.02,    15.33,    18.23,    16.67,    17.86
      208.0,      16.99,    15.29,    18.19,    16.64,    17.82
      209.0,      16.95,    15.26,    18.15,    16.60,    17.79
      210.0,      16.91,    15.22,    18.11,    16.57,    17.75
      211.0,      16.87,    15.18,    18.07,    16.53,    17.71
      212.0,      16.84,    15.15,    18.03,    16.50,    17.67
      213.0,      16.80,    15.11,    17.99,    16.47,    17.63
      214.0,      16.76,    15.07,    17.95,    16.43,    17.59
      215.0,      16.72,    15.04,    17.91,    16.40,    17.55
      216.0,      16.69,    15.00,    17.87,    16.36,    17.51
      217.0,      16.65,    14.96,    17.83,    16.33,    17.48
      218.0,      16.61,    14.93,    17.79,    16.29,    17.44
      219.0,      16.58,    14.89,    17.75,    16.26,    17.40
      220.0,      16.54,    14.86,    17.71,    16.23,    17.36
      221.0,      16.50,    14.82,    17.67,    16.19,    17.32
      222.0,      16.47,    14.78,    17.63,    16.16,    17.29
      223.0,      16.43,    14.75,    17.59,    16.13,    17.25
      224.0,      16.39,    14.71,    17.55,    16.09,    17.21
      225.0,      16.36,    14.68,    17.51,    16.06,    17.17
      226.0,      16.32,    14.64,    17.48,    16.03,    17.14
      227.0,      16.28,    14.61,    17.44,    15.99,    17.10
      228.0,      16.25,    14.57,    17.40,    15.96,    17.06
      229.0,      16.21,    14.54,    17.36,    15.93,    17.02
      230.0,      16.18,    14.50,    17.32,    15.89,    16.99
      231.0,      16.14,    14.47,    17.28,    15.86,    16.95
      232.0,      16.10,    14.43,    17.24,    15.83,    16.91
      233.0,      16.07,    14.40,    17.21,    15.80,    16.88
      234.0,      16.03,    14.36,    17.17,    15.76,    16.84
      235.0,      16.00,    14.33,    17.13,    15.73,    16.80
      236.0,      15.96,    14.29,    17.09,    15.70,    16.77
      237.0,      15.93,    14.26,    17.05,    15.66,    16.73
      238.0,      15.89,    14.23,    17.02,    15.63,    16.69
      239.0,      15.86,    14.19,    16.98,    15.60,    16.66
      240.0,      15.82,    14.16,    16.94,    15.57,    16.62
      241.0,      15.79,    14.12,    16.90,    15.54,    16.58
      242.0,      15.75,    14.09,    16.87,    15.50,    16.55
      243.0,      15.72,    14.06,    16.83,    15.47,    16.51
      244.0,      15.68,    14.02,    16.79,    15.44,    16.48
      245.0,      15.65,    13.99,    16.75,    15.41,    16.44
      246.0,      15.61,    13.96,    16.72,    15.38,    16.40
      247.0,      15.58,    13.92,    16.68,    15.34,    16.37
      248.0,      15.54,    13.89,    16.64,    15.31,    16.33
      249.0,      15.51,    13.86,    16.61,    15.28,    16.30
      250.0,      15.48,    13.82,    16.57,    15.25,    16.26
      251.0,      15.44,    13.79,    16.53,    15.22,    16.23
      252.0,      15.41,    13.76,    16.50,    15.19,    16.19
      253.0,      15.37,    13.72,    16.46,    15.15,    16.16
      254.0,      15.34,    13.69,    16.42,    15.12,    16.12
      255.0,      15.31,    13.66,    16.39,    15.09,    16.09
      256.0,      15.27,    13.63,    16.35,    15.06,    16.05
      257.0,      15.24,    13.59,    16.32,    15.03,    16.02
      258.0,      15.21,    13.56,    16.28,    15.00,    15.98
      259.0,      15.17,    13.53,    16.24,    14.97,    15.95
      260.0,      15.14,    13.50,    16.21,    14.94,    15.91
      261.0,      15.10,    13.46,    16.17,    14.91,    15.88
      262.0,      15.07,    13.43,    16.14,    14.88,    15.84
      263.0,      15.04,    13.40,    16.10,    14.85,    15.81
      264.0,      15.01,    13.37,    16.07,    14.81,    15.77
      265.0,      14.97,    13.33,    16.03,    14.78,    15.74
      266.0,      14.94,    13.30,    15.99,    14.75,    15.71
      267.0,      14.91,    13.27,    15.96,    14.72,    15.67
      268.0,      14.87,    13.24,    15.92,    14.69,    15.64
      269.0,      14.84,    13.21,    15.89,    14.66,    15.60
      270.0,      14.81,    13.18,    15.85,    14.63,    15.57
      271.0,      14.78,    13.14,    15.82,    14.60,    15.54
      272.0,      14.74,    13.11,    15.78,    14.57,    15.50
      273.0,      14.71,    13.08,    15.75,    14.54,    15.47
      274.0,      14.68,    13.05,    15.71,    14.51,    15.43
      275.0,      14.65,    13.02,    15.68,    14.48,    15.40
      276.0,      14.61,    12.99,    15.64,    14.45,    15.37
      277.0,      14.58,    12.96,    15.61,    14.42,    15.33
      278.0,      14.55,    12.93,    15.58,    14.39,    15.30
      279.0,      14.52,    12.89,    15.54,    14.36,    15.27
      280.0,      14.48,    12.86,    15.51,    14.33,    15.23
      281.0,      14.45,    12.83,    15.47,    14.30,    15.20
      282.0,      14.42,    12.80,    15.44,    14.27,    15.17
      283.0,      14.39,    12.77,    15.40,    14.24,    15.14
      284.0,      14.36,    12.74,    15.37,    14.22,    15.10
      285.0,      14.33,    12.71,    15.34,    14.19,    15.07
      286.0,      14.29,    12.68,    15.30,    14.16,    15.04
      287.0,      14.26,    12.65,    15.27,    14.13,    15.00
      288.0,      14.23,    12.62,    15.24,    14.10,    14.97
      289.0,      14.20,    12.59,    15.20,    14.07,    14.94
      290.0,      14.17,    12.56,    15.17,    14.04,    14.91
      291.0,      14.14,    12.53,    15.13,    14.01,    14.87
      292.0,      14.11,    12.50,    15.10,    13.98,    14.84
      293.0,      14.08,    12.47,    15.07,    13.95,    14.81
      294.0,      14.04,    12.44,    15.03,    13.92,    14.78
      295.0,      14.01,    12.41,    15.00,    13.90,    14.75
      296.0,      13.98,    12.38,    14.97,    13.87,    14.71
      297.0,      13.95,    12.35,    14.94,    13.84,    14.68
      298.0,      13.92,    12.32,    14.90,    13.81,    14.65
      299.0,      13.89,    12.29,    14.87,    13.78,    14.62
      300.0,      13.86,    12.26,    14.84,    13.75,    14.59
      301.0,      13.83,    12.23,    14.80,    13.73,    14.55
      302.0,      13.80,    12.20,    14.77,    13.70,    14.52
      303.0,      13.77,    12.17,    14.74,    13.67,    14.49
      304.0,      13.74,    12.15,    14.71,    13.64,    14.46
      305.0,      13.71,    12.12,    14.67,    13.61,    14.43
      306.0,      13.68,    12.09,    14.64,    13.58,    14.40
      307.0,      13.65,    12.06,    14.61,    13.56,    14.37
      308.0,      13.62,    12.03,    14.58,    13.53,    14.33
      309.0,      13.59,    12.00,    14.54,    13.50,    14.30
      310.0,      13.56,    11.97,    14.51,    13.47,    14.27
