Radius (km), Mean (m/s), NE (m/s), SE (m/s), SW (m/s), NW (m/s)
        0.0,       0.00,     0.00,     0.00,     0.00,     0.00
        1.0,       2.13,     2.17,     2.03,     2.17,     2.17
        2.0,       3.98,     4.02,     3.86,     4.02,     4.02
        3.0,       5.74,     5.77,     5.64,     5.77,     5.77
        4.0,       7.44,     7.46,     7.37,     7.46,     7.46
        5.0,       9.09,     9.10,     9.06,     9.10,     9.10
        6.0,      10.72,    10.71,    10.74,    10.71,    10.71
        7.0,      12.32,    12.29,    12.40,    12.29,    12.29
        8.0,      13.89,    13.85,    14.04,    13.85,    13.85
        9.0,      15.45,    15.38,    15.66,    15.38,    15.38
       10.0,      16.99,    16.89,    17.28,    16.89,    16.89
       11.0,      18.52,    18.39,    18.88,    18.40,    18.39
       12.0,      20.05,    19.89,    20.50,    19.91,    19.89
       13.0,      21.62,    21.41,    22.18,    21.47,    21.43
       14.0,      23.29,    23.00,    23.97,    23.13,    23.06
       15.0,      25.10,    24.72,    25.92,    24.93,    24.83
       16.0,      27.08,    26.60,    28.05,    26.89,    26.77
       17.0,      29.20,    28.63,    30.33,    28.99,    28.86
       18.0,      31.43,    30.77,    32.71,    31.17,    31.08
       19.0,      33.68,    32.96,    35.10,    33.36,    33.31
       20.0,      35.85,    35.09,    37.39,    35.45,    35.48
       21.0,      37.84,    37.06,    39.48,    37.35,    37.46
       22.0,      39.55,    38.78,    41.27,    38.98,    39.16
       23.0,      40.91,    40.17,    42.70,    40.27,    40.51
       24.0,      41.90,    41.19,    43.74,    41.21,    41.47
       25.0,      42.52,    41.84,    44.40,    41.80,    42.04
       26.0,      42.81,    42.14,    44.73,    42.08,    42.27
       27.0,      42.82,    42.16,    44.79,    42.12,    42.22
       28.0,      42.65,    41.97,    44.67,    41.99,    41.96
       29.0,      42.36,    41.65,    44.43,    41.76,    41.58
       30.0,      42.01,    41.26,    44.14,    41.48,    41.16
       31.0,      41.66,    40.86,    43.85,    41.20,    40.73
       32.0,      41.32,    40.47,    43.56,    40.93,    40.32
       33.0,      41.00,    40.11,    43.29,    40.67,    39.93
       34.0,      40.69,    39.75,    43.02,    40.42,    39.57
       35.0,      40.39,    39.41,    42.76,    40.17,    39.22
       36.0,      40.09,    39.07,    42.50,    39.92,    38.88
       37.0,      39.80,    38.74,    42.25,    39.67,    38.55
       38.0,      39.52,    38.41,    41.99,    39.43,    38.23
       39.0,      39.23,    38.08,    41.74,    39.19,    37.92
       40.0,      38.96,    37.77,    41.49,    38.95,    37.62
       41.0,      38.69,    37.45,    41.24,    38.71,    37.33
       42.0,      38.42,    37.15,    41.00,    38.48,    37.05
       43.0,      38.16,    36.84,    40.75,    38.25,    36.78
       44.0,      37.90,    36.54,    40.51,    38.02,    36.52
       45.0,      37.64,    36.25,    40.27,    37.79,    36.26
       46.0,      37.39,    35.96,    40.03,    37.57,    36.01
       47.0,      37.15,    35.68,    39.80,    37.34,    35.77
       48.0,      36.91,    35.40,    39.57,    37.12,    35.54
       49.0,      36.67,    35.12,    39.34,    36.90,    35.31
       50.0,      36.43,    34.85,    39.11,    36.69,    35.09
       51.0,      36.20,    34.58,    38.88,    36.47,    34.87
       52.0,      35.98,    34.32,    38.66,    36.26,    34.66
       53.0,      35.75,    34.06,    38.43,    36.05,    34.46
       54.0,      35.53,    33.81,    38.21,    35.84,    34.26
       55.0,      35.31,    33.56,    37.99,    35.63,    34.07
       56.0,      35.10,    33.31,    37.78,    35.43,    33.88
       57.0,      34.89,    33.07,    37.56,    35.23,    33.70
       58.0,      34.68,    32.83,    37.35,    35.03,    33.52
       59.0,      34.48,    32.59,    37.14,    34.83,    33.35
       60.0,      34.27,    32.36,    36.93,    34.63,    33.18
       61.0,      34.08,    32.13,    36.72,    34.43,    33.01
       62.0,      33.88,    31.91,    36.52,    34.24,    32.85
       63.0,      33.69,    31.69,    36.31,    34.05,    32.70
       64.0,      33.50,    31.47,    36.11,    33.86,    32.54
       65.0,      33.31,    31.26,    35.91,    33.67,    32.39
       66.0,      33.12,    31.04,    35.71,    33.48,    32.25
       67.0,      32.94,    30.84,    35.51,    33.30,    32.11
       68.0,      32.76,    30.63,    35.32,    33.12,    31.97
       69.0,      32.58,    30.43,    35.13,    32.94,    31.83
       70.0,      32.40,    30.23,    34.94,    32.76,    31.70
       71.0,      32.23,    30.03,    34.75,    32.58,    31.57
       72.0,      32.06,    29.84,    34.56,    32.40,    31.44
       73.0,      31.89,    29.65,    34.37,    32.23,    31.31
       74.0,      31.72,    29.46,    34.19,    32.06,    31.19
       75.0,      31.56,    29.28,    34.00,    31.88,    31.07
       76.0,      31.40,    29.10,    33.82,    31.71,    30.95
       77.0,      31.24,    28.92,    33.64,    31.55,    30.84
       78.0,      31.08,    28.74,    33.46,    31.38,    30.72
       79.0,      30.92,    28.57,    33.29,    31.22,    30.61
       80.0,      30.76,    28.39,    33.11,    31.05,    30.50
       81.0,      30.61,    28.22,    32.94,    30.89,    30.40
       82.0,      30.46,    28.06,    32.76,    30.73,    30.29
       83.0,      30.31,    27.89,    32.59,    30.57,    30.19
       84.0,      30.16,    27.73,    32.42,    30.41,    30.08
       85.0,      30.02,    27.57,    32.26,    30.26,    29.98
       86.0,      29.87,    27.42,    32.09,    30.10,    29.89
       87.0,      29.73,    27.26,    31.92,    29.95,    29.79
       88.0,      29.59,    27.11,    31.76,    29.80,    29.69
       89.0,      29.45,    26.96,    31.60,    29.65,    29.60
       90.0,      29.31,    26.81,    31.44,    29.50,    29.51
       91.0,      29.18,    26.66,    31.28,    29.35,    29.42
       92.0,      29.04,    26.52,    31.12,    29.21,    29.33
       93.0,      28.91,    26.38,    30.96,    29.06,    29.24
       94.0,      28.78,    26.23,    30.81,    28.92,    29.15
       95.0,      28.65,    26.10,    30.66,    28.77,    29.06
       96.0,      28.52,    25.96,    30.50,    28.63,    28.98
       97.0,      28.39,    25.82,    30.35,    28.49,    28.90
       98.0,      28.27,    25.69,    30.20,    28.36,    28.81
       99.0,      28.14,    25.56,    30.05,    28.22,    28.73
      100.0,      28.02,    25.43,    29.91,    28.08,    28.65
      101.0,      27.90,    25.30,    29.76,    27.95,    28.57
      102.0,      27.77,    25.18,    29.62,    27.81,    28.49
      103.0,      27.66,    25.05,    29.47,    27.68,    28.41
      104.0,      27.54,    24.93,    29.33,    27.55,    28.34
      105.0,      27.42,    24.81,    29.19,    27.42,    28.26
      106.0,      27.30,    24.69,    29.05,    27.29,    28.18
      107.0,      27.19,    24.57,    28.91,    27.17,    28.11
      108.0,      27.08,    24.46,    28.77,    27.04,    28.03
      109.0,      26.96,    24.34,    28.64,    26.91,    27.96
      110.0,      26.85,    24.23,    28.50,    26.79,    27.89
      111.0,      26.74,    24.12,    28.37,    26.67,    27.82
      112.0,      26.63,    24.01,    28.23,    26.55,    27.74
      113.0,      26.52,    23.90,    28.10,    26.42,    27.67
      114.0,      26.42,    23.79,    27.97,    26.31,    27.60
      115.0,      26.31,    23.69,    27.84,    26.19,    27.53
      116.0,      26.21,    23.58,    27.71,    26.07,    27.46
      117.0,      26.10,    23.48,    27.59,    25.95,    27.40
      118.0,      26.00,    23.38,    27.46,    25.84,    27.33
      119.0,      25.90,    23.28,    27.33,    25.72,    27.26
      120.0,      25.80,    23.18,    27.21,    25.61,    27.19
      121.0,      25.70,    23.08,    27.09,    25.50,    27.13
      122.0,      25.60,    22.98,    26.97,    25.39,    27.06
      123.0,      25.50,    22.88,    26.84,    25.28,    27.00
      124.0,      25.40,    22.79,    26.72,    25.17,    26.93
      125.0,      25.31,    22.70,    26.61,    25.06,    26.87
      126.0,      25.21,    22.60,    26.49,    24.95,    26.80
      127.0,      25.12,    22.51,    26.37,    24.84,    26.74
      128.0,      25.02,    22.42,    26.25,    24.74,    26.67
      129.0,      24.93,    22.33,    26.14,    24.63,    26.61
      130.0,      24.84,    22.24,    26.03,    24.53,    26.55
      131.0,      24.75,    22.16,    25.91,    24.43,    26.49
      132.0,      24.66,    22.07,    25.80,    24.33,    26.43
      133.0,      24.57,    21.99,    25.69,    24.22,    26.36
      134.0,      24.48,    21.90,    25.58,    24.12,    26.30
      135.0,      24.39,    21.82,    25.47,    24.02,    26.24
      136.0,      24.30,    21.74,    25.36,    23.93,    26.18
      137.0,      24.21,    21.66,    25.25,    23.83,    26.12
      138.0,      24.13,    21.58,    25.15,    23.73,    26.06
      139.0,      24.04,    21.50,    25.04,    23.64,    26.00
      140.0,      23.96,    21.42,    24.94,    23.54,    25.94
      141.0,      23.88,    21.34,    24.83,    23.45,    25.88
      142.0,      23.79,    21.26,    24.73,    23.35,    25.82
      143.0,      23.71,    21.19,    24.63,    23.26,    25.77
      144.0,      23.63,    21.11,    24.52,    23.17,    25.71
      145.0,      23.55,    21.04,    24.42,    23.08,    25.65
      146.0,      23.47,    20.96,    24.32,    22.99,    25.59
      147.0,      23.39,    20.89,    24.22,    22.90,    25.53
      148.0,      23.31,    20.82,    24.13,    22.81,    25.48
      149.0,      23.23,    20.75,    24.03,    22.72,    25.42
      150.0,      23.15,    20.68,    23.93,    22.64,    25.36
      151.0,      23.08,    20.61,    23.84,    22.55,    25.31
      152.0,      23.00,    20.54,    23.74,    22.46,    25.25
      153.0,      22.92,    20.47,    23.65,    22.38,    25.19
      154.0,      22.85,    20.40,    23.55,    22.29,    25.14
      155.0,      22.77,    20.34,    23.46,    22.21,    25.08
      156.0,      22.70,    20.27,    23.37,    22.13,    25.03
      157.0,      22.63,    20.21,    23.28,    22.05,    24.97
      158.0,      22.55,    20.14,    23.19,    21.96,    24.92
      159.0,      22.48,    20.08,    23.10,    21.88,    24.86
      160.0,      22.41,    20.01,    23.01,    21.80,    24.81
      161.0,      22.34,    19.95,    22.92,    21.72,    24.75
      162.0,      22.27,    19.89,    22.83,    21.65,    24.70
      163.0,      22.20,    19.83,    22.75,    21.57,    24.64
      164.0,      22.13,    19.77,    22.66,    21.49,    24.59
      165.0,      22.06,    19.70,    22.57,    21.41,    24.54
      166.0,      21.99,    19.64,    22.49,    21.34,    24.48
      167.0,      21.92,    19.59,    22.40,    21.26,    24.43
      168.0,      21.85,    19.53,    22.32,    21.19,    24.38
      169.0,      21.79,    19.47,    22.24,    21.11,    24.32
      170.0,      21.72,    19.41,    22.16,    21.04,    24.27
      171.0,      21.65,    19.35,    22.07,    20.97,    24.22
      172.0,      21.59,    19.30,    21.99,    20.89,    24.16
      173.0,      21.52,    19.24,    21.91,    20.82,    24.11
      174.0,      21.46,    19.18,    21.83,    20.75,    24.06
      175.0,      21.39,    19.13,    21.75,    20.68,    24.01
      176.0,      21.33,    19.07,    21.68,    20.61,    23.96
      177.0,      21.27,    19.02,    21.60,    20.54,    23.90
      178.0,      21.20,    18.97,    21.52,    20.47,    23.85
      179.0,      21.14,    18.91,    21.45,    20.40,    23.80
      180.0,      21.08,    18.86,    21.37,    20.34,    23.75
      181.0,      21.02,    18.81,    21.29,    20.27,    23.70
      182.0,      20.96,    18.76,    21.22,    20.20,    23.65
      183.0,      20.90,    18.70,    21.15,    20.14,    23.59
      184.0,      20.84,    18.65,    21.07,    20.07,    23.54
      185.0,      20.78,    18.60,    21.00,    20.01,    23.49
      186.0,      20.72,    18.55,    20.93,    19.94,    23.44
      187.0,      20.66,    18.50,    20.85,    19.88,    23.39
      188.0,      20.60,    18.45,    20.78,    19.81,    23.34
      189.0,      20.54,    18.40,    20.71,    19.75,    23.29
      190.0,      20.48,    18.36,    20.64,    19.69,    23.24
      191.0,      20.42,    18.31,    20.57,    19.63,    23.19
      192.0,      20.37,    18.26,    20.50,    19.57,    23.14
      193.0,      20.31,    18.21,    20.43,    19.50,    23.09
      194.0,      20.25,    18.16,    20.37,    19.44,    23.04
      195.0,      20.20,    18.12,    20.30,    19.38,    22.99
      196.0,      20.14,    18.07,    20.23,    19.32,    22.94
      197.0,      20.09,    18.03,    20.17,    19.27,    22.89
      198.0,      20.03,    17.98,    20.10,    19.21,    22.84
      199.0,      19.98,    17.93,    20.03,    19.15,    22.80
      200.0,      19.92,    17.89,    19.97,    19.09,    22.75
      201.0,      19.87,    17.84,    19.90,    19.03,    22.70
      202.0,      19.82,    17.80,    19.84,    18.98,    22.65
      203.0,      19.76,    17.76,    19.78,    18.92,    22.60
      204.0,      19.71,    17.71,    19.71,    18.86,    22.55
      205.0,      19.66,    17.67,    19.65,    18.81,    22.50
      206.0,      19.61,    17.62,    19.59,    18.75,    22.46
      207.0,      19.55,    17.58,    19.53,    18.70,    22.41
      208.0,      19.50,    17.54,    19.47,    18.65,    22.36
      209.0,      19.45,    17.50,    19.41,    18.59,    22.31
      210.0,      19.40,    17.45,    19.35,    18.54,    22.26
      211.0,      19.35,    17.41,    19.29,    18.49,    22.22
      212.0,      19.30,    17.37,    19.23,    18.43,    22.17
      213.0,      19.25,    17.33,    19.17,    18.38,    22.12
      214.0,      19.20,    17.29,    19.11,    18.33,    22.07
      215.0,      19.15,    17.25,    19.05,    18.28,    22.03
      216.0,      19.10,    17.21,    18.99,    18.23,    21.98
      217.0,      19.05,    17.17,    18.94,    18.18,    21.93
      218.0,      19.01,    17.13,    18.88,    18.13,    21.89
      219.0,      18.96,    17.09,    18.82,    18.08,    21.84
      220.0,      18.91,    17.05,    18.77,    18.03,    21.79
      221.0,      18.86,    17.01,    18.71,    17.98,    21.75
      222.0,      18.81,    16.97,    18.66,    17.93,    21.70
      223.0,      18.77,    16.93,    18.60,    17.88,    21.65
      224.0,      18.72,    16.89,    18.55,    17.83,    21.61
      225.0,      18.67,    16.86,    18.49,    17.78,    21.56
      226.0,      18.63,    16.82,    18.44,    17.74,    21.52
      227.0,      18.58,    16.78,    18.39,    17.69,    21.47
      228.0,      18.54,    16.74,    18.33,    17.64,    21.42
      229.0,      18.49,    16.70,    18.28,    17.60,    21.38
      230.0,      18.45,    16.67,    18.23,    17.55,    21.33
      231.0,      18.40,    16.63,    18.18,    17.51,    21.29
      232.0,      18.36,    16.59,    18.13,    17.46,    21.24
      233.0,      18.31,    16.56,    18.08,    17.42,    21.20
      234.0,      18.27,    16.52,    18.03,    17.37,    21.15
      235.0,      18.22,    16.48,    17.98,    17.33,    21.11
      236.0,      18.18,    16.45,    17.93,    17.28,    21.06
      237.0,      18.14,    16.41,    17.88,    17.24,    21.02
      238.0,      18.09,    16.38,    17.83,    17.20,    20.97
      239.0,      18.05,    16.34,    17.78,    17.15,    20.93
      240.0,      18.01,    16.31,    17.73,    17.11,    20.88
      241.0,      17.96,    16.27,    17.68,    17.07,    20.84
      242.0,      17.92,    16.24,    17.63,    17.03,    20.79
      243.0,      17.88,    16.20,    17.59,    16.98,    20.75
      244.0,      17.84,    16.17,    17.54,    16.94,    20.70
      245.0,      17.80,    16.13,    17.49,    16.90,    20.66
      246.0,      17.76,    16.10,    17.45,    16.86,    20.62
      247.0,      17.71,    16.07,    17.40,    16.82,    20.57
      248.0,      17.67,    16.03,    17.35,    16.78,    20.53
      249.0,      17.63,    16.00,    17.31,    16.74,    20.48
      250.0,      17.59,    15.96,    17.26,    16.70,    20.44
      251.0,      17.55,    15.93,    17.22,    16.66,    20.40
      252.0,      17.51,    15.90,    17.17,    16.62,    20.35
      253.0,      17.47,    15.86,    17.13,    16.58,    20.31
      254.0,      17.43,    15.83,    17.09,    16.54,    20.27
      255.0,      17.39,    15.80,    17.04,    16.50,    20.22
      256.0,      17.35,    15.77,    17.00,    16.47,    20.18
      257.0,      17.31,    15.73,    16.96,    16.43,    20.14
      258.0,      17.28,    15.70,    16.91,    16.39,    20.10
      259.0,      17.24,    15.67,    16.87,    16.35,    20.05
      260.0,      17.20,    15.64,    16.83,    16.32,    20.01
      261.0,      17.16,    15.61,    16.79,    16.28,    19.97
      262.0,      17.12,    15.57,    16.75,    16.24,    19.92
      263.0,      17.08,    15.54,    16.70,    16.21,    19.88
      264.0,      17.05,    15.51,    16.66,    16.17,    19.84
      265.0,      17.01,    15.48,    16.62,    16.13,    19.80
      266.0,      16.97,    15.45,    16.58,    16.10,    19.76
      267.0,      16.93,    15.42,    16.54,    16.06,    19.71
      268.0,      16.90,    15.39,    16.50,    16.03,    19.67
      269.0,      16.86,    15.36,    16.46,    15.99,    19.63
      270.0,      16.82,    15.32,    16.42,    15.96,    19.59
      271.0,      16.79,    15.29,    16.38,    15.92,    19.55
      272.0,      16.75,    15.26,    16.34,    15.89,    19.50
      273.0,      16.71,    15.23,    16.31,    15.86,    19.46
      274.0,      16.68,    15.20,    16.27,    15.82,    19.42
      275.0,      16.64,    15.17,    16.23,    15.79,    19.38
      276.0,      16.61,    15.14,    16.19,    15.75,    19.34
      277.0,      16.57,    15.11,    16.15,    15.72,    19.30
      278.0,      16.54,    15.08,    16.12,    15.69,    19.26
      279.0,      16.50,    15.05,    16.08,    15.66,    19.22
      280.0,      16.47,    15.02,    16.04,    15.62,    19.17
      281.0,      16.43,    14.99,    16.01,    15.59,    19.13
      282.0,      16.40,    14.97,    15.97,    15.56,    19.09
      283.0,      16.36,    14.94,    15.93,    15.53,    19.05
      284.0,      16.33,    14.91,    15.90,    15.49,    19.01
      285.0,      16.29,    14.88,    15.86,    15.46,    18.97
      286.0,      16.26,    14.85,    15.83,    15.43,    18.93
      287.0,      16.23,    14.82,    15.79,    15.40,    18.89
      288.0,      16.19,    14.79,    15.76,    15.37,    18.85
      289.0,      16.16,    14.76,    15.72,    15.34,    18.81
      290.0,      16.12,    14.73,    15.69,    15.31,    18.77
      291.0,      16.09,    14.71,    15.65,    15.28,    18.73
      292.0,      16.06,    14.68,    15.62,    15.25,    18.69
      293.0,      16.03,    14.65,    15.58,    15.22,    18.65
      294.0,      15.99,    14.62,    15.55,    15.19,    18.61
      295.0,      15.96,    14.59,    15.52,    15.16,    18.57
      296.0,      15.93,    14.57,    15.48,    15.13,    18.53
      297.0,      15.89,    14.54,    15.45,    15.10,    18.49
      298.0,      15.86,    14.51,    15.42,    15.07,    18.45
      299.0,      15.83,    14.48,    15.38,    15.04,    18.41
      300.0,      15.80,    14.46,    15.35,    15.01,    18.37
      301.0,      15.77,    14.43,    15.32,    14.98,    18.34
      302.0,      15.73,    14.40,    15.29,    14.95,    18.30
      303.0,      15.70,    14.37,    15.25,    14.93,    18.26
      304.0,      15.67,    14.35,    15.22,    14.90,    18.22
      305.0,      15.64,    14.32,    15.19,    14.87,    18.18
      306.0,      15.61,    14.29,    15.16,    14.84,    18.14
      307.0,      15.58,    14.26,    15.13,    14.81,    18.10
      308.0,      15.55,    14.24,    15.10,    14.79,    18.06
      309.0,      15.52,    14.21,    15.07,    14.76,    18.03
      310.0,      15.48,    14.18,    15.03,    14.73,    17.99
