Radius (km), Mean (m/s), NE (m/s), SE (m/s), SW (m/s), NW (m/s)
        0.0,       0.00,     0.00,     0.00,     0.00,     0.00
        1.0,       0.64,     0.70,     0.49,     0.70,     0.70
        2.0,       1.19,     1.27,     0.96,     1.27,     1.27
        3.0,       1.71,     1.80,     1.43,     1.80,     1.80
        4.0,       2.21,     2.32,     1.89,     2.32,     2.32
        5.0,       2.70,     2.81,     2.35,     2.81,     2.81
        6.0,       3.17,     3.29,     2.82,     3.29,     3.29
        7.0,       3.64,     3.76,     3.27,     3.76,     3.76
        8.0,       4.10,     4.23,     3.73,     4.23,     4.23
        9.0,       4.56,     4.68,     4.19,     4.68,     4.68
       10.0,       5.01,     5.13,     4.65,     5.13,     5.13
       11.0,       5.45,     5.57,     5.10,     5.57,     5.57
       12.0,       5.90,     6.01,     5.56,     6.01,     6.01
       13.0,       6.33,     6.44,     6.01,     6.44,     6.44
       14.0,       6.77,     6.87,     6.46,     6.87,     6.87
       15.0,       7.20,     7.29,     6.92,     7.29,     7.29
       16.0,       7.63,     7.71,     7.37,     7.71,     7.71
       17.0,       8.05,     8.13,     7.82,     8.13,     8.13
       18.0,       8.47,     8.54,     8.27,     8.54,     8.54
       19.0,       8.89,     8.95,     8.72,     8.95,     8.95
       20.0,       9.31,     9.36,     9.17,     9.36,     9.36
       21.0,       9.73,     9.76,     9.62,     9.76,     9.76
       22.0,      10.14,    10.17,    10.07,    10.17,    10.17
       23.0,      10.55,    10.57,    10.52,    10.57,    10.57
       24.0,      10.96,    10.96,    10.97,    10.96,    10.96
       25.0,      11.37,    11.36,    11.41,    11.36,    11.36
       26.0,      11.78,    11.75,    11.86,    11.75,    11.75
       27.0,      12.19,    12.14,    12.31,    12.14,    12.14
       28.0,      12.59,    12.53,    12.76,    12.53,    12.53
       29.0,      12.99,    12.92,    13.20,    12.92,    12.92
       30.0,      13.39,    13.31,    13.65,    13.31,    13.31
       31.0,      13.79,    13.69,    14.10,    13.69,    13.69
       32.0,      14.19,    14.07,    14.54,    14.07,    14.07
       33.0,      14.59,    14.45,    14.99,    14.45,    14.45
       34.0,      14.98,    14.83,    15.43,    14.83,    14.83
       35.0,      15.38,    15.21,    15.88,    15.21,    15.21
       36.0,      15.77,    15.59,    16.32,    15.59,    15.59
       37.0,      16.16,    15.96,    16.77,    15.96,    15.96
       38.0,      16.55,    16.34,    17.21,    16.34,    16.34
       39.0,      16.94,    16.71,    17.66,    16.71,    16.71
       40.0,      17.33,    17.08,    18.10,    17.08,    17.08
       41.0,      17.72,    17.45,    18.54,    17.45,    17.45
       42.0,      18.11,    17.82,    18.99,    17.82,    17.82
       43.0,      18.50,    18.19,    19.43,    18.19,    18.19
       44.0,      18.88,    18.55,    19.87,    18.55,    18.55
       45.0,      19.27,    18.92,    20.32,    18.92,    18.92
       46.0,      19.65,    19.28,    20.76,    19.28,    19.28
       47.0,      20.03,    19.64,    21.20,    19.64,    19.64
       48.0,      20.42,    20.01,    21.64,    20.01,    20.01
       49.0,      20.80,    20.37,    22.09,    20.37,    20.37
       50.0,      21.18,    20.73,    22.53,    20.73,    20.73
       51.0,      21.56,    21.09,    22.97,    21.09,    21.09
       52.0,      21.94,    21.45,    23.41,    21.45,    21.45
       53.0,      22.32,    21.80,    23.85,    21.80,    21.80
       54.0,      22.69,    22.16,    24.29,    22.16,    22.16
       55.0,      23.07,    22.51,    24.74,    22.51,    22.51
       56.0,      23.45,    22.87,    25.18,    22.87,    22.87
       57.0,      23.82,    23.22,    25.62,    23.22,    23.22
       58.0,      24.20,    23.58,    26.06,    23.58,    23.58
       59.0,      24.57,    23.93,    26.50,    23.93,    23.93
       60.0,      24.94,    24.28,    26.94,    24.28,    24.28
       61.0,      25.32,    24.63,    27.38,    24.63,    24.63
       62.0,      25.69,    24.98,    27.82,    24.98,    24.98
       63.0,      26.06,    25.33,    28.26,    25.33,    25.33
       64.0,      26.43,    25.68,    28.70,    25.68,    25.68
       65.0,      26.80,    26.03,    29.14,    26.03,    26.03
       66.0,      27.17,    26.37,    29.58,    26.37,    26.37
       67.0,      27.54,    26.72,    30.02,    26.72,    26.72
       68.0,      27.91,    27.07,    30.46,    27.07,    27.07
       69.0,      28.28,    27.41,    30.90,    27.41,    27.41
       70.0,      28.65,    27.75,    31.34,    27.75,    27.75
       71.0,      29.02,    28.10,    31.78,    28.10,    28.10
       72.0,      29.38,    28.44,    32.21,    28.44,    28.44
       73.0,      29.75,    28.78,    32.65,    28.78,    28.78
       74.0,      30.12,    29.13,    33.09,    29.13,    29.13
       75.0,      30.48,    29.47,    33.53,    29.47,    29.47
       76.0,      30.85,    29.81,    33.97,    29.81,    29.81
       77.0,      31.21,    30.15,    34.41,    30.15,    30.15
       78.0,      31.58,    30.49,    34.85,    30.49,    30.49
       79.0,      31.94,    30.83,    35.28,    30.83,    30.83
       80.0,      32.30,    31.16,    35.72,    31.16,    31.16
       81.0,      32.67,    31.50,    36.16,    31.50,    31.50
       82.0,      33.03,    31.84,    36.60,    31.84,    31.84
       83.0,      33.39,    32.18,    37.04,    32.18,    32.18
       84.0,      33.75,    32.51,    37.47,    32.51,    32.51
       85.0,      34.11,    32.85,    37.91,    32.85,    32.85
       86.0,      34.47,    33.18,    38.35,    33.18,    33.18
       87.0,      34.83,    33.52,    38.78,    33.52,    33.52
       88.0,      35.19,    33.85,    39.22,    33.85,    33.85
       89.0,      35.55,    34.18,    39.66,    34.18,    34.18
       90.0,      35.91,    34.52,    40.10,    34.52,    34.52
       91.0,      36.27,    34.85,    40.53,    34.85,    34.85
       92.0,      36.63,    35.18,    40.97,    35.18,    35.18
       93.0,      36.99,    35.51,    41.41,    35.51,    35.51
       94.0,      37.34,    35.84,    41.84,    35.84,    35.84
       95.0,      37.70,    36.18,    42.28,    36.18,    36.18
       96.0,      38.06,    36.51,    42.72,    36.51,    36.51
       97.0,      38.42,    36.84,    43.15,    36.84,    36.84
       98.0,      38.79,    37.20,    43.60,    37.17,    37.20
       99.0,      39.20,    37.61,    44.07,    37.54,    37.60
      100.0,      39.68,    38.09,    44.60,    37.98,    38.04
      101.0,      40.23,    38.67,    45.20,    38.50,    38.54
      102.0,      40.85,    39.32,    45.89,    39.12,    39.09
      103.0,      41.54,    40.01,    46.65,    39.82,    39.65
      104.0,      42.23,    40.71,    47.44,    40.55,    40.21
      105.0,      42.88,    41.34,    48.21,    41.25,    40.72
      106.0,      43.43,    41.85,    48.89,    41.84,    41.15
      107.0,      43.84,    42.19,    49.42,    42.26,    41.46
      108.0,      44.05,    42.33,    49.75,    42.46,    41.65
      109.0,      44.05,    42.25,    49.85,    42.40,    41.71
      110.0,      43.85,    41.97,    49.72,    42.08,    41.64
      111.0,      43.47,    41.51,    49.36,    41.53,    41.47
      112.0,      42.94,    40.92,    48.83,    40.78,    41.22
      113.0,      42.32,    40.26,    48.17,    39.91,    40.93
      114.0,      41.64,    39.56,    47.43,    38.97,    40.61
      115.0,      40.96,    38.87,    46.68,    38.01,    40.29
      116.0,      40.31,    38.21,    45.94,    37.09,    39.98
      117.0,      39.68,    37.59,    45.24,    36.22,    39.69
      118.0,      39.10,    37.01,    44.58,    35.40,    39.41
      119.0,      38.55,    36.45,    43.96,    34.63,    39.14
      120.0,      38.02,    35.92,    43.37,    33.90,    38.88
      121.0,      37.51,    35.41,    42.79,    33.20,    38.62
      122.0,      37.01,    34.92,    42.24,    32.53,    38.37
      123.0,      36.53,    34.44,    41.70,    31.88,    38.12
      124.0,      36.07,    33.99,    41.17,    31.25,    37.88
      125.0,      35.62,    33.55,    40.67,    30.65,    37.64
      126.0,      35.19,    33.12,    40.17,    30.06,    37.41
      127.0,      34.78,    32.71,    39.70,    29.51,    37.18
      128.0,      34.37,    32.32,    39.23,    28.97,    36.96
      129.0,      33.98,    31.94,    38.78,    28.45,    36.75
      130.0,      33.60,    31.58,    38.35,    27.95,    36.54
      131.0,      33.24,    31.23,    37.92,    27.47,    36.33
      132.0,      32.88,    30.89,    37.51,    27.00,    36.13
      133.0,      32.54,    30.57,    37.11,    26.55,    35.93
      134.0,      32.21,    30.25,    36.72,    26.12,    35.73
      135.0,      31.89,    29.95,    36.34,    25.71,    35.54
      136.0,      31.58,    29.66,    35.98,    25.31,    35.36
      137.0,      31.28,    29.38,    35.62,    24.92,    35.18
      138.0,      30.98,    29.11,    35.28,    24.55,    35.00
      139.0,      30.70,    28.85,    34.94,    24.20,    34.82
      140.0,      30.43,    28.60,    34.62,    23.85,    34.65
      141.0,      30.16,    28.35,    34.30,    23.52,    34.49
      142.0,      29.91,    28.12,    33.99,    23.20,    34.32
      143.0,      29.66,    27.89,    33.69,    22.89,    34.16
      144.0,      29.42,    27.68,    33.40,    22.59,    34.00
      145.0,      29.19,    27.47,    33.12,    22.31,    33.85
      146.0,      28.96,    27.26,    32.84,    22.03,    33.70
      147.0,      28.74,    27.07,    32.58,    21.76,    33.55
      148.0,      28.53,    26.88,    32.32,    21.51,    33.41
      149.0,      28.32,    26.70,    32.06,    21.26,    33.27
      150.0,      28.12,    26.52,    31.82,    21.02,    33.13
      151.0,      27.93,    26.35,    31.58,    20.79,    32.99
      152.0,      27.74,    26.19,    31.35,    20.56,    32.86
      153.0,      27.56,    26.03,    31.12,    20.35,    32.73
      154.0,      27.38,    25.87,    30.90,    20.14,    32.60
      155.0,      27.21,    25.73,    30.68,    19.94,    32.47
      156.0,      27.04,    25.58,    30.47,    19.75,    32.35
      157.0,      26.88,    25.44,    30.27,    19.56,    32.23
      158.0,      26.72,    25.31,    30.07,    19.39,    32.11
      159.0,      26.57,    25.18,    29.88,    19.21,    31.99
      160.0,      26.42,    25.06,    29.69,    19.04,    31.88
      161.0,      26.27,    24.94,    29.51,    18.88,    31.77
      162.0,      26.13,    24.82,    29.33,    18.73,    31.66
      163.0,      26.00,    24.70,    29.16,    18.58,    31.55
      164.0,      25.86,    24.59,    28.99,    18.43,    31.45
      165.0,      25.73,    24.49,    28.82,    18.29,    31.34
      166.0,      25.61,    24.38,    28.66,    18.15,    31.24
      167.0,      25.49,    24.28,    28.50,    18.02,    31.14
      168.0,      25.37,    24.19,    28.35,    17.90,    31.04
      169.0,      25.25,    24.09,    28.20,    17.77,    30.94
      170.0,      25.14,    24.00,    28.05,    17.66,    30.85
      171.0,      25.03,    23.91,    27.91,    17.54,    30.76
      172.0,      24.92,    23.83,    27.77,    17.43,    30.67
      173.0,      24.82,    23.75,    27.63,    17.32,    30.58
      174.0,      24.72,    23.66,    27.50,    17.22,    30.49
      175.0,      24.62,    23.59,    27.37,    17.12,    30.40
      176.0,      24.52,    23.51,    27.24,    17.02,    30.32
      177.0,      24.43,    23.44,    27.12,    16.93,    30.23
      178.0,      24.34,    23.36,    27.00,    16.84,    30.15
      179.0,      24.25,    23.29,    26.88,    16.75,    30.07
      180.0,      24.16,    23.22,    26.76,    16.66,    29.99
      181.0,      24.07,    23.16,    26.65,    16.58,    29.91
      182.0,      23.99,    23.09,    26.54,    16.50,    29.83
      183.0,      23.91,    23.03,    26.43,    16.42,    29.76
      184.0,      23.83,    22.97,    26.32,    16.35,    29.68
      185.0,      23.75,    22.91,    26.22,    16.28,    29.61
      186.0,      23.68,    22.85,    26.11,    16.21,    29.54
      187.0,      23.60,    22.79,    26.01,    16.14,    29.47
      188.0,      23.53,    22.74,    25.92,    16.07,    29.40
      189.0,      23.46,    22.69,    25.82,    16.01,    29.33
      190.0,      23.39,    22.63,    25.73,    15.94,    29.26
      191.0,      23.32,    22.58,    25.63,    15.88,    29.19
      192.0,      23.26,    22.53,    25.54,    15.82,    29.13
      193.0,      23.19,    22.48,    25.45,    15.77,    29.06
      194.0,      23.13,    22.43,    25.37,    15.71,    29.00
      195.0,      23.07,    22.39,    25.28,    15.66,    28.94
      196.0,      23.00,    22.34,    25.20,    15.61,    28.87
      197.0,      22.94,    22.29,    25.11,    15.55,    28.81
      198.0,      22.89,    22.25,    25.03,    15.50,    28.75
      199.0,      22.83,    22.21,    24.95,    15.46,    28.69
      200.0,      22.77,    22.16,    24.88,    15.41,    28.63
      201.0,      22.72,    22.12,    24.80,    15.36,    28.58
      202.0,      22.66,    22.08,    24.72,    15.32,    28.52
      203.0,      22.61,    22.04,    24.65,    15.28,    28.46
      204.0,      22.55,    22.00,    24.58,    15.23,    28.41
      205.0,      22.50,    21.96,    24.50,    15.19,    28.35
      206.0,      22.45,    21.93,    24.43,    15.15,    28.30
      207.0,      22.40,    21.89,    24.36,    15.11,    28.25
      208.0,      22.35,    21.85,    24.29,    15.07,    28.19
      209.0,      22.31,    21.82,    24.23,    15.04,    28.14
      210.0,      22.26,    21.78,    24.16,    15.00,    28.09
      211.0,      22.21,    21.75,    24.09,    14.96,    28.04
      212.0,      22.17,    21.71,    24.03,    14.93,    27.99
      213.0,      22.12,    21.68,    23.97,    14.90,    27.94
      214.0,      22.08,    21.65,    23.90,    14.86,    27.89
      215.0,      22.03,    21.61,    23.84,    14.83,    27.84
      216.0,      21.99,    21.58,    23.78,    14.80,    27.79
      217.0,      21.95,    21.55,    23.72,    14.77,    27.75
      218.0,      21.90,    21.52,    23.66,    14.74,    27.70
      219.0,      21.86,    21.49,    23.60,    14.71,    27.65
      220.0,      21.82,    21.46,    23.54,    14.68,    27.61
      221.0,      21.78,    21.43,    23.49,    14.65,    27.56
      222.0,      21.74,    21.40,    23.43,    14.62,    27.52
      223.0,      21.70,    21.37,    23.37,    14.59,    27.47
      224.0,      21.66,    21.34,    23.32,    14.56,    27.43
      225.0,      21.62,    21.31,    23.26,    14.54,    27.39
      226.0,      21.59,    21.28,    23.21,    14.51,    27.34
      227.0,      21.55,    21.25,    23.16,    14.49,    27.30
      228.0,      21.51,    21.22,    23.10,    14.46,    27.26
      229.0,      21.48,    21.20,    23.05,    14.44,    27.22
      230.0,      21.44,    21.17,    23.00,    14.41,    27.18
      231.0,      21.40,    21.14,    22.95,    14.39,    27.13
      232.0,      21.37,    21.12,    22.90,    14.36,    27.09
      233.0,      21.33,    21.09,    22.85,    14.34,    27.05
      234.0,      21.30,    21.06,    22.80,    14.32,    27.01
      235.0,      21.26,    21.04,    22.75,    14.30,    26.97
      236.0,      21.23,    21.01,    22.70,    14.27,    26.94
      237.0,      21.20,    20.99,    22.65,    14.25,    26.90
      238.0,      21.16,    20.96,    22.60,    14.23,    26.86
      239.0,      21.13,    20.94,    22.56,    14.21,    26.82
      240.0,      21.10,    20.91,    22.51,    14.19,    26.78
      241.0,      21.07,    20.89,    22.46,    14.17,    26.75
      242.0,      21.03,    20.86,    22.42,    14.15,    26.71
      243.0,      21.00,    20.84,    22.37,    14.13,    26.67
      244.0,      20.97,    20.81,    22.33,    14.11,    26.64
      245.0,      20.94,    20.79,    22.28,    14.09,    26.60
      246.0,      20.91,    20.76,    22.24,    14.07,    26.56
      247.0,      20.88,    20.74,    22.19,    14.05,    26.53
      248.0,      20.85,    20.72,    22.15,    14.03,    26.49
      249.0,      20.82,    20.69,    22.10,    14.01,    26.46
      250.0,      20.79,    20.67,    22.06,    13.99,    26.42
      251.0,      20.76,    20.65,    22.02,    13.97,    26.39
      252.0,      20.73,    20.62,    21.97,    13.96,    26.35
      253.0,      20.70,    20.60,    21.93,    13.94,    26.32
      254.0,      20.67,    20.58,    21.89,    13.92,    26.28
      255.0,      20.64,    20.55,    21.85,    13.90,    26.25
      256.0,      20.61,    20.53,    21.80,    13.88,    26.22
      257.0,      20.58,    20.51,    21.76,    13.87,    26.18
      258.0,      20.55,    20.49,    21.72,    13.85,    26.15
      259.0,      20.52,    20.46,    21.68,    13.83,    26.12
      260.0,      20.50,    20.44,    21.64,    13.82,    26.09
      261.0,      20.47,    20.42,    21.60,    13.80,    26.05
      262.0,      20.44,    20.40,    21.56,    13.78,    26.02
      263.0,      20.41,    20.38,    21.52,    13.77,    25.99
      264.0,      20.38,    20.35,    21.48,    13.75,    25.96
      265.0,      20.36,    20.33,    21.44,    13.73,    25.92
      266.0,      20.33,    20.31,    21.40,    13.72,    25.89
      267.0,      20.30,    20.29,    21.36,    13.70,    25.86
      268.0,      20.28,    20.27,    21.32,    13.68,    25.83
      269.0,      20.25,    20.25,    21.28,    13.67,    25.80
      270.0,      20.22,    20.22,    21.24,    13.65,    25.77
      271.0,      20.20,    20.20,    21.21,    13.64,    25.74
      272.0,      20.17,    20.18,    21.17,    13.62,    25.71
      273.0,      20.14,    20.16,    21.13,    13.61,    25.68
      274.0,      20.12,    20.14,    21.09,    13.59,    25.65
      275.0,      20.09,    20.12,    21.05,    13.58,    25.62
      276.0,      20.06,    20.10,    21.02,    13.56,    25.59
      277.0,      20.04,    20.08,    20.98,    13.55,    25.56
      278.0,      20.01,    20.05,    20.94,    13.53,    25.53
      279.0,      19.99,    20.03,    20.91,    13.52,    25.50
      280.0,      19.96,    20.01,    20.87,    13.50,    25.47
      281.0,      19.94,    19.99,    20.83,    13.49,    25.44
      282.0,      19.91,    19.97,    20.79,    13.47,    25.41
      283.0,      19.89,    19.95,    20.76,    13.46,    25.38
      284.0,      19.86,    19.93,    20.72,    13.44,    25.35
      285.0,      19.84,    19.91,    20.69,    13.43,    25.32
      286.0,      19.81,    19.89,    20.65,    13.41,    25.29
      287.0,      19.79,    19.87,    20.61,    13.40,    25.26
      288.0,      19.76,    19.85,    20.58,    13.38,    25.24
      289.0,      19.74,    19.83,    20.54,    13.37,    25.21
      290.0,      19.71,    19.81,    20.51,    13.35,    25.18
      291.0,      19.69,    19.79,    20.47,    13.34,    25.15
      292.0,      19.66,    19.77,    20.44,    13.33,    25.12
      293.0,      19.64,    19.75,    20.40,    13.31,    25.09
      294.0,      19.61,    19.73,    20.36,    13.30,    25.07
      295.0,      19.59,    19.71,    20.33,    13.28,    25.04
      296.0,      19.57,    19.69,    20.29,    13.27,    25.01
      297.0,      19.54,    19.67,    20.26,    13.26,    24.98
      298.0,      19.52,    19.65,    20.23,    13.24,    24.96
      299.0,      19.49,    19.63,    20.19,    13.23,    24.93
      300.0,      19.47,    19.61,    20.16,    13.21,    24.90
      301.0,      19.45,    19.59,    20.12,    13.20,    24.87
      302.0,      19.42,    19.57,    20.09,    13.19,    24.85
      303.0,      19.40,    19.55,    20.05,    13.17,    24.82
      304.0,      19.37,    19.53,    20.02,    13.16,    24.79
      305.0,      19.35,    19.51,    19.99,    13.14,    24.77
      306.0,      19.33,    19.49,    19.95,    13.13,    24.74
      307.0,      19.30,    19.47,    19.92,    13.12,    24.71
      308.0,      19.28,    19.45,    19.88,    13.10,    24.69
      309.0,      19.26,    19.43,    19.85,    13.09,    24.66
      310.0,      19.23,    19.41,    19.82,    13.08,    24.63
