Radius (km), Mean (m/s), NE (m/s), SE (m/s), SW (m/s), NW (m/s)
        0.0,       0.00,     0.00,     0.00,     0.00,     0.00
        1.0,       2.15,     2.02,     2.26,     2.28,     2.05
        2.0,       3.58,     3.47,     3.67,     3.68,     3.49
        3.0,       4.81,     4.76,     4.86,     4.86,     4.77
        4.0,       5.95,     5.95,     5.94,     5.93,     5.96
        5.0,       7.00,     7.09,     6.94,     6.91,     7.08
        6.0,       8.01,     8.17,     7.87,     7.84,     8.15
        7.0,       8.97,     9.21,     8.77,     8.72,     9.18
        8.0,       9.89,    10.22,     9.62,     9.56,    10.18
        9.0,      10.79,    11.20,    10.44,    10.37,    11.14
       10.0,      11.66,    12.16,    11.24,    11.15,    12.09
       11.0,      12.51,    13.10,    12.01,    11.91,    13.01
       12.0,      13.33,    14.02,    12.76,    12.64,    13.91
       13.0,      14.14,    14.92,    13.49,    13.36,    14.80
       14.0,      14.94,    15.81,    14.20,    14.06,    15.67
       15.0,      15.71,    16.68,    14.90,    14.75,    16.53
       16.0,      16.48,    17.54,    15.58,    15.42,    17.37
       17.0,      17.23,    18.39,    16.26,    16.08,    18.20
       18.0,      17.97,    19.23,    16.92,    16.72,    19.03
       19.0,      18.70,    20.06,    17.56,    17.36,    19.84
       20.0,      19.42,    20.88,    18.20,    17.98,    20.64
       21.0,      20.14,    21.68,    18.83,    18.60,    21.43
       22.0,      20.85,    22.49,    19.45,    19.21,    22.23
       23.0,      21.57,    23.32,    20.08,    19.82,    23.07
       24.0,      22.35,    24.20,    20.74,    20.46,    23.98
       25.0,      23.19,    25.17,    21.45,    21.15,    25.00
       26.0,      24.12,    26.24,    22.22,    21.90,    26.12
       27.0,      25.13,    27.40,    23.06,    22.72,    27.34
       28.0,      26.19,    28.62,    23.93,    23.59,    28.61
       29.0,      27.25,    29.85,    24.82,    24.48,    29.87
       30.0,      28.26,    31.02,    25.67,    25.34,    31.04
       31.0,      29.17,    32.07,    26.44,    26.11,    32.05
       32.0,      29.91,    32.92,    27.09,    26.77,    32.84
       33.0,      30.45,    33.55,    27.58,    27.26,    33.39
       34.0,      30.77,    33.94,    27.91,    27.58,    33.68
       35.0,      30.89,    34.08,    28.06,    27.71,    33.71
       36.0,      30.82,    34.00,    28.07,    27.68,    33.54
       37.0,      30.61,    33.76,    27.96,    27.51,    33.21
       38.0,      30.30,    33.40,    27.76,    27.25,    32.78
       39.0,      29.93,    32.98,    27.51,    26.94,    32.30
       40.0,      29.55,    32.54,    27.24,    26.60,    31.81
       41.0,      29.17,    32.11,    26.98,    26.26,    31.34
       42.0,      28.82,    31.70,    26.73,    25.94,    30.89
       43.0,      28.48,    31.32,    26.49,    25.65,    30.47
       44.0,      28.17,    30.96,    26.27,    25.37,    30.06
       45.0,      27.86,    30.62,    26.06,    25.10,    29.67
       46.0,      27.57,    30.28,    25.85,    24.84,    29.30
       47.0,      27.28,    29.96,    25.66,    24.59,    28.93
       48.0,      27.01,    29.64,    25.46,    24.35,    28.58
       49.0,      26.74,    29.34,    25.27,    24.11,    28.24
       50.0,      26.49,    29.05,    25.09,    23.88,    27.92
       51.0,      26.24,    28.77,    24.91,    23.66,    27.60
       52.0,      26.00,    28.49,    24.74,    23.45,    27.30
       53.0,      25.76,    28.23,    24.58,    23.25,    27.00
       54.0,      25.54,    27.97,    24.41,    23.05,    26.72
       55.0,      25.32,    27.73,    24.26,    22.85,    26.44
       56.0,      25.11,    27.49,    24.10,    22.67,    26.18
       57.0,      24.90,    27.26,    23.95,    22.48,    25.92
       58.0,      24.71,    27.03,    23.81,    22.31,    25.67
       59.0,      24.51,    26.82,    23.67,    22.14,    25.43
       60.0,      24.33,    26.61,    23.53,    21.97,    25.20
       61.0,      24.15,    26.40,    23.40,    21.81,    24.98
       62.0,      23.97,    26.20,    23.26,    21.65,    24.76
       63.0,      23.80,    26.01,    23.14,    21.50,    24.55
       64.0,      23.64,    25.83,    23.01,    21.35,    24.35
       65.0,      23.48,    25.65,    22.89,    21.21,    24.15
       66.0,      23.32,    25.47,    22.77,    21.07,    23.96
       67.0,      23.17,    25.30,    22.66,    20.94,    23.78
       68.0,      23.02,    25.14,    22.55,    20.80,    23.60
       69.0,      22.88,    24.98,    22.44,    20.68,    23.43
       70.0,      22.74,    24.82,    22.33,    20.55,    23.26
       71.0,      22.61,    24.67,    22.23,    20.43,    23.10
       72.0,      22.48,    24.53,    22.12,    20.31,    22.95
       73.0,      22.35,    24.38,    22.02,    20.20,    22.79
       74.0,      22.23,    24.25,    21.93,    20.09,    22.65
       75.0,      22.11,    24.11,    21.83,    19.98,    22.51
       76.0,      21.99,    23.98,    21.74,    19.87,    22.37
       77.0,      21.87,    23.85,    21.64,    19.77,    22.23
       78.0,      21.76,    23.73,    21.55,    19.66,    22.10
       79.0,      21.65,    23.61,    21.47,    19.57,    21.98
       80.0,      21.55,    23.49,    21.38,    19.47,    21.86
       81.0,      21.45,    23.37,    21.29,    19.37,    21.74
       82.0,      21.34,    23.26,    21.21,    19.28,    21.62
       83.0,      21.25,    23.15,    21.13,    19.19,    21.51
       84.0,      21.15,    23.05,    21.05,    19.10,    21.40
       85.0,      21.06,    22.94,    20.97,    19.02,    21.30
       86.0,      20.97,    22.84,    20.89,    18.93,    21.19
       87.0,      20.88,    22.74,    20.82,    18.85,    21.09
       88.0,      20.79,    22.64,    20.74,    18.77,    21.00
       89.0,      20.70,    22.55,    20.67,    18.69,    20.90
       90.0,      20.62,    22.46,    20.60,    18.61,    20.81
       91.0,      20.54,    22.37,    20.53,    18.54,    20.72
       92.0,      20.46,    22.28,    20.46,    18.46,    20.64
       93.0,      20.38,    22.19,    20.39,    18.39,    20.55
       94.0,      20.30,    22.11,    20.32,    18.32,    20.47
       95.0,      20.23,    22.02,    20.25,    18.25,    20.39
       96.0,      20.15,    21.94,    20.19,    18.18,    20.31
       97.0,      20.08,    21.86,    20.12,    18.11,    20.23
       98.0,      20.01,    21.78,    20.06,    18.04,    20.16
       99.0,      19.94,    21.71,    19.99,    17.98,    20.09
      100.0,      19.87,    21.63,    19.93,    17.91,    20.02
      101.0,      19.81,    21.56,    19.87,    17.85,    19.95
      102.0,      19.74,    21.48,    19.81,    17.79,    19.88
      103.0,      19.68,    21.41,    19.75,    17.73,    19.82
      104.0,      19.61,    21.34,    19.69,    17.66,    19.75
      105.0,      19.55,    21.27,    19.63,    17.61,    19.69
      106.0,      19.49,    21.20,    19.57,    17.55,    19.63
      107.0,      19.43,    21.14,    19.52,    17.49,    19.57
      108.0,      19.37,    21.07,    19.46,    17.43,    19.51
      109.0,      19.31,    21.01,    19.40,    17.38,    19.45
      110.0,      19.25,    20.94,    19.35,    17.32,    19.39
      111.0,      19.19,    20.88,    19.29,    17.27,    19.34
      112.0,      19.14,    20.82,    19.24,    17.21,    19.28
      113.0,      19.08,    20.76,    19.18,    17.16,    19.23
      114.0,      19.03,    20.70,    19.13,    17.10,    19.18
      115.0,      18.97,    20.64,    19.08,    17.05,    19.13
      116.0,      18.92,    20.58,    19.03,    17.00,    19.08
      117.0,      18.87,    20.52,    18.97,    16.95,    19.03
      118.0,      18.82,    20.47,    18.92,    16.90,    18.98
      119.0,      18.77,    20.41,    18.87,    16.85,    18.93
      120.0,      18.72,    20.35,    18.82,    16.80,    18.89
      121.0,      18.67,    20.30,    18.77,    16.75,    18.84
      122.0,      18.62,    20.25,    18.72,    16.70,    18.80
      123.0,      18.57,    20.19,    18.67,    16.66,    18.75
      124.0,      18.52,    20.14,    18.62,    16.61,    18.71
      125.0,      18.47,    20.09,    18.57,    16.56,    18.67
      126.0,      18.43,    20.03,    18.53,    16.52,    18.63
      127.0,      18.38,    19.98,    18.48,    16.47,    18.58
      128.0,      18.33,    19.93,    18.43,    16.43,    18.54
      129.0,      18.29,    19.88,    18.38,    16.38,    18.50
      130.0,      18.24,    19.83,    18.34,    16.34,    18.46
      131.0,      18.20,    19.78,    18.29,    16.29,    18.42
      132.0,      18.15,    19.73,    18.24,    16.25,    18.39
      133.0,      18.11,    19.69,    18.20,    16.20,    18.35
      134.0,      18.07,    19.64,    18.15,    16.16,    18.31
      135.0,      18.02,    19.59,    18.11,    16.12,    18.27
      136.0,      17.98,    19.54,    18.06,    16.08,    18.24
      137.0,      17.94,    19.50,    18.02,    16.03,    18.20
      138.0,      17.89,    19.45,    17.97,    15.99,    18.17
      139.0,      17.85,    19.40,    17.93,    15.95,    18.13
      140.0,      17.81,    19.36,    17.88,    15.91,    18.10
      141.0,      17.77,    19.31,    17.84,    15.87,    18.06
      142.0,      17.73,    19.27,    17.79,    15.83,    18.03
      143.0,      17.69,    19.22,    17.75,    15.79,    17.99
      144.0,      17.65,    19.18,    17.71,    15.75,    17.96
      145.0,      17.61,    19.14,    17.66,    15.71,    17.93
      146.0,      17.57,    19.09,    17.62,    15.67,    17.90
      147.0,      17.53,    19.05,    17.58,    15.63,    17.86
      148.0,      17.49,    19.01,    17.54,    15.59,    17.83
      149.0,      17.45,    18.96,    17.49,    15.55,    17.80
      150.0,      17.41,    18.92,    17.45,    15.51,    17.77
      151.0,      17.37,    18.88,    17.41,    15.47,    17.74
      152.0,      17.34,    18.83,    17.37,    15.43,    17.71
      153.0,      17.30,    18.79,    17.33,    15.39,    17.68
      154.0,      17.26,    18.75,    17.29,    15.36,    17.65
      155.0,      17.22,    18.71,    17.24,    15.32,    17.62
      156.0,      17.18,    18.67,    17.20,    15.28,    17.59
      157.0,      17.15,    18.63,    17.16,    15.24,    17.56
      158.0,      17.11,    18.59,    17.12,    15.20,    17.53
      159.0,      17.07,    18.55,    17.08,    15.17,    17.50
      160.0,      17.04,    18.51,    17.04,    15.13,    17.47
      161.0,      17.00,    18.47,    17.00,    15.09,    17.44
      162.0,      16.96,    18.43,    16.96,    15.06,    17.41
      163.0,      16.93,    18.39,    16.92,    15.02,    17.38
      164.0,      16.89,    18.35,    16.88,    14.98,    17.36
      165.0,      16.86,    18.31,    16.84,    14.95,    17.33
      166.0,      16.82,    18.27,    16.80,    14.91,    17.30
      167.0,      16.78,    18.23,    16.76,    14.88,    17.27
      168.0,      16.75,    18.19,    16.72,    14.84,    17.25
      169.0,      16.71,    18.15,    16.68,    14.81,    17.22
      170.0,      16.68,    18.11,    16.64,    14.77,    17.19
      171.0,      16.64,    18.07,    16.61,    14.73,    17.16
      172.0,      16.61,    18.03,    16.57,    14.70,    17.14
      173.0,      16.57,    18.00,    16.53,    14.66,    17.11
      174.0,      16.54,    17.96,    16.49,    14.63,    17.08
      175.0,      16.51,    17.92,    16.45,    14.59,    17.06
      176.0,      16.47,    17.88,    16.41,    14.56,    17.03
      177.0,      16.44,    17.84,    16.37,    14.53,    17.00
      178.0,      16.40,    17.81,    16.34,    14.49,    16.98
      179.0,      16.37,    17.77,    16.30,    14.46,    16.95
      180.0,      16.34,    17.73,    16.26,    14.42,    16.93
      181.0,      16.30,    17.70,    16.22,    14.39,    16.90
      182.0,      16.27,    17.66,    16.19,    14.35,    16.88
      183.0,      16.23,    17.62,    16.15,    14.32,    16.85
      184.0,      16.20,    17.58,    16.11,    14.29,    16.82
      185.0,      16.17,    17.55,    16.07,    14.25,    16.80
      186.0,      16.14,    17.51,    16.04,    14.22,    16.77
      187.0,      16.10,    17.48,    16.00,    14.19,    16.75
      188.0,      16.07,    17.44,    15.96,    14.15,    16.72
      189.0,      16.04,    17.40,    15.93,    14.12,    16.70
      190.0,      16.00,    17.37,    15.89,    14.09,    16.67
      191.0,      15.97,    17.33,    15.85,    14.05,    16.65
      192.0,      15.94,    17.29,    15.82,    14.02,    16.62
      193.0,      15.91,    17.26,    15.78,    13.99,    16.60
      194.0,      15.87,    17.22,    15.74,    13.96,    16.58
      195.0,      15.84,    17.19,    15.71,    13.92,    16.55
      196.0,      15.81,    17.15,    15.67,    13.89,    16.53
      197.0,      15.78,    17.12,    15.63,    13.86,    16.50
      198.0,      15.75,    17.08,    15.60,    13.83,    16.48
      199.0,      15.71,    17.05,    15.56,    13.79,    16.45
      200.0,      15.68,    17.01,    15.53,    13.76,    16.43
      201.0,      15.65,    16.98,    15.49,    13.73,    16.41
      202.0,      15.62,    16.94,    15.46,    13.70,    16.38
      203.0,      15.59,    16.91,    15.42,    13.67,    16.36
      204.0,      15.56,    16.87,    15.39,    13.63,    16.33
      205.0,      15.52,    16.84,    15.35,    13.60,    16.31
      206.0,      15.49,    16.80,    15.31,    13.57,    16.29
      207.0,      15.46,    16.77,    15.28,    13.54,    16.26
      208.0,      15.43,    16.73,    15.24,    13.51,    16.24
      209.0,      15.40,    16.70,    15.21,    13.48,    16.22
      210.0,      15.37,    16.66,    15.17,    13.44,    16.19
      211.0,      15.34,    16.63,    15.14,    13.41,    16.17
      212.0,      15.31,    16.60,    15.11,    13.38,    16.15
      213.0,      15.28,    16.56,    15.07,    13.35,    16.12
      214.0,      15.25,    16.53,    15.04,    13.32,    16.10
      215.0,      15.22,    16.50,    15.00,    13.29,    16.08
      216.0,      15.19,    16.46,    14.97,    13.26,    16.05
      217.0,      15.15,    16.43,    14.93,    13.23,    16.03
      218.0,      15.12,    16.39,    14.90,    13.20,    16.01
      219.0,      15.09,    16.36,    14.87,    13.17,    15.98
      220.0,      15.06,    16.33,    14.83,    13.14,    15.96
      221.0,      15.03,    16.29,    14.80,    13.11,    15.94
      222.0,      15.00,    16.26,    14.76,    13.08,    15.92
      223.0,      14.97,    16.23,    14.73,    13.05,    15.89
      224.0,      14.94,    16.19,    14.70,    13.02,    15.87
      225.0,      14.91,    16.16,    14.66,    12.99,    15.85
      226.0,      14.88,    16.13,    14.63,    12.96,    15.82
      227.0,      14.85,    16.10,    14.60,    12.93,    15.80
      228.0,      14.82,    16.06,    14.56,    12.90,    15.78
      229.0,      14.80,    16.03,    14.53,    12.87,    15.76
      230.0,      14.77,    16.00,    14.50,    12.84,    15.73
      231.0,      14.74,    15.96,    14.46,    12.81,    15.71
      232.0,      14.71,    15.93,    14.43,    12.78,    15.69
      233.0,      14.68,    15.90,    14.40,    12.75,    15.67
      234.0,      14.65,    15.87,    14.36,    12.72,    15.64
      235.0,      14.62,    15.84,    14.33,    12.69,    15.62
      236.0,      14.59,    15.80,    14.30,    12.66,    15.60
      237.0,      14.56,    15.77,    14.27,    12.63,    15.58
      238.0,      14.53,    15.74,    14.23,    12.60,    15.56
      239.0,      14.50,    15.71,    14.20,    12.57,    15.53
      240.0,      14.47,    15.67,    14.17,    12.54,    15.51
      241.0,      14.45,    15.64,    14.14,    12.51,    15.49
      242.0,      14.42,    15.61,    14.10,    12.48,    15.47
      243.0,      14.39,    15.58,    14.07,    12.46,    15.45
      244.0,      14.36,    15.55,    14.04,    12.43,    15.42
      245.0,      14.33,    15.52,    14.01,    12.40,    15.40
      246.0,      14.30,    15.48,    13.98,    12.37,    15.38
      247.0,      14.27,    15.45,    13.94,    12.34,    15.36
      248.0,      14.25,    15.42,    13.91,    12.31,    15.34
      249.0,      14.22,    15.39,    13.88,    12.28,    15.31
      250.0,      14.19,    15.36,    13.85,    12.26,    15.29
      251.0,      14.16,    15.33,    13.82,    12.23,    15.27
      252.0,      14.13,    15.30,    13.79,    12.20,    15.25
      253.0,      14.11,    15.27,    13.75,    12.17,    15.23
      254.0,      14.08,    15.24,    13.72,    12.14,    15.21
      255.0,      14.05,    15.20,    13.69,    12.12,    15.19
      256.0,      14.02,    15.17,    13.66,    12.09,    15.16
      257.0,      13.99,    15.14,    13.63,    12.06,    15.14
      258.0,      13.97,    15.11,    13.60,    12.03,    15.12
      259.0,      13.94,    15.08,    13.57,    12.00,    15.10
      260.0,      13.91,    15.05,    13.54,    11.98,    15.08
      261.0,      13.88,    15.02,    13.51,    11.95,    15.06
      262.0,      13.86,    14.99,    13.47,    11.92,    15.04
      263.0,      13.83,    14.96,    13.44,    11.89,    15.01
      264.0,      13.80,    14.93,    13.41,    11.87,    14.99
      265.0,      13.77,    14.90,    13.38,    11.84,    14.97
      266.0,      13.75,    14.87,    13.35,    11.81,    14.95
      267.0,      13.72,    14.84,    13.32,    11.79,    14.93
      268.0,      13.69,    14.81,    13.29,    11.76,    14.91
      269.0,      13.66,    14.78,    13.26,    11.73,    14.89
      270.0,      13.64,    14.75,    13.23,    11.70,    14.87
      271.0,      13.61,    14.72,    13.20,    11.68,    14.85
      272.0,      13.58,    14.69,    13.17,    11.65,    14.82
      273.0,      13.56,    14.66,    13.14,    11.62,    14.80
      274.0,      13.53,    14.63,    13.11,    11.60,    14.78
      275.0,      13.50,    14.60,    13.08,    11.57,    14.76
      276.0,      13.48,    14.57,    13.05,    11.54,    14.74
      277.0,      13.45,    14.54,    13.02,    11.52,    14.72
      278.0,      13.42,    14.51,    12.99,    11.49,    14.70
      279.0,      13.40,    14.48,    12.96,    11.46,    14.68
      280.0,      13.37,    14.45,    12.93,    11.44,    14.66
      281.0,      13.34,    14.42,    12.90,    11.41,    14.64
      282.0,      13.32,    14.39,    12.87,    11.39,    14.62
      283.0,      13.29,    14.36,    12.84,    11.36,    14.60
      284.0,      13.26,    14.33,    12.82,    11.33,    14.58
      285.0,      13.24,    14.31,    12.79,    11.31,    14.56
      286.0,      13.21,    14.28,    12.76,    11.28,    14.53
      287.0,      13.19,    14.25,    12.73,    11.25,    14.51
      288.0,      13.16,    14.22,    12.70,    11.23,    14.49
      289.0,      13.13,    14.19,    12.67,    11.20,    14.47
      290.0,      13.11,    14.16,    12.64,    11.18,    14.45
      291.0,      13.08,    14.13,    12.61,    11.15,    14.43
      292.0,      13.06,    14.10,    12.58,    11.13,    14.41
      293.0,      13.03,    14.08,    12.55,    11.10,    14.39
      294.0,      13.00,    14.05,    12.53,    11.07,    14.37
      295.0,      12.98,    14.02,    12.50,    11.05,    14.35
      296.0,      12.95,    13.99,    12.47,    11.02,    14.33
      297.0,      12.93,    13.96,    12.44,    11.00,    14.31
      298.0,      12.90,    13.93,    12.41,    10.97,    14.29
      299.0,      12.88,    13.91,    12.38,    10.95,    14.27
      300.0,      12.85,    13.88,    12.36,    10.92,    14.25
      301.0,      12.83,    13.85,    12.33,    10.90,    14.23
      302.0,      12.80,    13.82,    12.30,    10.87,    14.21
      303.0,      12.78,    13.79,    12.27,    10.85,    14.19
      304.0,      12.75,    13.76,    12.24,    10.82,    14.17
      305.0,      12.73,    13.74,    12.22,    10.80,    14.15
      306.0,      12.70,    13.71,    12.19,    10.77,    14.13
      307.0,      12.68,    13.68,    12.16,    10.75,    14.11
      308.0,      12.65,    13.65,    12.13,    10.72,    14.09
      309.0,      12.63,    13.63,    12.11,    10.70,    14.07
      310.0,      12.60,    13.60,    12.08,    10.67,    14.05
