Radius (km), Mean (m/s), NE (m/s), SE (m/s), SW (m/s), NW (m/s)
        0.0,       0.00,     0.00,     0.00,     0.00,     0.00
        1.0,       1.93,     1.70,     2.05,     2.11,     1.88
        2.0,       3.41,     3.15,     3.54,     3.60,     3.36
        3.0,       4.76,     4.52,     4.88,     4.92,     4.72
        4.0,       6.03,     5.85,     6.12,     6.14,     6.01
        5.0,       7.24,     7.13,     7.29,     7.29,     7.24
        6.0,       8.41,     8.39,     8.42,     8.39,     8.44
        7.0,       9.55,     9.63,     9.51,     9.45,     9.61
        8.0,      10.66,    10.85,    10.56,    10.48,    10.75
        9.0,      11.74,    12.05,    11.59,    11.47,    11.87
       10.0,      12.81,    13.23,    12.59,    12.44,    12.96
       11.0,      13.85,    14.41,    13.57,    13.39,    14.04
       12.0,      14.88,    15.57,    14.54,    14.32,    15.11
       13.0,      15.90,    16.72,    15.48,    15.23,    16.16
       14.0,      16.90,    17.86,    16.41,    16.12,    17.19
       15.0,      17.89,    18.99,    17.33,    17.00,    18.22
       16.0,      18.86,    20.12,    18.23,    17.87,    19.23
       17.0,      19.83,    21.23,    19.12,    18.72,    20.24
       18.0,      20.79,    22.34,    20.01,    19.57,    21.23
       19.0,      21.74,    23.45,    20.88,    20.40,    22.22
       20.0,      22.68,    24.54,    21.74,    21.22,    23.20
       21.0,      23.61,    25.64,    22.59,    22.03,    24.17
       22.0,      24.54,    26.73,    23.44,    22.84,    25.13
       23.0,      25.48,    27.84,    24.32,    23.66,    26.11
       24.0,      26.49,    29.04,    25.26,    24.52,    27.13
       25.0,      27.58,    30.35,    26.29,    25.46,    28.23
       26.0,      28.80,    31.83,    27.43,    26.49,    29.45
       27.0,      30.13,    33.46,    28.66,    27.61,    30.80
       28.0,      31.55,    35.20,    29.95,    28.81,    32.25
       29.0,      33.00,    36.98,    31.24,    30.02,    33.74
       30.0,      34.39,    38.70,    32.46,    31.20,    35.21
       31.0,      35.65,    40.25,    33.55,    32.26,    36.54
       32.0,      36.70,    41.53,    34.44,    33.15,    37.68
       33.0,      37.48,    42.46,    35.09,    33.82,    38.54
       34.0,      37.96,    43.01,    35.49,    34.24,    39.09
       35.0,      38.14,    43.18,    35.64,    34.41,    39.32
       36.0,      38.04,    43.00,    35.57,    34.36,    39.25
       37.0,      37.73,    42.54,    35.33,    34.13,    38.93
       38.0,      37.27,    41.88,    34.98,    33.77,    38.44
       39.0,      36.71,    41.11,    34.57,    33.33,    37.84
       40.0,      36.13,    40.31,    34.14,    32.86,    37.19
       41.0,      35.55,    39.52,    33.72,    32.40,    36.55
       42.0,      35.00,    38.77,    33.33,    31.97,    35.94
       43.0,      34.49,    38.07,    32.96,    31.56,    35.37
       44.0,      34.01,    37.41,    32.61,    31.18,    34.84
       45.0,      33.55,    36.78,    32.27,    30.81,    34.33
       46.0,      33.11,    36.17,    31.94,    30.46,    33.84
       47.0,      32.68,    35.59,    31.63,    30.12,    33.37
       48.0,      32.26,    35.03,    31.32,    29.79,    32.92
       49.0,      31.86,    34.48,    31.03,    29.47,    32.48
       50.0,      31.48,    33.96,    30.74,    29.16,    32.05
       51.0,      31.10,    33.45,    30.46,    28.86,    31.64
       52.0,      30.74,    32.97,    30.20,    28.57,    31.24
       53.0,      30.40,    32.50,    29.94,    28.29,    30.86
       54.0,      30.06,    32.04,    29.69,    28.02,    30.49
       55.0,      29.73,    31.61,    29.45,    27.76,    30.13
       56.0,      29.42,    31.18,    29.21,    27.50,    29.78
       57.0,      29.12,    30.78,    28.98,    27.26,    29.45
       58.0,      28.82,    30.38,    28.76,    27.02,    29.12
       59.0,      28.54,    30.01,    28.55,    26.79,    28.81
       60.0,      28.26,    29.64,    28.34,    26.56,    28.50
       61.0,      28.00,    29.29,    28.14,    26.35,    28.21
       62.0,      27.74,    28.95,    27.95,    26.14,    27.92
       63.0,      27.49,    28.62,    27.76,    25.93,    27.65
       64.0,      27.25,    28.30,    27.58,    25.73,    27.38
       65.0,      27.01,    27.99,    27.40,    25.54,    27.12
       66.0,      26.79,    27.69,    27.23,    25.35,    26.87
       67.0,      26.57,    27.41,    27.06,    25.17,    26.63
       68.0,      26.35,    27.13,    26.90,    25.00,    26.39
       69.0,      26.15,    26.86,    26.74,    24.83,    26.16
       70.0,      25.95,    26.60,    26.59,    24.66,    25.94
       71.0,      25.75,    26.35,    26.44,    24.50,    25.73
       72.0,      25.56,    26.11,    26.29,    24.34,    25.52
       73.0,      25.38,    25.87,    26.15,    24.19,    25.31
       74.0,      25.20,    25.64,    26.02,    24.04,    25.12
       75.0,      25.03,    25.42,    25.88,    23.89,    24.93
       76.0,      24.86,    25.21,    25.75,    23.75,    24.74
       77.0,      24.70,    25.00,    25.63,    23.62,    24.56
       78.0,      24.54,    24.80,    25.50,    23.48,    24.38
       79.0,      24.39,    24.61,    25.38,    23.35,    24.21
       80.0,      24.24,    24.42,    25.26,    23.22,    24.04
       81.0,      24.09,    24.24,    25.15,    23.10,    23.88
       82.0,      23.95,    24.06,    25.04,    22.98,    23.72
       83.0,      23.81,    23.89,    24.93,    22.86,    23.57
       84.0,      23.68,    23.72,    24.82,    22.75,    23.42
       85.0,      23.55,    23.56,    24.72,    22.63,    23.28
       86.0,      23.42,    23.40,    24.62,    22.52,    23.13
       87.0,      23.29,    23.25,    24.52,    22.42,    22.99
       88.0,      23.17,    23.10,    24.42,    22.31,    22.86
       89.0,      23.06,    22.96,    24.33,    22.21,    22.73
       90.0,      22.94,    22.82,    24.23,    22.11,    22.60
       91.0,      22.83,    22.68,    24.14,    22.01,    22.47
       92.0,      22.72,    22.55,    24.05,    21.91,    22.35
       93.0,      22.61,    22.42,    23.97,    21.82,    22.23
       94.0,      22.50,    22.30,    23.88,    21.72,    22.11
       95.0,      22.40,    22.18,    23.80,    21.63,    22.00
       96.0,      22.30,    22.06,    23.71,    21.54,    21.88
       97.0,      22.20,    21.94,    23.63,    21.46,    21.77
       98.0,      22.11,    21.83,    23.55,    21.37,    21.67
       99.0,      22.01,    21.72,    23.48,    21.29,    21.56
      100.0,      21.92,    21.61,    23.40,    21.20,    21.46
      101.0,      21.83,    21.51,    23.33,    21.12,    21.36
      102.0,      21.74,    21.40,    23.25,    21.04,    21.26
      103.0,      21.65,    21.31,    23.18,    20.97,    21.16
      104.0,      21.57,    21.21,    23.11,    20.89,    21.07
      105.0,      21.48,    21.11,    23.04,    20.81,    20.97
      106.0,      21.40,    21.02,    22.97,    20.74,    20.88
      107.0,      21.32,    20.93,    22.90,    20.67,    20.79
      108.0,      21.24,    20.84,    22.83,    20.59,    20.70
      109.0,      21.16,    20.75,    22.77,    20.52,    20.61
      110.0,      21.09,    20.67,    22.70,    20.45,    20.53
      111.0,      21.01,    20.58,    22.64,    20.38,    20.44
      112.0,      20.94,    20.50,    22.58,    20.31,    20.36
      113.0,      20.87,    20.42,    22.51,    20.25,    20.28
      114.0,      20.79,    20.34,    22.45,    20.18,    20.20
      115.0,      20.72,    20.27,    22.39,    20.12,    20.12
      116.0,      20.65,    20.19,    22.33,    20.05,    20.04
      117.0,      20.59,    20.12,    22.27,    19.99,    19.97
      118.0,      20.52,    20.05,    22.21,    19.93,    19.89
      119.0,      20.45,    19.98,    22.16,    19.86,    19.82
      120.0,      20.39,    19.91,    22.10,    19.80,    19.74
      121.0,      20.32,    19.84,    22.04,    19.74,    19.67
      122.0,      20.26,    19.77,    21.99,    19.68,    19.60
      123.0,      20.20,    19.70,    21.93,    19.62,    19.53
      124.0,      20.13,    19.64,    21.88,    19.56,    19.46
      125.0,      20.07,    19.57,    21.82,    19.51,    19.39
      126.0,      20.01,    19.51,    21.77,    19.45,    19.32
      127.0,      19.95,    19.45,    21.72,    19.39,    19.26
      128.0,      19.89,    19.39,    21.67,    19.34,    19.19
      129.0,      19.84,    19.33,    21.61,    19.28,    19.12
      130.0,      19.78,    19.27,    21.56,    19.22,    19.06
      131.0,      19.72,    19.21,    21.51,    19.17,    19.00
      132.0,      19.66,    19.15,    21.46,    19.12,    18.93
      133.0,      19.61,    19.09,    21.41,    19.06,    18.87
      134.0,      19.55,    19.04,    21.36,    19.01,    18.81
      135.0,      19.50,    18.98,    21.31,    18.96,    18.75
      136.0,      19.44,    18.93,    21.26,    18.90,    18.69
      137.0,      19.39,    18.87,    21.21,    18.85,    18.63
      138.0,      19.34,    18.82,    21.17,    18.80,    18.57
      139.0,      19.28,    18.77,    21.12,    18.75,    18.51
      140.0,      19.23,    18.71,    21.07,    18.70,    18.45
      141.0,      19.18,    18.66,    21.02,    18.65,    18.39
      142.0,      19.13,    18.61,    20.98,    18.60,    18.33
      143.0,      19.08,    18.56,    20.93,    18.55,    18.28
      144.0,      19.03,    18.51,    20.88,    18.50,    18.22
      145.0,      18.98,    18.46,    20.84,    18.45,    18.16
      146.0,      18.93,    18.41,    20.79,    18.40,    18.11
      147.0,      18.88,    18.36,    20.75,    18.35,    18.05
      148.0,      18.83,    18.31,    20.70,    18.31,    18.00
      149.0,      18.78,    18.27,    20.66,    18.26,    17.94
      150.0,      18.73,    18.22,    20.61,    18.21,    17.89
      151.0,      18.69,    18.17,    20.57,    18.16,    17.84
      152.0,      18.64,    18.13,    20.52,    18.12,    17.78
      153.0,      18.59,    18.08,    20.48,    18.07,    17.73
      154.0,      18.54,    18.04,    20.44,    18.02,    17.68
      155.0,      18.50,    17.99,    20.39,    17.98,    17.63
      156.0,      18.45,    17.95,    20.35,    17.93,    17.57
      157.0,      18.40,    17.90,    20.31,    17.89,    17.52
      158.0,      18.36,    17.86,    20.27,    17.84,    17.47
      159.0,      18.31,    17.81,    20.22,    17.80,    17.42
      160.0,      18.27,    17.77,    20.18,    17.75,    17.37
      161.0,      18.22,    17.73,    20.14,    17.71,    17.32
      162.0,      18.18,    17.68,    20.10,    17.66,    17.27
      163.0,      18.13,    17.64,    20.06,    17.62,    17.22
      164.0,      18.09,    17.60,    20.01,    17.57,    17.17
      165.0,      18.05,    17.56,    19.97,    17.53,    17.12
      166.0,      18.00,    17.51,    19.93,    17.49,    17.07
      167.0,      17.96,    17.47,    19.89,    17.44,    17.02
      168.0,      17.91,    17.43,    19.85,    17.40,    16.98
      169.0,      17.87,    17.39,    19.81,    17.36,    16.93
      170.0,      17.83,    17.35,    19.77,    17.32,    16.88
      171.0,      17.79,    17.31,    19.73,    17.27,    16.83
      172.0,      17.74,    17.27,    19.69,    17.23,    16.79
      173.0,      17.70,    17.23,    19.65,    17.19,    16.74
      174.0,      17.66,    17.19,    19.61,    17.15,    16.69
      175.0,      17.62,    17.15,    19.57,    17.10,    16.64
      176.0,      17.57,    17.11,    19.53,    17.06,    16.60
      177.0,      17.53,    17.07,    19.49,    17.02,    16.55
      178.0,      17.49,    17.03,    19.45,    16.98,    16.51
      179.0,      17.45,    16.99,    19.41,    16.94,    16.46
      180.0,      17.41,    16.95,    19.37,    16.90,    16.41
      181.0,      17.37,    16.92,    19.33,    16.86,    16.37
      182.0,      17.33,    16.88,    19.29,    16.81,    16.32
      183.0,      17.29,    16.84,    19.25,    16.77,    16.28
      184.0,      17.25,    16.80,    19.21,    16.73,    16.23
      185.0,      17.21,    16.76,    19.18,    16.69,    16.19
      186.0,      17.16,    16.73,    19.14,    16.65,    16.14
      187.0,      17.12,    16.69,    19.10,    16.61,    16.10
      188.0,      17.08,    16.65,    19.06,    16.57,    16.06
      189.0,      17.05,    16.61,    19.02,    16.53,    16.01
      190.0,      17.01,    16.58,    18.98,    16.49,    15.97
      191.0,      16.97,    16.54,    18.95,    16.45,    15.92
      192.0,      16.93,    16.50,    18.91,    16.41,    15.88
      193.0,      16.89,    16.47,    18.87,    16.37,    15.84
      194.0,      16.85,    16.43,    18.83,    16.33,    15.79
      195.0,      16.81,    16.39,    18.80,    16.30,    15.75
      196.0,      16.77,    16.36,    18.76,    16.26,    15.71
      197.0,      16.73,    16.32,    18.72,    16.22,    15.67
      198.0,      16.69,    16.29,    18.68,    16.18,    15.62
      199.0,      16.65,    16.25,    18.65,    16.14,    15.58
      200.0,      16.62,    16.21,    18.61,    16.10,    15.54
      201.0,      16.58,    16.18,    18.57,    16.06,    15.50
      202.0,      16.54,    16.14,    18.54,    16.02,    15.45
      203.0,      16.50,    16.11,    18.50,    15.99,    15.41
      204.0,      16.46,    16.07,    18.46,    15.95,    15.37
      205.0,      16.43,    16.04,    18.43,    15.91,    15.33
      206.0,      16.39,    16.00,    18.39,    15.87,    15.29
      207.0,      16.35,    15.97,    18.35,    15.83,    15.25
      208.0,      16.31,    15.93,    18.32,    15.80,    15.20
      209.0,      16.28,    15.90,    18.28,    15.76,    15.16
      210.0,      16.24,    15.86,    18.24,    15.72,    15.12
      211.0,      16.20,    15.83,    18.21,    15.68,    15.08
      212.0,      16.16,    15.79,    18.17,    15.65,    15.04
      213.0,      16.13,    15.76,    18.14,    15.61,    15.00
      214.0,      16.09,    15.73,    18.10,    15.57,    14.96
      215.0,      16.05,    15.69,    18.07,    15.54,    14.92
      216.0,      16.02,    15.66,    18.03,    15.50,    14.88
      217.0,      15.98,    15.62,    17.99,    15.46,    14.84
      218.0,      15.94,    15.59,    17.96,    15.43,    14.80
      219.0,      15.91,    15.56,    17.92,    15.39,    14.76
      220.0,      15.87,    15.52,    17.89,    15.35,    14.72
      221.0,      15.83,    15.49,    17.85,    15.32,    14.68
      222.0,      15.80,    15.46,    17.82,    15.28,    14.64
      223.0,      15.76,    15.42,    17.78,    15.24,    14.60
      224.0,      15.73,    15.39,    17.75,    15.21,    14.56
      225.0,      15.69,    15.36,    17.71,    15.17,    14.52
      226.0,      15.66,    15.32,    17.68,    15.14,    14.49
      227.0,      15.62,    15.29,    17.64,    15.10,    14.45
      228.0,      15.58,    15.26,    17.61,    15.06,    14.41
      229.0,      15.55,    15.22,    17.57,    15.03,    14.37
      230.0,      15.51,    15.19,    17.54,    14.99,    14.33
      231.0,      15.48,    15.16,    17.51,    14.96,    14.29
      232.0,      15.44,    15.13,    17.47,    14.92,    14.25
      233.0,      15.41,    15.09,    17.44,    14.89,    14.22
      234.0,      15.37,    15.06,    17.40,    14.85,    14.18
      235.0,      15.34,    15.03,    17.37,    14.82,    14.14
      236.0,      15.30,    15.00,    17.33,    14.78,    14.10
      237.0,      15.27,    14.96,    17.30,    14.75,    14.06
      238.0,      15.23,    14.93,    17.27,    14.71,    14.03
      239.0,      15.20,    14.90,    17.23,    14.68,    13.99
      240.0,      15.17,    14.87,    17.20,    14.64,    13.95
      241.0,      15.13,    14.84,    17.16,    14.61,    13.91
      242.0,      15.10,    14.80,    17.13,    14.57,    13.88
      243.0,      15.06,    14.77,    17.10,    14.54,    13.84
      244.0,      15.03,    14.74,    17.06,    14.51,    13.80
      245.0,      14.99,    14.71,    17.03,    14.47,    13.77
      246.0,      14.96,    14.68,    17.00,    14.44,    13.73
      247.0,      14.93,    14.65,    16.96,    14.40,    13.69
      248.0,      14.89,    14.61,    16.93,    14.37,    13.66
      249.0,      14.86,    14.58,    16.90,    14.33,    13.62
      250.0,      14.83,    14.55,    16.86,    14.30,    13.58
      251.0,      14.79,    14.52,    16.83,    14.27,    13.55
      252.0,      14.76,    14.49,    16.80,    14.23,    13.51
      253.0,      14.72,    14.46,    16.77,    14.20,    13.48
      254.0,      14.69,    14.43,    16.73,    14.17,    13.44
      255.0,      14.66,    14.40,    16.70,    14.13,    13.40
      256.0,      14.63,    14.37,    16.67,    14.10,    13.37
      257.0,      14.59,    14.34,    16.63,    14.07,    13.33
      258.0,      14.56,    14.30,    16.60,    14.03,    13.30
      259.0,      14.53,    14.27,    16.57,    14.00,    13.26
      260.0,      14.49,    14.24,    16.54,    13.97,    13.23
      261.0,      14.46,    14.21,    16.50,    13.93,    13.19
      262.0,      14.43,    14.18,    16.47,    13.90,    13.16
      263.0,      14.40,    14.15,    16.44,    13.87,    13.12
      264.0,      14.36,    14.12,    16.41,    13.84,    13.09
      265.0,      14.33,    14.09,    16.38,    13.80,    13.05
      266.0,      14.30,    14.06,    16.34,    13.77,    13.02
      267.0,      14.27,    14.03,    16.31,    13.74,    12.98
      268.0,      14.23,    14.00,    16.28,    13.71,    12.95
      269.0,      14.20,    13.97,    16.25,    13.67,    12.91
      270.0,      14.17,    13.94,    16.22,    13.64,    12.88
      271.0,      14.14,    13.91,    16.18,    13.61,    12.84
      272.0,      14.11,    13.88,    16.15,    13.58,    12.81
      273.0,      14.07,    13.85,    16.12,    13.55,    12.78
      274.0,      14.04,    13.82,    16.09,    13.51,    12.74
      275.0,      14.01,    13.79,    16.06,    13.48,    12.71
      276.0,      13.98,    13.76,    16.03,    13.45,    12.67
      277.0,      13.95,    13.74,    15.99,    13.42,    12.64
      278.0,      13.92,    13.71,    15.96,    13.39,    12.61
      279.0,      13.88,    13.68,    15.93,    13.36,    12.57
      280.0,      13.85,    13.65,    15.90,    13.32,    12.54
      281.0,      13.82,    13.62,    15.87,    13.29,    12.51
      282.0,      13.79,    13.59,    15.84,    13.26,    12.47
      283.0,      13.76,    13.56,    15.81,    13.23,    12.44
      284.0,      13.73,    13.53,    15.78,    13.20,    12.41
      285.0,      13.70,    13.50,    15.75,    13.17,    12.37
      286.0,      13.67,    13.47,    15.72,    13.14,    12.34
      287.0,      13.64,    13.45,    15.68,    13.11,    12.31
      288.0,      13.61,    13.42,    15.65,    13.08,    12.27
      289.0,      13.57,    13.39,    15.62,    13.04,    12.24
      290.0,      13.54,    13.36,    15.59,    13.01,    12.21
      291.0,      13.51,    13.33,    15.56,    12.98,    12.18
      292.0,      13.48,    13.30,    15.53,    12.95,    12.14
      293.0,      13.45,    13.27,    15.50,    12.92,    12.11
      294.0,      13.42,    13.25,    15.47,    12.89,    12.08
      295.0,      13.39,    13.22,    15.44,    12.86,    12.05
      296.0,      13.36,    13.19,    15.41,    12.83,    12.02
      297.0,      13.33,    13.16,    15.38,    12.80,    11.98
      298.0,      13.30,    13.13,    15.35,    12.77,    11.95
      299.0,      13.27,    13.11,    15.32,    12.74,    11.92
      300.0,      13.24,    13.08,    15.29,    12.71,    11.89
      301.0,      13.21,    13.05,    15.26,    12.68,    11.86
      302.0,      13.18,    13.02,    15.23,    12.65,    11.82
      303.0,      13.15,    12.99,    15.20,    12.62,    11.79
      304.0,      13.12,    12.97,    15.17,    12.59,    11.76
      305.0,      13.09,    12.94,    15.14,    12.56,    11.73
      306.0,      13.06,    12.91,    15.11,    12.53,    11.70
      307.0,      13.03,    12.88,    15.08,    12.50,    11.67
      308.0,      13.00,    12.86,    15.05,    12.47,    11.64
      309.0,      12.98,    12.83,    15.02,    12.44,    11.61
      310.0,      12.95,    12.80,    14.99,    12.41,    11.58
