Radius (km), Mean (m/s), NE (m/s), SE (m/s), SW (m/s), NW (m/s)
        0.0,       0.00,     0.00,     0.00,     0.00,     0.00
        1.0,       2.00,     2.00,     2.00,     2.00,     2.00
        2.0,       3.53,     3.53,     3.53,     3.53,     3.53
        3.0,       4.92,     4.92,     4.92,     4.92,     4.92
        4.0,       6.23,     6.23,     6.23,     6.23,     6.23
        5.0,       7.47,     7.47,     7.47,     7.47,     7.47
        6.0,       8.67,     8.67,     8.67,     8.67,     8.67
        7.0,       9.84,     9.84,     9.84,     9.84,     9.84
        8.0,      10.98,    10.98,    10.98,    10.98,    10.98
        9.0,      12.08,    12.08,    12.08,    12.08,    12.08
       10.0,      13.17,    13.17,    13.17,    13.17,    13.17
       11.0,      14.24,    14.24,    14.24,    14.24,    14.24
       12.0,      15.29,    15.29,    15.29,    15.29,    15.29
       13.0,      16.32,    16.32,    16.32,    16.32,    16.32
       14.0,      17.34,    17.34,    17.34,    17.34,    17.34
       15.0,      18.35,    18.35,    18.35,    18.35,    18.35
       16.0,      19.34,    19.34,    19.34,    19.34,    19.34
       17.0,      20.33,    20.33,    20.33,    20.33,    20.33
       18.0,      21.30,    21.30,    21.30,    21.30,    21.30
       19.0,      22.26,    22.26,    22.26,    22.26,    22.26
       20.0,      23.22,    23.22,    23.22,    23.22,    23.22
       21.0,      24.16,    24.16,    24.16,    24.16,    24.16
       22.0,      25.11,    25.10,    25.11,    25.11,    25.11
       23.0,      26.07,    26.04,    26.08,    26.08,    26.07
       24.0,      27.08,    27.02,    27.10,    27.11,    27.08
       25.0,      28.16,    28.05,    28.20,    28.23,    28.17
       26.0,      29.33,    29.17,    29.38,    29.43,    29.36
       27.0,      30.59,    30.38,    30.64,    30.72,    30.62
       28.0,      31.91,    31.67,    31.95,    32.06,    31.95
       29.0,      33.23,    32.99,    33.26,    33.40,    33.28
       30.0,      34.51,    34.29,    34.51,    34.67,    34.56
       31.0,      35.67,    35.49,    35.65,    35.82,    35.73
       32.0,      36.67,    36.55,    36.62,    36.79,    36.72
       33.0,      37.46,    37.40,    37.39,    37.55,    37.50
       34.0,      38.02,    38.01,    37.94,    38.07,    38.05
       35.0,      38.35,    38.37,    38.28,    38.38,    38.37
       36.0,      38.47,    38.50,    38.43,    38.48,    38.48
       37.0,      38.43,    38.43,    38.43,    38.43,    38.43
       38.0,      38.28,    38.22,    38.33,    38.28,    38.27
       39.0,      38.05,    37.92,    38.17,    38.07,    38.04
       40.0,      37.80,    37.58,    37.99,    37.83,    37.79
       41.0,      37.54,    37.22,    37.81,    37.60,    37.53
       42.0,      37.30,    36.89,    37.65,    37.38,    37.29
       43.0,      37.08,    36.58,    37.49,    37.18,    37.07
       44.0,      36.87,    36.29,    37.34,    36.99,    36.86
       45.0,      36.66,    36.01,    37.19,    36.80,    36.65
       46.0,      36.46,    35.74,    37.05,    36.61,    36.45
       47.0,      36.27,    35.47,    36.91,    36.43,    36.26
       48.0,      36.07,    35.21,    36.77,    36.26,    36.06
       49.0,      35.89,    34.95,    36.63,    36.08,    35.88
       50.0,      35.70,    34.71,    36.49,    35.92,    35.69
       51.0,      35.52,    34.46,    36.36,    35.75,    35.51
       52.0,      35.34,    34.22,    36.22,    35.59,    35.33
       53.0,      35.17,    33.99,    36.09,    35.43,    35.16
       54.0,      35.00,    33.76,    35.96,    35.27,    34.99
       55.0,      34.83,    33.54,    35.84,    35.12,    34.82
       56.0,      34.66,    33.32,    35.71,    34.97,    34.66
       57.0,      34.50,    33.11,    35.59,    34.82,    34.50
       58.0,      34.34,    32.90,    35.46,    34.68,    34.34
       59.0,      34.19,    32.69,    35.34,    34.53,    34.18
       60.0,      34.03,    32.49,    35.22,    34.39,    34.03
       61.0,      33.88,    32.29,    35.11,    34.26,    33.88
       62.0,      33.74,    32.09,    34.99,    34.12,    33.74
       63.0,      33.59,    31.90,    34.87,    33.99,    33.59
       64.0,      33.45,    31.72,    34.76,    33.86,    33.45
       65.0,      33.30,    31.53,    34.65,    33.73,    33.31
       66.0,      33.17,    31.35,    34.53,    33.61,    33.17
       67.0,      33.03,    31.17,    34.42,    33.48,    33.04
       68.0,      32.89,    31.00,    34.31,    33.36,    32.90
       69.0,      32.76,    30.83,    34.21,    33.24,    32.77
       70.0,      32.63,    30.66,    34.10,    33.12,    32.64
       71.0,      32.50,    30.49,    33.99,    33.01,    32.52
       72.0,      32.38,    30.33,    33.89,    32.89,    32.39
       73.0,      32.25,    30.17,    33.78,    32.78,    32.27
       74.0,      32.13,    30.01,    33.68,    32.67,    32.15
       75.0,      32.01,    29.86,    33.58,    32.56,    32.03
       76.0,      31.88,    29.71,    33.48,    32.45,    31.91
       77.0,      31.77,    29.56,    33.38,    32.34,    31.79
       78.0,      31.65,    29.41,    33.28,    32.24,    31.68
       79.0,      31.53,    29.26,    33.18,    32.13,    31.56
       80.0,      31.42,    29.12,    33.08,    32.03,    31.45
       81.0,      31.31,    28.97,    32.98,    31.93,    31.34
       82.0,      31.19,    28.83,    32.89,    31.83,    31.23
       83.0,      31.08,    28.70,    32.79,    31.73,    31.12
       84.0,      30.98,    28.56,    32.70,    31.63,    31.01
       85.0,      30.87,    28.43,    32.60,    31.53,    30.91
       86.0,      30.76,    28.29,    32.51,    31.44,    30.80
       87.0,      30.66,    28.16,    32.42,    31.34,    30.70
       88.0,      30.55,    28.03,    32.33,    31.25,    30.60
       89.0,      30.45,    27.90,    32.24,    31.16,    30.50
       90.0,      30.35,    27.78,    32.14,    31.06,    30.40
       91.0,      30.25,    27.65,    32.05,    30.97,    30.30
       92.0,      30.15,    27.53,    31.97,    30.88,    30.20
       93.0,      30.05,    27.41,    31.88,    30.79,    30.10
       94.0,      29.95,    27.29,    31.79,    30.71,    30.01
       95.0,      29.85,    27.17,    31.70,    30.62,    29.91
       96.0,      29.75,    27.05,    31.61,    30.53,    29.82
       97.0,      29.66,    26.93,    31.53,    30.45,    29.72
       98.0,      29.56,    26.82,    31.44,    30.36,    29.63
       99.0,      29.47,    26.71,    31.36,    30.28,    29.54
      100.0,      29.38,    26.59,    31.27,    30.19,    29.45
      101.0,      29.28,    26.48,    31.19,    30.11,    29.36
      102.0,      29.19,    26.37,    31.10,    30.03,    29.27
      103.0,      29.10,    26.26,    31.02,    29.95,    29.18
      104.0,      29.01,    26.15,    30.94,    29.87,    29.09
      105.0,      28.92,    26.04,    30.85,    29.79,    29.01
      106.0,      28.83,    25.94,    30.77,    29.71,    28.92
      107.0,      28.75,    25.83,    30.69,    29.63,    28.83
      108.0,      28.66,    25.73,    30.61,    29.55,    28.75
      109.0,      28.57,    25.62,    30.53,    29.47,    28.66
      110.0,      28.49,    25.52,    30.45,    29.39,    28.58
      111.0,      28.40,    25.42,    30.37,    29.32,    28.50
      112.0,      28.31,    25.32,    30.29,    29.24,    28.41
      113.0,      28.23,    25.22,    30.21,    29.16,    28.33
      114.0,      28.15,    25.12,    30.13,    29.09,    28.25
      115.0,      28.06,    25.02,    30.05,    29.01,    28.17
      116.0,      27.98,    24.92,    29.97,    28.94,    28.09
      117.0,      27.90,    24.82,    29.90,    28.87,    28.01
      118.0,      27.82,    24.73,    29.82,    28.79,    27.93
      119.0,      27.74,    24.63,    29.74,    28.72,    27.85
      120.0,      27.65,    24.54,    29.67,    28.65,    27.77
      121.0,      27.57,    24.44,    29.59,    28.57,    27.69
      122.0,      27.49,    24.35,    29.51,    28.50,    27.61
      123.0,      27.41,    24.26,    29.44,    28.43,    27.53
      124.0,      27.34,    24.16,    29.36,    28.36,    27.46
      125.0,      27.26,    24.07,    29.29,    28.29,    27.38
      126.0,      27.18,    23.98,    29.21,    28.22,    27.30
      127.0,      27.10,    23.89,    29.14,    28.15,    27.23
      128.0,      27.02,    23.80,    29.06,    28.08,    27.15
      129.0,      26.95,    23.71,    28.99,    28.01,    27.08
      130.0,      26.87,    23.62,    28.92,    27.94,    27.00
      131.0,      26.80,    23.54,    28.84,    27.87,    26.93
      132.0,      26.72,    23.45,    28.77,    27.80,    26.86
      133.0,      26.64,    23.36,    28.70,    27.74,    26.78
      134.0,      26.57,    23.27,    28.62,    27.67,    26.71
      135.0,      26.49,    23.19,    28.55,    27.60,    26.64
      136.0,      26.42,    23.10,    28.48,    27.53,    26.56
      137.0,      26.35,    23.02,    28.41,    27.47,    26.49
      138.0,      26.27,    22.93,    28.34,    27.40,    26.42
      139.0,      26.20,    22.85,    28.27,    27.33,    26.35
      140.0,      26.13,    22.77,    28.20,    27.27,    26.28
      141.0,      26.05,    22.68,    28.12,    27.20,    26.21
      142.0,      25.98,    22.60,    28.05,    27.14,    26.14
      143.0,      25.91,    22.52,    27.98,    27.07,    26.07
      144.0,      25.84,    22.44,    27.91,    27.01,    26.00
      145.0,      25.77,    22.35,    27.84,    26.94,    25.93
      146.0,      25.70,    22.27,    27.78,    26.88,    25.86
      147.0,      25.63,    22.19,    27.71,    26.81,    25.79
      148.0,      25.55,    22.11,    27.64,    26.75,    25.72
      149.0,      25.48,    22.03,    27.57,    26.69,    25.65
      150.0,      25.41,    21.95,    27.50,    26.62,    25.58
      151.0,      25.34,    21.87,    27.43,    26.56,    25.51
      152.0,      25.28,    21.80,    27.36,    26.50,    25.45
      153.0,      25.21,    21.72,    27.30,    26.43,    25.38
      154.0,      25.14,    21.64,    27.23,    26.37,    25.31
      155.0,      25.07,    21.56,    27.16,    26.31,    25.24
      156.0,      25.00,    21.49,    27.09,    26.25,    25.18
      157.0,      24.93,    21.41,    27.03,    26.19,    25.11
      158.0,      24.87,    21.33,    26.96,    26.12,    25.04
      159.0,      24.80,    21.26,    26.89,    26.06,    24.98
      160.0,      24.73,    21.18,    26.83,    26.00,    24.91
      161.0,      24.66,    21.11,    26.76,    25.94,    24.85
      162.0,      24.60,    21.03,    26.69,    25.88,    24.78
      163.0,      24.53,    20.96,    26.63,    25.82,    24.72
      164.0,      24.46,    20.88,    26.56,    25.76,    24.65
      165.0,      24.40,    20.81,    26.50,    25.70,    24.59
      166.0,      24.33,    20.74,    26.43,    25.64,    24.52
      167.0,      24.27,    20.66,    26.37,    25.58,    24.46
      168.0,      24.20,    20.59,    26.30,    25.52,    24.39
      169.0,      24.14,    20.52,    26.24,    25.46,    24.33
      170.0,      24.07,    20.44,    26.17,    25.40,    24.27
      171.0,      24.01,    20.37,    26.11,    25.34,    24.20
      172.0,      23.94,    20.30,    26.04,    25.28,    24.14
      173.0,      23.88,    20.23,    25.98,    25.22,    24.08
      174.0,      23.81,    20.16,    25.92,    25.16,    24.01
      175.0,      23.75,    20.09,    25.85,    25.10,    23.95
      176.0,      23.68,    20.02,    25.79,    25.04,    23.89
      177.0,      23.62,    19.95,    25.73,    24.99,    23.83
      178.0,      23.56,    19.88,    25.66,    24.93,    23.77
      179.0,      23.50,    19.81,    25.60,    24.87,    23.70
      180.0,      23.43,    19.74,    25.54,    24.81,    23.64
      181.0,      23.37,    19.67,    25.47,    24.75,    23.58
      182.0,      23.31,    19.60,    25.41,    24.70,    23.52
      183.0,      23.24,    19.53,    25.35,    24.64,    23.46
      184.0,      23.18,    19.46,    25.29,    24.58,    23.40
      185.0,      23.12,    19.40,    25.23,    24.53,    23.34
      186.0,      23.06,    19.33,    25.16,    24.47,    23.28
      187.0,      23.00,    19.26,    25.10,    24.41,    23.22
      188.0,      22.94,    19.19,    25.04,    24.36,    23.15
      189.0,      22.88,    19.13,    24.98,    24.30,    23.09
      190.0,      22.81,    19.06,    24.92,    24.24,    23.04
      191.0,      22.75,    18.99,    24.86,    24.19,    22.98
      192.0,      22.69,    18.93,    24.80,    24.13,    22.92
      193.0,      22.63,    18.86,    24.74,    24.08,    22.86
      194.0,      22.57,    18.80,    24.68,    24.02,    22.80
      195.0,      22.51,    18.73,    24.62,    23.96,    22.74
      196.0,      22.45,    18.67,    24.56,    23.91,    22.68
      197.0,      22.39,    18.60,    24.50,    23.85,    22.62
      198.0,      22.33,    18.54,    24.44,    23.80,    22.56
      199.0,      22.27,    18.47,    24.38,    23.74,    22.50
      200.0,      22.21,    18.41,    24.32,    23.69,    22.45
      201.0,      22.16,    18.34,    24.26,    23.63,    22.39
      202.0,      22.10,    18.28,    24.20,    23.58,    22.33
      203.0,      22.04,    18.22,    24.14,    23.53,    22.27
      204.0,      21.98,    18.15,    24.08,    23.47,    22.22
      205.0,      21.92,    18.09,    24.02,    23.42,    22.16
      206.0,      21.86,    18.03,    23.96,    23.36,    22.10
      207.0,      21.81,    17.96,    23.90,    23.31,    22.04
      208.0,      21.75,    17.90,    23.85,    23.26,    21.99
      209.0,      21.69,    17.84,    23.79,    23.20,    21.93
      210.0,      21.63,    17.78,    23.73,    23.15,    21.87
      211.0,      21.58,    17.72,    23.67,    23.10,    21.82
      212.0,      21.52,    17.66,    23.61,    23.04,    21.76
      213.0,      21.46,    17.59,    23.56,    22.99,    21.70
      214.0,      21.40,    17.53,    23.50,    22.94,    21.65
      215.0,      21.35,    17.47,    23.44,    22.88,    21.59
      216.0,      21.29,    17.41,    23.39,    22.83,    21.54
      217.0,      21.24,    17.35,    23.33,    22.78,    21.48
      218.0,      21.18,    17.29,    23.27,    22.73,    21.43
      219.0,      21.12,    17.23,    23.22,    22.67,    21.37
      220.0,      21.07,    17.17,    23.16,    22.62,    21.32
      221.0,      21.01,    17.11,    23.10,    22.57,    21.26
      222.0,      20.96,    17.05,    23.05,    22.52,    21.21
      223.0,      20.90,    17.00,    22.99,    22.47,    21.15
      224.0,      20.85,    16.94,    22.93,    22.41,    21.10
      225.0,      20.79,    16.88,    22.88,    22.36,    21.04
      226.0,      20.74,    16.82,    22.82,    22.31,    20.99
      227.0,      20.68,    16.76,    22.77,    22.26,    20.94
      228.0,      20.63,    16.70,    22.71,    22.21,    20.88
      229.0,      20.57,    16.65,    22.66,    22.16,    20.83
      230.0,      20.52,    16.59,    22.60,    22.11,    20.77
      231.0,      20.46,    16.53,    22.55,    22.06,    20.72
      232.0,      20.41,    16.47,    22.49,    22.01,    20.67
      233.0,      20.36,    16.42,    22.44,    21.95,    20.61
      234.0,      20.30,    16.36,    22.38,    21.90,    20.56
      235.0,      20.25,    16.30,    22.33,    21.85,    20.51
      236.0,      20.20,    16.25,    22.27,    21.80,    20.46
      237.0,      20.14,    16.19,    22.22,    21.75,    20.40
      238.0,      20.09,    16.14,    22.17,    21.70,    20.35
      239.0,      20.04,    16.08,    22.11,    21.65,    20.30
      240.0,      19.98,    16.02,    22.06,    21.60,    20.25
      241.0,      19.93,    15.97,    22.00,    21.55,    20.19
      242.0,      19.88,    15.91,    21.95,    21.50,    20.14
      243.0,      19.83,    15.86,    21.90,    21.46,    20.09
      244.0,      19.77,    15.80,    21.84,    21.41,    20.04
      245.0,      19.72,    15.75,    21.79,    21.36,    19.99
      246.0,      19.67,    15.70,    21.74,    21.31,    19.94
      247.0,      19.62,    15.64,    21.68,    21.26,    19.88
      248.0,      19.57,    15.59,    21.63,    21.21,    19.83
      249.0,      19.51,    15.53,    21.58,    21.16,    19.78
      250.0,      19.46,    15.48,    21.53,    21.11,    19.73
      251.0,      19.41,    15.43,    21.47,    21.06,    19.68
      252.0,      19.36,    15.37,    21.42,    21.02,    19.63
      253.0,      19.31,    15.32,    21.37,    20.97,    19.58
      254.0,      19.26,    15.27,    21.32,    20.92,    19.53
      255.0,      19.21,    15.22,    21.27,    20.87,    19.48
      256.0,      19.16,    15.16,    21.22,    20.82,    19.43
      257.0,      19.11,    15.11,    21.16,    20.78,    19.38
      258.0,      19.06,    15.06,    21.11,    20.73,    19.33
      259.0,      19.01,    15.01,    21.06,    20.68,    19.28
      260.0,      18.96,    14.96,    21.01,    20.63,    19.23
      261.0,      18.91,    14.90,    20.96,    20.59,    19.18
      262.0,      18.86,    14.85,    20.91,    20.54,    19.13
      263.0,      18.81,    14.80,    20.86,    20.49,    19.08
      264.0,      18.76,    14.75,    20.81,    20.45,    19.03
      265.0,      18.71,    14.70,    20.76,    20.40,    18.98
      266.0,      18.66,    14.65,    20.71,    20.35,    18.94
      267.0,      18.61,    14.60,    20.65,    20.30,    18.89
      268.0,      18.56,    14.55,    20.60,    20.26,    18.84
      269.0,      18.51,    14.50,    20.55,    20.21,    18.79
      270.0,      18.47,    14.45,    20.50,    20.17,    18.74
      271.0,      18.42,    14.40,    20.45,    20.12,    18.69
      272.0,      18.37,    14.35,    20.41,    20.07,    18.65
      273.0,      18.32,    14.30,    20.36,    20.03,    18.60
      274.0,      18.27,    14.25,    20.31,    19.98,    18.55
      275.0,      18.22,    14.20,    20.26,    19.94,    18.50
      276.0,      18.18,    14.15,    20.21,    19.89,    18.46
      277.0,      18.13,    14.10,    20.16,    19.84,    18.41
      278.0,      18.08,    14.05,    20.11,    19.80,    18.36
      279.0,      18.03,    14.01,    20.06,    19.75,    18.31
      280.0,      17.99,    13.96,    20.01,    19.71,    18.27
      281.0,      17.94,    13.91,    19.96,    19.66,    18.22
      282.0,      17.89,    13.86,    19.91,    19.62,    18.17
      283.0,      17.84,    13.81,    19.87,    19.57,    18.13
      284.0,      17.80,    13.77,    19.82,    19.53,    18.08
      285.0,      17.75,    13.72,    19.77,    19.48,    18.03
      286.0,      17.70,    13.67,    19.72,    19.44,    17.99
      287.0,      17.66,    13.62,    19.67,    19.39,    17.94
      288.0,      17.61,    13.58,    19.63,    19.35,    17.90
      289.0,      17.57,    13.53,    19.58,    19.30,    17.85
      290.0,      17.52,    13.48,    19.53,    19.26,    17.80
      291.0,      17.47,    13.44,    19.48,    19.22,    17.76
      292.0,      17.43,    13.39,    19.44,    19.17,    17.71
      293.0,      17.38,    13.35,    19.39,    19.13,    17.67
      294.0,      17.34,    13.30,    19.34,    19.08,    17.62
      295.0,      17.29,    13.25,    19.30,    19.04,    17.58
      296.0,      17.25,    13.21,    19.25,    19.00,    17.53
      297.0,      17.20,    13.16,    19.20,    18.95,    17.49
      298.0,      17.16,    13.12,    19.15,    18.91,    17.44
      299.0,      17.11,    13.07,    19.11,    18.87,    17.40
      300.0,      17.07,    13.03,    19.06,    18.82,    17.35
      301.0,      17.02,    12.98,    19.02,    18.78,    17.31
      302.0,      16.98,    12.94,    18.97,    18.74,    17.26
      303.0,      16.93,    12.89,    18.92,    18.69,    17.22
      304.0,      16.89,    12.85,    18.88,    18.65,    17.17
      305.0,      16.84,    12.80,    18.83,    18.61,    17.13
      306.0,      16.80,    12.76,    18.79,    18.57,    17.09
      307.0,      16.76,    12.72,    18.74,    18.52,    17.04
      308.0,      16.71,    12.67,    18.69,    18.48,    17.00
      309.0,      16.67,    12.63,    18.65,    18.44,    16.95
      310.0,      16.62,    12.59,    18.60,    18.40,    16.91
