Radius (km), Mean (m/s), NE (m/s), SE (m/s), SW (m/s), NW (m/s)
        0.0,       0.00,     0.00,     0.00,     0.00,     0.00
        1.0,       2.11,     2.11,     2.11,     2.11,     2.11
        2.0,       3.65,     3.65,     3.65,     3.65,     3.65
        3.0,       5.04,     5.04,     5.04,     5.04,     5.04
        4.0,       6.33,     6.33,     6.33,     6.33,     6.33
        5.0,       7.55,     7.55,     7.55,     7.55,     7.55
        6.0,       8.73,     8.73,     8.73,     8.73,     8.73
        7.0,       9.86,     9.86,     9.86,     9.86,     9.86
        8.0,      10.97,    10.97,    10.97,    10.97,    10.97
        9.0,      12.04,    12.04,    12.04,    12.04,    12.04
       10.0,      13.09,    13.09,    13.09,    13.09,    13.09
       11.0,      14.12,    14.12,    14.12,    14.12,    14.12
       12.0,      15.13,    15.13,    15.13,    15.13,    15.13
       13.0,      16.12,    16.12,    16.12,    16.12,    16.12
       14.0,      17.10,    17.10,    17.10,    17.10,    17.10
       15.0,      18.06,    18.06,    18.06,    18.06,    18.06
       16.0,      19.01,    19.01,    19.01,    19.01,    19.01
       17.0,      19.95,    19.95,    19.95,    19.95,    19.95
       18.0,      20.87,    20.87,    20.87,    20.87,    20.87
       19.0,      21.79,    21.79,    21.79,    21.79,    21.79
       20.0,      22.69,    22.69,    22.69,    22.69,    22.69
       21.0,      23.59,    23.59,    23.59,    23.59,    23.60
       22.0,      24.49,    24.48,    24.49,    24.48,    24.52
       23.0,      25.42,    25.38,    25.41,    25.39,    25.49
       24.0,      26.39,    26.31,    26.39,    26.34,    26.54
       25.0,      27.45,    27.31,    27.43,    27.36,    27.68
       26.0,      28.58,    28.40,    28.56,    28.47,    28.90
       27.0,      29.79,    29.57,    29.75,    29.65,    30.19
       28.0,      31.04,    30.81,    30.98,    30.88,    31.50
       29.0,      32.29,    32.07,    32.21,    32.12,    32.78
       30.0,      33.48,    33.30,    33.37,    33.31,    33.95
       31.0,      34.56,    34.42,    34.42,    34.40,    34.98
       32.0,      35.46,    35.39,    35.31,    35.33,    35.81
       33.0,      36.17,    36.16,    36.02,    36.07,    36.43
       34.0,      36.66,    36.70,    36.53,    36.59,    36.83
       35.0,      36.95,    37.01,    36.84,    36.91,    37.04
       36.0,      37.05,    37.10,    36.99,    37.03,    37.08
       37.0,      37.01,    37.01,    37.01,    37.01,    37.01
       38.0,      36.87,    36.80,    36.94,    36.88,    36.86
       39.0,      36.67,    36.50,    36.82,    36.68,    36.68
       40.0,      36.45,    36.17,    36.68,    36.47,    36.48
       41.0,      36.23,    35.84,    36.54,    36.25,    36.29
       42.0,      36.02,    35.53,    36.41,    36.04,    36.11
       43.0,      35.82,    35.23,    36.28,    35.85,    35.93
       44.0,      35.63,    34.94,    36.16,    35.67,    35.76
       45.0,      35.45,    34.67,    36.04,    35.50,    35.59
       46.0,      35.27,    34.39,    35.93,    35.33,    35.42
       47.0,      35.09,    34.13,    35.81,    35.16,    35.25
       48.0,      34.91,    33.86,    35.69,    35.00,    35.08
       49.0,      34.73,    33.61,    35.58,    34.83,    34.92
       50.0,      34.56,    33.35,    35.46,    34.68,    34.75
       51.0,      34.39,    33.10,    35.35,    34.52,    34.59
       52.0,      34.22,    32.85,    35.23,    34.37,    34.43
       53.0,      34.06,    32.61,    35.12,    34.22,    34.27
       54.0,      33.89,    32.37,    35.00,    34.07,    34.12
       55.0,      33.73,    32.14,    34.89,    33.93,    33.96
       56.0,      33.57,    31.91,    34.78,    33.79,    33.81
       57.0,      33.41,    31.68,    34.67,    33.65,    33.66
       58.0,      33.26,    31.46,    34.56,    33.51,    33.50
       59.0,      33.11,    31.24,    34.45,    33.38,    33.36
       60.0,      32.95,    31.03,    34.34,    33.25,    33.21
       61.0,      32.81,    30.81,    34.23,    33.11,    33.06
       62.0,      32.66,    30.60,    34.12,    32.99,    32.92
       63.0,      32.51,    30.40,    34.01,    32.86,    32.77
       64.0,      32.37,    30.20,    33.91,    32.74,    32.63
       65.0,      32.23,    30.00,    33.80,    32.61,    32.49
       66.0,      32.09,    29.80,    33.69,    32.49,    32.35
       67.0,      31.95,    29.61,    33.59,    32.37,    32.22
       68.0,      31.81,    29.42,    33.48,    32.26,    32.08
       69.0,      31.67,    29.23,    33.38,    32.14,    31.95
       70.0,      31.54,    29.05,    33.28,    32.03,    31.81
       71.0,      31.41,    28.86,    33.17,    31.91,    31.68
       72.0,      31.28,    28.68,    33.07,    31.80,    31.55
       73.0,      31.15,    28.51,    32.97,    31.69,    31.42
       74.0,      31.02,    28.33,    32.87,    31.58,    31.29
       75.0,      30.89,    28.16,    32.76,    31.47,    31.17
       76.0,      30.77,    28.00,    32.66,    31.37,    31.04
       77.0,      30.64,    27.83,    32.56,    31.26,    30.92
       78.0,      30.52,    27.67,    32.46,    31.16,    30.79
       79.0,      30.40,    27.50,    32.36,    31.06,    30.67
       80.0,      30.28,    27.35,    32.27,    30.96,    30.55
       81.0,      30.16,    27.19,    32.17,    30.85,    30.43
       82.0,      30.04,    27.04,    32.07,    30.75,    30.31
       83.0,      29.93,    26.88,    31.97,    30.66,    30.19
       84.0,      29.81,    26.73,    31.88,    30.56,    30.08
       85.0,      29.70,    26.59,    31.78,    30.46,    29.96
       86.0,      29.58,    26.44,    31.68,    30.37,    29.85
       87.0,      29.47,    26.30,    31.59,    30.27,    29.74
       88.0,      29.36,    26.16,    31.49,    30.18,    29.62
       89.0,      29.25,    26.02,    31.40,    30.08,    29.51
       90.0,      29.14,    25.88,    31.30,    29.99,    29.40
       91.0,      29.04,    25.74,    31.21,    29.90,    29.30
       92.0,      28.93,    25.61,    31.12,    29.81,    29.19
       93.0,      28.83,    25.48,    31.03,    29.72,    29.08
       94.0,      28.72,    25.35,    30.93,    29.63,    28.98
       95.0,      28.62,    25.22,    30.84,    29.54,    28.87
       96.0,      28.51,    25.09,    30.75,    29.45,    28.77
       97.0,      28.41,    24.97,    30.66,    29.36,    28.66
       98.0,      28.31,    24.84,    30.57,    29.28,    28.56
       99.0,      28.21,    24.72,    30.48,    29.19,    28.46
      100.0,      28.11,    24.60,    30.39,    29.10,    28.36
      101.0,      28.02,    24.48,    30.30,    29.02,    28.26
      102.0,      27.92,    24.36,    30.21,    28.93,    28.17
      103.0,      27.82,    24.25,    30.12,    28.85,    28.07
      104.0,      27.73,    24.13,    30.04,    28.77,    27.97
      105.0,      27.63,    24.02,    29.95,    28.68,    27.88
      106.0,      27.54,    23.91,    29.86,    28.60,    27.78
      107.0,      27.45,    23.80,    29.78,    28.52,    27.69
      108.0,      27.35,    23.69,    29.69,    28.44,    27.60
      109.0,      27.26,    23.58,    29.60,    28.36,    27.51
      110.0,      27.17,    23.48,    29.52,    28.28,    27.42
      111.0,      27.08,    23.37,    29.43,    28.20,    27.33
      112.0,      26.99,    23.27,    29.35,    28.12,    27.24
      113.0,      26.90,    23.17,    29.27,    28.04,    27.15
      114.0,      26.82,    23.06,    29.18,    27.96,    27.06
      115.0,      26.73,    22.96,    29.10,    27.88,    26.97
      116.0,      26.64,    22.87,    29.02,    27.80,    26.89
      117.0,      26.56,    22.77,    28.93,    27.72,    26.80
      118.0,      26.47,    22.67,    28.85,    27.65,    26.72
      119.0,      26.39,    22.58,    28.77,    27.57,    26.64
      120.0,      26.30,    22.48,    28.69,    27.49,    26.55
      121.0,      26.22,    22.39,    28.61,    27.42,    26.47
      122.0,      26.14,    22.30,    28.53,    27.34,    26.39
      123.0,      26.06,    22.21,    28.45,    27.27,    26.31
      124.0,      25.98,    22.11,    28.37,    27.19,    26.23
      125.0,      25.89,    22.03,    28.29,    27.12,    26.15
      126.0,      25.81,    21.94,    28.21,    27.04,    26.07
      127.0,      25.74,    21.85,    28.13,    26.97,    25.99
      128.0,      25.66,    21.76,    28.05,    26.89,    25.92
      129.0,      25.58,    21.68,    27.97,    26.82,    25.84
      130.0,      25.50,    21.59,    27.90,    26.75,    25.76
      131.0,      25.42,    21.51,    27.82,    26.67,    25.69
      132.0,      25.35,    21.43,    27.74,    26.60,    25.61
      133.0,      25.27,    21.34,    27.67,    26.53,    25.54
      134.0,      25.19,    21.26,    27.59,    26.46,    25.47
      135.0,      25.12,    21.18,    27.51,    26.38,    25.39
      136.0,      25.04,    21.10,    27.44,    26.31,    25.32
      137.0,      24.97,    21.03,    27.36,    26.24,    25.25
      138.0,      24.90,    20.95,    27.29,    26.17,    25.18
      139.0,      24.82,    20.87,    27.21,    26.10,    25.11
      140.0,      24.75,    20.79,    27.14,    26.03,    25.04
      141.0,      24.68,    20.72,    27.07,    25.96,    24.97
      142.0,      24.61,    20.64,    26.99,    25.89,    24.90
      143.0,      24.54,    20.57,    26.92,    25.82,    24.83
      144.0,      24.46,    20.49,    26.85,    25.75,    24.77
      145.0,      24.39,    20.42,    26.77,    25.68,    24.70
      146.0,      24.32,    20.35,    26.70,    25.61,    24.63
      147.0,      24.26,    20.28,    26.63,    25.54,    24.57
      148.0,      24.19,    20.21,    26.56,    25.47,    24.50
      149.0,      24.12,    20.14,    26.49,    25.41,    24.44
      150.0,      24.05,    20.07,    26.42,    25.34,    24.38
      151.0,      23.98,    20.00,    26.35,    25.27,    24.31
      152.0,      23.91,    19.93,    26.28,    25.20,    24.25
      153.0,      23.85,    19.86,    26.21,    25.14,    24.19
      154.0,      23.78,    19.79,    26.14,    25.07,    24.13
      155.0,      23.71,    19.73,    26.07,    25.00,    24.06
      156.0,      23.65,    19.66,    26.00,    24.93,    24.00
      157.0,      23.58,    19.59,    25.93,    24.87,    23.94
      158.0,      23.52,    19.53,    25.86,    24.80,    23.88
      159.0,      23.45,    19.47,    25.79,    24.74,    23.82
      160.0,      23.39,    19.40,    25.72,    24.67,    23.76
      161.0,      23.33,    19.34,    25.66,    24.60,    23.71
      162.0,      23.26,    19.27,    25.59,    24.54,    23.65
      163.0,      23.20,    19.21,    25.52,    24.47,    23.59
      164.0,      23.14,    19.15,    25.46,    24.41,    23.53
      165.0,      23.07,    19.09,    25.39,    24.34,    23.48
      166.0,      23.01,    19.03,    25.32,    24.28,    23.42
      167.0,      22.95,    18.97,    25.26,    24.21,    23.36
      168.0,      22.89,    18.91,    25.19,    24.15,    23.31
      169.0,      22.83,    18.85,    25.13,    24.09,    23.25
      170.0,      22.77,    18.79,    25.06,    24.02,    23.20
      171.0,      22.71,    18.73,    25.00,    23.96,    23.15
      172.0,      22.65,    18.67,    24.93,    23.90,    23.09
      173.0,      22.59,    18.61,    24.87,    23.83,    23.04
      174.0,      22.53,    18.55,    24.80,    23.77,    22.99
      175.0,      22.47,    18.50,    24.74,    23.71,    22.93
      176.0,      22.41,    18.44,    24.68,    23.64,    22.88
      177.0,      22.35,    18.38,    24.61,    23.58,    22.83
      178.0,      22.29,    18.33,    24.55,    23.52,    22.78
      179.0,      22.24,    18.27,    24.49,    23.46,    22.73
      180.0,      22.18,    18.22,    24.42,    23.39,    22.68
      181.0,      22.12,    18.16,    24.36,    23.33,    22.63
      182.0,      22.06,    18.11,    24.30,    23.27,    22.58
      183.0,      22.01,    18.05,    24.24,    23.21,    22.53
      184.0,      21.95,    18.00,    24.18,    23.15,    22.48
      185.0,      21.89,    17.95,    24.12,    23.09,    22.43
      186.0,      21.84,    17.89,    24.06,    23.02,    22.38
      187.0,      21.78,    17.84,    23.99,    22.96,    22.34
      188.0,      21.73,    17.79,    23.93,    22.90,    22.29
      189.0,      21.67,    17.74,    23.87,    22.84,    22.24
      190.0,      21.62,    17.68,    23.81,    22.78,    22.19
      191.0,      21.56,    17.63,    23.75,    22.72,    22.15
      192.0,      21.51,    17.58,    23.69,    22.66,    22.10
      193.0,      21.46,    17.53,    23.64,    22.60,    22.05
      194.0,      21.40,    17.48,    23.58,    22.54,    22.01
      195.0,      21.35,    17.43,    23.52,    22.48,    21.96
      196.0,      21.30,    17.38,    23.46,    22.42,    21.92
      197.0,      21.24,    17.33,    23.40,    22.37,    21.87
      198.0,      21.19,    17.28,    23.34,    22.31,    21.83
      199.0,      21.14,    17.23,    23.29,    22.25,    21.79
      200.0,      21.09,    17.18,    23.23,    22.19,    21.74
      201.0,      21.03,    17.13,    23.17,    22.13,    21.70
      202.0,      20.98,    17.09,    23.11,    22.07,    21.66
      203.0,      20.93,    17.04,    23.06,    22.01,    21.61
      204.0,      20.88,    16.99,    23.00,    21.96,    21.57
      205.0,      20.83,    16.94,    22.94,    21.90,    21.53
      206.0,      20.78,    16.89,    22.89,    21.84,    21.49
      207.0,      20.73,    16.85,    22.83,    21.78,    21.44
      208.0,      20.68,    16.80,    22.78,    21.72,    21.40
      209.0,      20.63,    16.75,    22.72,    21.67,    21.36
      210.0,      20.58,    16.71,    22.66,    21.61,    21.32
      211.0,      20.53,    16.66,    22.61,    21.55,    21.28
      212.0,      20.48,    16.62,    22.55,    21.50,    21.24
      213.0,      20.43,    16.57,    22.50,    21.44,    21.20
      214.0,      20.38,    16.53,    22.44,    21.38,    21.16
      215.0,      20.33,    16.48,    22.39,    21.33,    21.12
      216.0,      20.28,    16.44,    22.34,    21.27,    21.08
      217.0,      20.23,    16.39,    22.28,    21.22,    21.04
      218.0,      20.18,    16.35,    22.23,    21.16,    21.00
      219.0,      20.14,    16.30,    22.18,    21.10,    20.97
      220.0,      20.09,    16.26,    22.12,    21.05,    20.93
      221.0,      20.04,    16.21,    22.07,    20.99,    20.89
      222.0,      19.99,    16.17,    22.02,    20.94,    20.85
      223.0,      19.95,    16.13,    21.96,    20.88,    20.81
      224.0,      19.90,    16.08,    21.91,    20.83,    20.78
      225.0,      19.85,    16.04,    21.86,    20.77,    20.74
      226.0,      19.81,    16.00,    21.81,    20.72,    20.70
      227.0,      19.76,    15.96,    21.75,    20.66,    20.67
      228.0,      19.71,    15.91,    21.70,    20.61,    20.63
      229.0,      19.67,    15.87,    21.65,    20.55,    20.59
      230.0,      19.62,    15.83,    21.60,    20.50,    20.56
      231.0,      19.58,    15.79,    21.55,    20.45,    20.52
      232.0,      19.53,    15.75,    21.50,    20.39,    20.49
      233.0,      19.49,    15.70,    21.45,    20.34,    20.45
      234.0,      19.44,    15.66,    21.40,    20.29,    20.42
      235.0,      19.39,    15.62,    21.35,    20.23,    20.38
      236.0,      19.35,    15.58,    21.30,    20.18,    20.35
      237.0,      19.31,    15.54,    21.25,    20.13,    20.31
      238.0,      19.26,    15.50,    21.20,    20.07,    20.28
      239.0,      19.22,    15.46,    21.15,    20.02,    20.24
      240.0,      19.17,    15.42,    21.10,    19.97,    20.21
      241.0,      19.13,    15.38,    21.05,    19.91,    20.18
      242.0,      19.09,    15.34,    21.00,    19.86,    20.14
      243.0,      19.04,    15.30,    20.95,    19.81,    20.11
      244.0,      19.00,    15.26,    20.90,    19.76,    20.08
      245.0,      18.95,    15.22,    20.85,    19.71,    20.04
      246.0,      18.91,    15.18,    20.80,    19.65,    20.01
      247.0,      18.87,    15.14,    20.75,    19.60,    19.98
      248.0,      18.83,    15.10,    20.71,    19.55,    19.95
      249.0,      18.78,    15.06,    20.66,    19.50,    19.91
      250.0,      18.74,    15.02,    20.61,    19.45,    19.88
      251.0,      18.70,    14.99,    20.56,    19.40,    19.85
      252.0,      18.66,    14.95,    20.52,    19.35,    19.82
      253.0,      18.61,    14.91,    20.47,    19.29,    19.79
      254.0,      18.57,    14.87,    20.42,    19.24,    19.75
      255.0,      18.53,    14.83,    20.37,    19.19,    19.72
      256.0,      18.49,    14.79,    20.33,    19.14,    19.69
      257.0,      18.45,    14.76,    20.28,    19.09,    19.66
      258.0,      18.41,    14.72,    20.23,    19.04,    19.63
      259.0,      18.37,    14.68,    20.19,    18.99,    19.60
      260.0,      18.32,    14.64,    20.14,    18.94,    19.57
      261.0,      18.28,    14.61,    20.10,    18.89,    19.54
      262.0,      18.24,    14.57,    20.05,    18.84,    19.51
      263.0,      18.20,    14.53,    20.01,    18.79,    19.48
      264.0,      18.16,    14.50,    19.96,    18.74,    19.45
      265.0,      18.12,    14.46,    19.91,    18.69,    19.42
      266.0,      18.08,    14.42,    19.87,    18.64,    19.39
      267.0,      18.04,    14.39,    19.82,    18.60,    19.36
      268.0,      18.00,    14.35,    19.78,    18.55,    19.33
      269.0,      17.96,    14.31,    19.73,    18.50,    19.30
      270.0,      17.92,    14.28,    19.69,    18.45,    19.27
      271.0,      17.88,    14.24,    19.65,    18.40,    19.25
      272.0,      17.84,    14.21,    19.60,    18.35,    19.22
      273.0,      17.81,    14.17,    19.56,    18.30,    19.19
      274.0,      17.77,    14.14,    19.51,    18.26,    19.16
      275.0,      17.73,    14.10,    19.47,    18.21,    19.13
      276.0,      17.69,    14.06,    19.43,    18.16,    19.10
      277.0,      17.65,    14.03,    19.38,    18.11,    19.08
      278.0,      17.61,    13.99,    19.34,    18.06,    19.05
      279.0,      17.57,    13.96,    19.30,    18.02,    19.02
      280.0,      17.53,    13.92,    19.25,    17.97,    18.99
      281.0,      17.50,    13.89,    19.21,    17.92,    18.97
      282.0,      17.46,    13.85,    19.17,    17.88,    18.94
      283.0,      17.42,    13.82,    19.12,    17.83,    18.91
      284.0,      17.38,    13.79,    19.08,    17.78,    18.88
      285.0,      17.35,    13.75,    19.04,    17.73,    18.86
      286.0,      17.31,    13.72,    19.00,    17.69,    18.83
      287.0,      17.27,    13.68,    18.95,    17.64,    18.80
      288.0,      17.23,    13.65,    18.91,    17.60,    18.78
      289.0,      17.20,    13.62,    18.87,    17.55,    18.75
      290.0,      17.16,    13.58,    18.83,    17.50,    18.72
      291.0,      17.12,    13.55,    18.79,    17.46,    18.70
      292.0,      17.09,    13.51,    18.75,    17.41,    18.67
      293.0,      17.05,    13.48,    18.70,    17.37,    18.65
      294.0,      17.01,    13.45,    18.66,    17.32,    18.62
      295.0,      16.98,    13.41,    18.62,    17.27,    18.59
      296.0,      16.94,    13.38,    18.58,    17.23,    18.57
      297.0,      16.90,    13.35,    18.54,    17.18,    18.54
      298.0,      16.87,    13.32,    18.50,    17.14,    18.52
      299.0,      16.83,    13.28,    18.46,    17.09,    18.49
      300.0,      16.80,    13.25,    18.42,    17.05,    18.47
      301.0,      16.76,    13.22,    18.38,    17.00,    18.44
      302.0,      16.72,    13.18,    18.34,    16.96,    18.42
      303.0,      16.69,    13.15,    18.30,    16.91,    18.39
      304.0,      16.65,    13.12,    18.26,    16.87,    18.37
      305.0,      16.62,    13.09,    18.22,    16.82,    18.34
      306.0,      16.58,    13.06,    18.18,    16.78,    18.32
      307.0,      16.55,    13.02,    18.14,    16.74,    18.29
      308.0,      16.51,    12.99,    18.10,    16.69,    18.27
      309.0,      16.48,    12.96,    18.06,    16.65,    18.24
      310.0,      16.44,    12.93,    18.02,    16.60,    18.22
