Radius (km), Mean (m/s), NE (m/s), SE (m/s), SW (m/s), NW (m/s)
        0.0,       0.00,     0.00,     0.00,     0.00,     0.00
        1.0,       2.03,     2.03,     2.03,     2.03,     2.03
        2.0,       3.57,     3.57,     3.57,     3.57,     3.57
        3.0,       4.96,     4.96,     4.96,     4.96,     4.96
        4.0,       6.26,     6.26,     6.26,     6.26,     6.26
        5.0,       7.50,     7.50,     7.50,     7.50,     7.50
        6.0,       8.70,     8.70,     8.70,     8.70,     8.70
        7.0,       9.86,     9.86,     9.86,     9.86,     9.86
        8.0,      10.99,    10.99,    10.99,    10.99,    10.99
        9.0,      12.09,    12.09,    12.09,    12.09,    12.09
       10.0,      13.17,    13.17,    13.17,    13.17,    13.17
       11.0,      14.22,    14.22,    14.22,    14.22,    14.22
       12.0,      15.26,    15.26,    15.26,    15.26,    15.26
       13.0,      16.29,    16.29,    16.29,    16.29,    16.29
       14.0,      17.30,    17.30,    17.30,    17.30,    17.30
       15.0,      18.29,    18.29,    18.29,    18.29,    18.29
       16.0,      19.27,    19.27,    19.27,    19.27,    19.27
       17.0,      20.25,    20.25,    20.25,    20.25,    20.25
       18.0,      21.21,    21.21,    21.21,    21.21,    21.21
       19.0,      22.16,    22.16,    22.16,    22.16,    22.16
       20.0,      23.10,    23.10,    23.10,    23.10,    23.10
       21.0,      24.03,    24.03,    24.03,    24.03,    24.04
       22.0,      24.98,    24.96,    24.97,    24.96,    25.02
       23.0,      25.96,    25.92,    25.95,    25.91,    26.07
       24.0,      27.03,    26.96,    27.00,    26.92,    27.25
       25.0,      28.21,    28.11,    28.16,    28.01,    28.58
       26.0,      29.52,    29.40,    29.43,    29.19,    30.05
       27.0,      30.93,    30.83,    30.79,    30.46,    31.62
       28.0,      32.39,    32.34,    32.22,    31.79,    33.22
       29.0,      33.85,    33.87,    33.63,    33.13,    34.77
       30.0,      35.21,    35.33,    34.96,    34.41,    36.16
       31.0,      36.41,    36.62,    36.13,    35.56,    37.32
       32.0,      37.36,    37.65,    37.08,    36.54,    38.18
       33.0,      38.04,    38.38,    37.77,    37.30,    38.72
       34.0,      38.43,    38.76,    38.20,    37.81,    38.94
       35.0,      38.54,    38.81,    38.36,    38.10,    38.87
       36.0,      38.40,    38.57,    38.31,    38.17,    38.56
       37.0,      38.09,    38.10,    38.08,    38.08,    38.09
       38.0,      37.65,    37.46,    37.75,    37.87,    37.53
       39.0,      37.16,    36.75,    37.35,    37.60,    36.92
       40.0,      36.65,    36.01,    36.95,    37.30,    36.32
       41.0,      36.15,    35.29,    36.55,    37.01,    35.75
       42.0,      35.68,    34.61,    36.18,    36.73,    35.21
       43.0,      35.24,    33.97,    35.83,    36.48,    34.69
       44.0,      34.82,    33.36,    35.50,    36.23,    34.19
       45.0,      34.42,    32.78,    35.17,    36.00,    33.72
       46.0,      34.03,    32.23,    34.86,    35.77,    33.26
       47.0,      33.65,    31.69,    34.56,    35.55,    32.82
       48.0,      33.29,    31.17,    34.27,    35.33,    32.39
       49.0,      32.94,    30.67,    33.99,    35.12,    31.98
       50.0,      32.60,    30.19,    33.71,    34.91,    31.59
       51.0,      32.27,    29.73,    33.45,    34.71,    31.21
       52.0,      31.96,    29.28,    33.19,    34.51,    30.84
       53.0,      31.65,    28.85,    32.95,    34.32,    30.49
       54.0,      31.36,    28.44,    32.71,    34.14,    30.15
       55.0,      31.07,    28.04,    32.47,    33.95,    29.82
       56.0,      30.80,    27.66,    32.25,    33.78,    29.51
       57.0,      30.53,    27.29,    32.03,    33.60,    29.20
       58.0,      30.27,    26.93,    31.82,    33.43,    28.91
       59.0,      30.02,    26.59,    31.61,    33.27,    28.63
       60.0,      29.78,    26.25,    31.41,    33.10,    28.36
       61.0,      29.55,    25.93,    31.22,    32.95,    28.09
       62.0,      29.32,    25.63,    31.03,    32.79,    27.84
       63.0,      29.10,    25.33,    30.85,    32.64,    27.60
       64.0,      28.89,    25.04,    30.67,    32.49,    27.36
       65.0,      28.69,    24.76,    30.50,    32.34,    27.14
       66.0,      28.49,    24.50,    30.33,    32.20,    26.92
       67.0,      28.29,    24.24,    30.17,    32.06,    26.71
       68.0,      28.11,    23.99,    30.01,    31.92,    26.50
       69.0,      27.93,    23.75,    29.86,    31.79,    26.31
       70.0,      27.75,    23.52,    29.71,    31.66,    26.12
       71.0,      27.58,    23.29,    29.57,    31.53,    25.94
       72.0,      27.41,    23.07,    29.42,    31.40,    25.76
       73.0,      27.25,    22.87,    29.29,    31.28,    25.59
       74.0,      27.10,    22.66,    29.15,    31.15,    25.43
       75.0,      26.95,    22.47,    29.02,    31.03,    25.27
       76.0,      26.80,    22.28,    28.89,    30.91,    25.11
       77.0,      26.66,    22.10,    28.77,    30.80,    24.97
       78.0,      26.52,    21.92,    28.65,    30.68,    24.82
       79.0,      26.38,    21.75,    28.53,    30.57,    24.68
       80.0,      26.25,    21.58,    28.41,    30.46,    24.55
       81.0,      26.12,    21.42,    28.30,    30.35,    24.42
       82.0,      26.00,    21.27,    28.19,    30.24,    24.29
       83.0,      25.88,    21.12,    28.08,    30.13,    24.17
       84.0,      25.76,    20.97,    27.98,    30.03,    24.06
       85.0,      25.64,    20.83,    27.87,    29.93,    23.94
       86.0,      25.53,    20.70,    27.77,    29.82,    23.83
       87.0,      25.42,    20.56,    27.67,    29.72,    23.73
       88.0,      25.31,    20.44,    27.58,    29.62,    23.62
       89.0,      25.21,    20.31,    27.48,    29.53,    23.52
       90.0,      25.11,    20.19,    27.39,    29.43,    23.43
       91.0,      25.01,    20.07,    27.30,    29.33,    23.33
       92.0,      24.91,    19.96,    27.21,    29.24,    23.24
       93.0,      24.82,    19.85,    27.12,    29.15,    23.15
       94.0,      24.73,    19.74,    27.03,    29.05,    23.07
       95.0,      24.63,    19.64,    26.95,    28.96,    22.99
       96.0,      24.55,    19.54,    26.87,    28.87,    22.91
       97.0,      24.46,    19.44,    26.79,    28.78,    22.83
       98.0,      24.37,    19.35,    26.71,    28.69,    22.75
       99.0,      24.29,    19.25,    26.63,    28.61,    22.68
      100.0,      24.21,    19.16,    26.55,    28.52,    22.61
      101.0,      24.13,    19.08,    26.47,    28.43,    22.54
      102.0,      24.05,    18.99,    26.40,    28.35,    22.47
      103.0,      23.98,    18.91,    26.32,    28.27,    22.40
      104.0,      23.90,    18.83,    26.25,    28.18,    22.34
      105.0,      23.83,    18.75,    26.18,    28.10,    22.28
      106.0,      23.75,    18.67,    26.11,    28.02,    22.21
      107.0,      23.68,    18.60,    26.04,    27.94,    22.16
      108.0,      23.61,    18.52,    25.97,    27.86,    22.10
      109.0,      23.54,    18.45,    25.90,    27.78,    22.04
      110.0,      23.48,    18.38,    25.84,    27.70,    21.99
      111.0,      23.41,    18.32,    25.77,    27.62,    21.93
      112.0,      23.34,    18.25,    25.71,    27.54,    21.88
      113.0,      23.28,    18.18,    25.64,    27.46,    21.83
      114.0,      23.22,    18.12,    25.58,    27.39,    21.78
      115.0,      23.15,    18.06,    25.52,    27.31,    21.73
      116.0,      23.09,    18.00,    25.46,    27.24,    21.68
      117.0,      23.03,    17.94,    25.39,    27.16,    21.64
      118.0,      22.97,    17.88,    25.33,    27.09,    21.59
      119.0,      22.91,    17.82,    25.27,    27.01,    21.55
      120.0,      22.86,    17.77,    25.22,    26.94,    21.50
      121.0,      22.80,    17.71,    25.16,    26.87,    21.46
      122.0,      22.74,    17.66,    25.10,    26.79,    21.42
      123.0,      22.69,    17.61,    25.04,    26.72,    21.38
      124.0,      22.63,    17.56,    24.98,    26.65,    21.34
      125.0,      22.58,    17.51,    24.93,    26.58,    21.30
      126.0,      22.52,    17.46,    24.87,    26.51,    21.26
      127.0,      22.47,    17.41,    24.82,    26.44,    21.22
      128.0,      22.42,    17.36,    24.76,    26.37,    21.18
      129.0,      22.37,    17.31,    24.71,    26.30,    21.15
      130.0,      22.31,    17.27,    24.65,    26.23,    21.11
      131.0,      22.26,    17.22,    24.60,    26.16,    21.08
      132.0,      22.21,    17.18,    24.55,    26.09,    21.04
      133.0,      22.16,    17.13,    24.49,    26.02,    21.01
      134.0,      22.11,    17.09,    24.44,    25.95,    20.97
      135.0,      22.07,    17.05,    24.39,    25.88,    20.94
      136.0,      22.02,    17.01,    24.34,    25.82,    20.91
      137.0,      21.97,    16.96,    24.29,    25.75,    20.88
      138.0,      21.92,    16.92,    24.24,    25.68,    20.84
      139.0,      21.87,    16.88,    24.19,    25.62,    20.81
      140.0,      21.83,    16.84,    24.14,    25.55,    20.78
      141.0,      21.78,    16.80,    24.09,    25.48,    20.75
      142.0,      21.74,    16.77,    24.04,    25.42,    20.72
      143.0,      21.69,    16.73,    23.99,    25.35,    20.69
      144.0,      21.65,    16.69,    23.94,    25.29,    20.66
      145.0,      21.60,    16.65,    23.89,    25.22,    20.64
      146.0,      21.56,    16.62,    23.84,    25.16,    20.61
      147.0,      21.51,    16.58,    23.79,    25.09,    20.58
      148.0,      21.47,    16.54,    23.75,    25.03,    20.55
      149.0,      21.42,    16.51,    23.70,    24.97,    20.52
      150.0,      21.38,    16.47,    23.65,    24.90,    20.50
      151.0,      21.34,    16.44,    23.60,    24.84,    20.47
      152.0,      21.30,    16.40,    23.56,    24.78,    20.44
      153.0,      21.25,    16.37,    23.51,    24.71,    20.42
      154.0,      21.21,    16.33,    23.46,    24.65,    20.39
      155.0,      21.17,    16.30,    23.42,    24.59,    20.36
      156.0,      21.13,    16.27,    23.37,    24.53,    20.34
      157.0,      21.09,    16.24,    23.33,    24.47,    20.31
      158.0,      21.04,    16.20,    23.28,    24.40,    20.29
      159.0,      21.00,    16.17,    23.24,    24.34,    20.26
      160.0,      20.96,    16.14,    23.19,    24.28,    20.24
      161.0,      20.92,    16.11,    23.14,    24.22,    20.21
      162.0,      20.88,    16.07,    23.10,    24.16,    20.19
      163.0,      20.84,    16.04,    23.06,    24.10,    20.17
      164.0,      20.80,    16.01,    23.01,    24.04,    20.14
      165.0,      20.76,    15.98,    22.97,    23.98,    20.12
      166.0,      20.72,    15.95,    22.92,    23.92,    20.09
      167.0,      20.68,    15.92,    22.88,    23.86,    20.07
      168.0,      20.64,    15.89,    22.83,    23.80,    20.05
      169.0,      20.60,    15.86,    22.79,    23.74,    20.02
      170.0,      20.56,    15.83,    22.75,    23.68,    20.00
      171.0,      20.53,    15.80,    22.70,    23.62,    19.98
      172.0,      20.49,    15.77,    22.66,    23.56,    19.96
      173.0,      20.45,    15.74,    22.62,    23.50,    19.93
      174.0,      20.41,    15.71,    22.57,    23.44,    19.91
      175.0,      20.37,    15.68,    22.53,    23.39,    19.89
      176.0,      20.33,    15.66,    22.49,    23.33,    19.87
      177.0,      20.30,    15.63,    22.45,    23.27,    19.84
      178.0,      20.26,    15.60,    22.40,    23.21,    19.82
      179.0,      20.22,    15.57,    22.36,    23.15,    19.80
      180.0,      20.18,    15.54,    22.32,    23.10,    19.78
      181.0,      20.15,    15.51,    22.28,    23.04,    19.76
      182.0,      20.11,    15.49,    22.24,    22.98,    19.74
      183.0,      20.07,    15.46,    22.19,    22.93,    19.71
      184.0,      20.04,    15.43,    22.15,    22.87,    19.69
      185.0,      20.00,    15.40,    22.11,    22.81,    19.67
      186.0,      19.96,    15.38,    22.07,    22.76,    19.65
      187.0,      19.93,    15.35,    22.03,    22.70,    19.63
      188.0,      19.89,    15.32,    21.99,    22.64,    19.61
      189.0,      19.85,    15.29,    21.95,    22.59,    19.59
      190.0,      19.82,    15.27,    21.90,    22.53,    19.57
      191.0,      19.78,    15.24,    21.86,    22.48,    19.54
      192.0,      19.74,    15.21,    21.82,    22.42,    19.52
      193.0,      19.71,    15.19,    21.78,    22.36,    19.50
      194.0,      19.67,    15.16,    21.74,    22.31,    19.48
      195.0,      19.64,    15.13,    21.70,    22.25,    19.46
      196.0,      19.60,    15.11,    21.66,    22.20,    19.44
      197.0,      19.57,    15.08,    21.62,    22.14,    19.42
      198.0,      19.53,    15.06,    21.58,    22.09,    19.40
      199.0,      19.50,    15.03,    21.54,    22.03,    19.38
      200.0,      19.46,    15.00,    21.50,    21.98,    19.36
      201.0,      19.43,    14.98,    21.46,    21.93,    19.34
      202.0,      19.39,    14.95,    21.42,    21.87,    19.32
      203.0,      19.36,    14.93,    21.38,    21.82,    19.30
      204.0,      19.32,    14.90,    21.34,    21.76,    19.28
      205.0,      19.29,    14.88,    21.30,    21.71,    19.26
      206.0,      19.25,    14.85,    21.26,    21.66,    19.24
      207.0,      19.22,    14.82,    21.22,    21.60,    19.22
      208.0,      19.18,    14.80,    21.18,    21.55,    19.20
      209.0,      19.15,    14.77,    21.14,    21.50,    19.18
      210.0,      19.11,    14.75,    21.10,    21.44,    19.16
      211.0,      19.08,    14.72,    21.06,    21.39,    19.14
      212.0,      19.05,    14.70,    21.03,    21.34,    19.12
      213.0,      19.01,    14.67,    20.99,    21.29,    19.10
      214.0,      18.98,    14.65,    20.95,    21.23,    19.08
      215.0,      18.94,    14.62,    20.91,    21.18,    19.06
      216.0,      18.91,    14.60,    20.87,    21.13,    19.04
      217.0,      18.88,    14.57,    20.83,    21.08,    19.02
      218.0,      18.84,    14.55,    20.79,    21.03,    19.00
      219.0,      18.81,    14.52,    20.76,    20.97,    18.98
      220.0,      18.78,    14.50,    20.72,    20.92,    18.97
      221.0,      18.74,    14.48,    20.68,    20.87,    18.95
      222.0,      18.71,    14.45,    20.64,    20.82,    18.93
      223.0,      18.68,    14.43,    20.60,    20.77,    18.91
      224.0,      18.64,    14.40,    20.56,    20.72,    18.89
      225.0,      18.61,    14.38,    20.53,    20.67,    18.87
      226.0,      18.58,    14.35,    20.49,    20.61,    18.85
      227.0,      18.54,    14.33,    20.45,    20.56,    18.83
      228.0,      18.51,    14.31,    20.41,    20.51,    18.81
      229.0,      18.48,    14.28,    20.38,    20.46,    18.79
      230.0,      18.45,    14.26,    20.34,    20.41,    18.77
      231.0,      18.41,    14.23,    20.30,    20.36,    18.75
      232.0,      18.38,    14.21,    20.26,    20.31,    18.74
      233.0,      18.35,    14.19,    20.23,    20.26,    18.72
      234.0,      18.32,    14.16,    20.19,    20.21,    18.70
      235.0,      18.28,    14.14,    20.15,    20.16,    18.68
      236.0,      18.25,    14.11,    20.11,    20.11,    18.66
      237.0,      18.22,    14.09,    20.08,    20.06,    18.64
      238.0,      18.19,    14.07,    20.04,    20.01,    18.62
      239.0,      18.15,    14.04,    20.00,    19.97,    18.60
      240.0,      18.12,    14.02,    19.97,    19.92,    18.58
      241.0,      18.09,    14.00,    19.93,    19.87,    18.57
      242.0,      18.06,    13.97,    19.89,    19.82,    18.55
      243.0,      18.03,    13.95,    19.86,    19.77,    18.53
      244.0,      17.99,    13.93,    19.82,    19.72,    18.51
      245.0,      17.96,    13.90,    19.78,    19.67,    18.49
      246.0,      17.93,    13.88,    19.75,    19.62,    18.47
      247.0,      17.90,    13.86,    19.71,    19.58,    18.45
      248.0,      17.87,    13.83,    19.68,    19.53,    18.43
      249.0,      17.84,    13.81,    19.64,    19.48,    18.42
      250.0,      17.81,    13.79,    19.60,    19.43,    18.40
      251.0,      17.77,    13.77,    19.57,    19.38,    18.38
      252.0,      17.74,    13.74,    19.53,    19.34,    18.36
      253.0,      17.71,    13.72,    19.49,    19.29,    18.34
      254.0,      17.68,    13.70,    19.46,    19.24,    18.32
      255.0,      17.65,    13.67,    19.42,    19.19,    18.31
      256.0,      17.62,    13.65,    19.39,    19.15,    18.29
      257.0,      17.59,    13.63,    19.35,    19.10,    18.27
      258.0,      17.56,    13.61,    19.32,    19.05,    18.25
      259.0,      17.53,    13.58,    19.28,    19.01,    18.23
      260.0,      17.49,    13.56,    19.25,    18.96,    18.21
      261.0,      17.46,    13.54,    19.21,    18.91,    18.20
      262.0,      17.43,    13.52,    19.17,    18.87,    18.18
      263.0,      17.40,    13.49,    19.14,    18.82,    18.16
      264.0,      17.37,    13.47,    19.10,    18.77,    18.14
      265.0,      17.34,    13.45,    19.07,    18.73,    18.12
      266.0,      17.31,    13.43,    19.03,    18.68,    18.10
      267.0,      17.28,    13.40,    19.00,    18.64,    18.09
      268.0,      17.25,    13.38,    18.96,    18.59,    18.07
      269.0,      17.22,    13.36,    18.93,    18.54,    18.05
      270.0,      17.19,    13.34,    18.89,    18.50,    18.03
      271.0,      17.16,    13.31,    18.86,    18.45,    18.01
      272.0,      17.13,    13.29,    18.83,    18.41,    18.00
      273.0,      17.10,    13.27,    18.79,    18.36,    17.98
      274.0,      17.07,    13.25,    18.76,    18.32,    17.96
      275.0,      17.04,    13.23,    18.72,    18.27,    17.94
      276.0,      17.01,    13.20,    18.69,    18.23,    17.92
      277.0,      16.98,    13.18,    18.65,    18.18,    17.91
      278.0,      16.95,    13.16,    18.62,    18.14,    17.89
      279.0,      16.92,    13.14,    18.58,    18.09,    17.87
      280.0,      16.89,    13.12,    18.55,    18.05,    17.85
      281.0,      16.86,    13.10,    18.52,    18.01,    17.83
      282.0,      16.83,    13.07,    18.48,    17.96,    17.82
      283.0,      16.80,    13.05,    18.45,    17.92,    17.80
      284.0,      16.77,    13.03,    18.42,    17.87,    17.78
      285.0,      16.75,    13.01,    18.38,    17.83,    17.76
      286.0,      16.72,    12.99,    18.35,    17.79,    17.74
      287.0,      16.69,    12.97,    18.31,    17.74,    17.73
      288.0,      16.66,    12.94,    18.28,    17.70,    17.71
      289.0,      16.63,    12.92,    18.25,    17.66,    17.69
      290.0,      16.60,    12.90,    18.21,    17.61,    17.67
      291.0,      16.57,    12.88,    18.18,    17.57,    17.66
      292.0,      16.54,    12.86,    18.15,    17.53,    17.64
      293.0,      16.51,    12.84,    18.11,    17.48,    17.62
      294.0,      16.48,    12.82,    18.08,    17.44,    17.60
      295.0,      16.46,    12.79,    18.05,    17.40,    17.59
      296.0,      16.43,    12.77,    18.01,    17.35,    17.57
      297.0,      16.40,    12.75,    17.98,    17.31,    17.55
      298.0,      16.37,    12.73,    17.95,    17.27,    17.53
      299.0,      16.34,    12.71,    17.91,    17.23,    17.52
      300.0,      16.31,    12.69,    17.88,    17.18,    17.50
      301.0,      16.28,    12.67,    17.85,    17.14,    17.48
      302.0,      16.26,    12.65,    17.82,    17.10,    17.46
      303.0,      16.23,    12.63,    17.78,    17.06,    17.45
      304.0,      16.20,    12.60,    17.75,    17.02,    17.43
      305.0,      16.17,    12.58,    17.72,    16.97,    17.41
      306.0,      16.14,    12.56,    17.69,    16.93,    17.39
      307.0,      16.12,    12.54,    17.65,    16.89,    17.38
      308.0,      16.09,    12.52,    17.62,    16.85,    17.36
      309.0,      16.06,    12.50,    17.59,    16.81,    17.34
      310.0,      16.03,    12.48,    17.56,    16.77,    17.32
