Radius (km), Mean (m/s), NE (m/s), SE (m/s), SW (m/s), NW (m/s)
        0.0,       0.00,     0.00,     0.00,     0.00,     0.00
        1.0,       1.28,     1.30,     1.26,     1.28,     1.28
        2.0,       2.20,     2.22,     2.17,     2.20,     2.20
        3.0,       3.01,     3.04,     2.98,     3.01,     3.01
        4.0,       3.76,     3.79,     3.74,     3.76,     3.76
        5.0,       4.47,     4.50,     4.45,     4.47,     4.47
        6.0,       5.15,     5.18,     5.13,     5.15,     5.15
        7.0,       5.81,     5.83,     5.79,     5.81,     5.81
        8.0,       6.44,     6.46,     6.43,     6.44,     6.44
        9.0,       7.06,     7.07,     7.05,     7.06,     7.06
       10.0,       7.66,     7.67,     7.66,     7.66,     7.66
       11.0,       8.25,     8.25,     8.25,     8.25,     8.25
       12.0,       8.83,     8.82,     8.83,     8.83,     8.83
       13.0,       9.40,     9.38,     9.41,     9.40,     9.40
       14.0,       9.95,     9.93,     9.97,     9.95,     9.95
       15.0,      10.50,    10.48,    10.52,    10.50,    10.50
       16.0,      11.04,    11.01,    11.07,    11.04,    11.04
       17.0,      11.57,    11.54,    11.61,    11.57,    11.57
       18.0,      12.10,    12.05,    12.14,    12.10,    12.10
       19.0,      12.62,    12.57,    12.66,    12.62,    12.62
       20.0,      13.13,    13.07,    13.18,    13.13,    13.13
       21.0,      13.64,    13.57,    13.70,    13.64,    13.64
       22.0,      14.14,    14.07,    14.20,    14.14,    14.14
       23.0,      14.63,    14.56,    14.71,    14.63,    14.63
       24.0,      15.12,    15.04,    15.21,    15.13,    15.13
       25.0,      15.61,    15.52,    15.70,    15.61,    15.61
       26.0,      16.09,    16.00,    16.19,    16.10,    16.10
       27.0,      16.57,    16.47,    16.68,    16.57,    16.57
       28.0,      17.05,    16.94,    17.16,    17.05,    17.05
       29.0,      17.52,    17.40,    17.64,    17.52,    17.52
       30.0,      17.99,    17.86,    18.11,    17.99,    17.99
       31.0,      18.45,    18.32,    18.58,    18.45,    18.45
       32.0,      18.91,    18.77,    19.05,    18.91,    18.91
       33.0,      19.37,    19.22,    19.52,    19.37,    19.37
       34.0,      19.82,    19.67,    19.98,    19.82,    19.82
       35.0,      20.27,    20.11,    20.44,    20.27,    20.27
       36.0,      20.72,    20.55,    20.89,    20.72,    20.72
       37.0,      21.17,    20.99,    21.35,    21.17,    21.17
       38.0,      21.61,    21.42,    21.80,    21.61,    21.61
       39.0,      22.05,    21.86,    22.25,    22.05,    22.05
       40.0,      22.49,    22.29,    22.69,    22.49,    22.49
       41.0,      22.92,    22.71,    23.13,    22.93,    22.93
       42.0,      23.36,    23.14,    23.58,    23.36,    23.36
       43.0,      23.79,    23.56,    24.01,    23.79,    23.79
       44.0,      24.22,    23.98,    24.45,    24.22,    24.22
       45.0,      24.64,    24.40,    24.88,    24.64,    24.64
       46.0,      25.07,    24.82,    25.32,    25.07,    25.07
       47.0,      25.49,    25.23,    25.75,    25.49,    25.49
       48.0,      25.91,    25.64,    26.18,    25.91,    25.91
       49.0,      26.33,    26.05,    26.60,    26.33,    26.33
       50.0,      26.74,    26.46,    27.03,    26.75,    26.75
       51.0,      27.16,    26.87,    27.45,    27.16,    27.16
       52.0,      27.57,    27.27,    27.87,    27.57,    27.57
       53.0,      27.98,    27.68,    28.29,    27.98,    27.98
       54.0,      28.39,    28.08,    28.71,    28.39,    28.39
       55.0,      28.80,    28.48,    29.12,    28.80,    28.80
       56.0,      29.21,    28.87,    29.54,    29.21,    29.21
       57.0,      29.61,    29.27,    29.95,    29.61,    29.61
       58.0,      30.01,    29.66,    30.36,    30.01,    30.01
       59.0,      30.41,    30.06,    30.77,    30.41,    30.41
       60.0,      30.82,    30.45,    31.18,    30.82,    30.82
       61.0,      31.25,    30.86,    31.61,    31.25,    31.26
       62.0,      31.71,    31.31,    32.06,    31.71,    31.74
       63.0,      32.22,    31.82,    32.57,    32.22,    32.29
       64.0,      32.80,    32.39,    33.14,    32.77,    32.90
       65.0,      33.43,    33.03,    33.76,    33.35,    33.57
       66.0,      34.08,    33.71,    34.41,    33.96,    34.26
       67.0,      34.73,    34.40,    35.06,    34.55,    34.93
       68.0,      35.33,    35.03,    35.66,    35.09,    35.54
       69.0,      35.84,    35.57,    36.19,    35.57,    36.04
       70.0,      36.23,    35.97,    36.60,    35.94,    36.41
       71.0,      36.47,    36.20,    36.86,    36.20,    36.61
       72.0,      36.55,    36.24,    36.98,    36.33,    36.65
       73.0,      36.49,    36.12,    36.95,    36.36,    36.55
       74.0,      36.31,    35.84,    36.79,    36.30,    36.32
       75.0,      36.04,    35.45,    36.54,    36.17,    36.00
       76.0,      35.71,    34.98,    36.23,    36.00,    35.63
       77.0,      35.35,    34.48,    35.89,    35.80,    35.24
       78.0,      34.99,    33.97,    35.54,    35.60,    34.85
       79.0,      34.65,    33.49,    35.21,    35.41,    34.49
       80.0,      34.33,    33.03,    34.90,    35.22,    34.14
       81.0,      34.02,    32.61,    34.61,    35.05,    33.82
       82.0,      33.73,    32.20,    34.33,    34.87,    33.51
       83.0,      33.45,    31.81,    34.07,    34.70,    33.21
       84.0,      33.17,    31.43,    33.81,    34.53,    32.92
       85.0,      32.91,    31.06,    33.56,    34.36,    32.64
       86.0,      32.65,    30.71,    33.32,    34.20,    32.38
       87.0,      32.40,    30.37,    33.08,    34.03,    32.12
       88.0,      32.16,    30.04,    32.85,    33.87,    31.86
       89.0,      31.92,    29.72,    32.63,    33.70,    31.62
       90.0,      31.69,    29.41,    32.42,    33.54,    31.39
       91.0,      31.47,    29.11,    32.21,    33.39,    31.16
       92.0,      31.25,    28.82,    32.01,    33.23,    30.94
       93.0,      31.04,    28.54,    31.82,    33.07,    30.73
       94.0,      30.83,    28.26,    31.63,    32.92,    30.52
       95.0,      30.63,    28.00,    31.44,    32.76,    30.32
       96.0,      30.44,    27.74,    31.26,    32.61,    30.13
       97.0,      30.25,    27.50,    31.09,    32.46,    29.95
       98.0,      30.06,    27.26,    30.92,    32.31,    29.77
       99.0,      29.88,    27.02,    30.76,    32.17,    29.59
      100.0,      29.71,    26.80,    30.59,    32.02,    29.42
      101.0,      29.54,    26.58,    30.44,    31.87,    29.26
      102.0,      29.37,    26.37,    30.29,    31.73,    29.10
      103.0,      29.21,    26.17,    30.14,    31.59,    28.95
      104.0,      29.05,    25.97,    30.00,    31.45,    28.80
      105.0,      28.90,    25.77,    29.86,    31.31,    28.65
      106.0,      28.75,    25.59,    29.72,    31.17,    28.51
      107.0,      28.60,    25.41,    29.58,    31.03,    28.38
      108.0,      28.46,    25.23,    29.45,    30.90,    28.24
      109.0,      28.32,    25.06,    29.33,    30.76,    28.11
      110.0,      28.18,    24.89,    29.20,    30.63,    27.99
      111.0,      28.05,    24.73,    29.08,    30.50,    27.87
      112.0,      27.92,    24.58,    28.96,    30.37,    27.75
      113.0,      27.79,    24.42,    28.85,    30.24,    27.64
      114.0,      27.66,    24.28,    28.74,    30.11,    27.52
      115.0,      27.54,    24.13,    28.63,    29.99,    27.42
      116.0,      27.42,    23.99,    28.52,    29.86,    27.31
      117.0,      27.30,    23.86,    28.41,    29.73,    27.21
      118.0,      27.19,    23.73,    28.31,    29.61,    27.11
      119.0,      27.08,    23.60,    28.21,    29.49,    27.01
      120.0,      26.97,    23.47,    28.11,    29.37,    26.91
      121.0,      26.86,    23.35,    28.01,    29.25,    26.82
      122.0,      26.75,    23.23,    27.91,    29.13,    26.73
      123.0,      26.65,    23.12,    27.82,    29.01,    26.64
      124.0,      26.55,    23.01,    27.73,    28.89,    26.56
      125.0,      26.45,    22.90,    27.64,    28.78,    26.47
      126.0,      26.35,    22.79,    27.55,    28.66,    26.39
      127.0,      26.25,    22.69,    27.46,    28.55,    26.31
      128.0,      26.16,    22.59,    27.38,    28.44,    26.23
      129.0,      26.07,    22.49,    27.29,    28.32,    26.16
      130.0,      25.97,    22.39,    27.21,    28.21,    26.08
      131.0,      25.89,    22.30,    27.13,    28.10,    26.01
      132.0,      25.80,    22.21,    27.05,    28.00,    25.94
      133.0,      25.71,    22.12,    26.97,    27.89,    25.87
      134.0,      25.63,    22.03,    26.89,    27.78,    25.80
      135.0,      25.54,    21.95,    26.82,    27.68,    25.73
      136.0,      25.46,    21.86,    26.74,    27.57,    25.66
      137.0,      25.38,    21.78,    26.67,    27.47,    25.60
      138.0,      25.30,    21.70,    26.59,    27.36,    25.54
      139.0,      25.22,    21.62,    26.52,    27.26,    25.47
      140.0,      25.14,    21.55,    26.45,    27.16,    25.41
      141.0,      25.07,    21.47,    26.38,    27.06,    25.35
      142.0,      24.99,    21.40,    26.31,    26.96,    25.29
      143.0,      24.92,    21.33,    26.24,    26.86,    25.23
      144.0,      24.84,    21.26,    26.18,    26.76,    25.18
      145.0,      24.77,    21.19,    26.11,    26.67,    25.12
      146.0,      24.70,    21.12,    26.04,    26.57,    25.07
      147.0,      24.63,    21.06,    25.98,    26.48,    25.01
      148.0,      24.56,    20.99,    25.91,    26.38,    24.96
      149.0,      24.49,    20.93,    25.85,    26.29,    24.90
      150.0,      24.43,    20.87,    25.79,    26.20,    24.85
      151.0,      24.36,    20.81,    25.73,    26.10,    24.80
      152.0,      24.29,    20.75,    25.66,    26.01,    24.75
      153.0,      24.23,    20.69,    25.60,    25.92,    24.70
      154.0,      24.16,    20.63,    25.54,    25.83,    24.65
      155.0,      24.10,    20.57,    25.48,    25.74,    24.60
      156.0,      24.04,    20.52,    25.42,    25.66,    24.56
      157.0,      23.98,    20.46,    25.36,    25.57,    24.51
      158.0,      23.91,    20.41,    25.31,    25.48,    24.46
      159.0,      23.85,    20.36,    25.25,    25.40,    24.41
      160.0,      23.79,    20.30,    25.19,    25.31,    24.37
      161.0,      23.73,    20.25,    25.13,    25.23,    24.32
      162.0,      23.68,    20.20,    25.08,    25.14,    24.28
      163.0,      23.62,    20.15,    25.02,    25.06,    24.24
      164.0,      23.56,    20.10,    24.97,    24.98,    24.19
      165.0,      23.50,    20.06,    24.91,    24.90,    24.15
      166.0,      23.45,    20.01,    24.86,    24.81,    24.11
      167.0,      23.39,    19.96,    24.80,    24.73,    24.06
      168.0,      23.33,    19.91,    24.75,    24.65,    24.02
      169.0,      23.28,    19.87,    24.69,    24.58,    23.98
      170.0,      23.23,    19.82,    24.64,    24.50,    23.94
      171.0,      23.17,    19.78,    24.59,    24.42,    23.90
      172.0,      23.12,    19.73,    24.54,    24.34,    23.86
      173.0,      23.06,    19.69,    24.48,    24.27,    23.82
      174.0,      23.01,    19.65,    24.43,    24.19,    23.78
      175.0,      22.96,    19.60,    24.38,    24.12,    23.74
      176.0,      22.91,    19.56,    24.33,    24.04,    23.70
      177.0,      22.86,    19.52,    24.28,    23.97,    23.66
      178.0,      22.81,    19.48,    24.23,    23.89,    23.62
      179.0,      22.76,    19.44,    24.18,    23.82,    23.58
      180.0,      22.70,    19.40,    24.13,    23.75,    23.54
      181.0,      22.66,    19.36,    24.08,    23.68,    23.51
      182.0,      22.61,    19.32,    24.03,    23.61,    23.47
      183.0,      22.56,    19.28,    23.98,    23.54,    23.43
      184.0,      22.51,    19.24,    23.93,    23.47,    23.39
      185.0,      22.46,    19.20,    23.88,    23.40,    23.36
      186.0,      22.41,    19.17,    23.83,    23.33,    23.32
      187.0,      22.36,    19.13,    23.78,    23.26,    23.28
      188.0,      22.32,    19.09,    23.73,    23.19,    23.25
      189.0,      22.27,    19.05,    23.69,    23.13,    23.21
      190.0,      22.22,    19.02,    23.64,    23.06,    23.18
      191.0,      22.18,    18.98,    23.59,    22.99,    23.14
      192.0,      22.13,    18.94,    23.54,    22.93,    23.11
      193.0,      22.08,    18.91,    23.49,    22.86,    23.07
      194.0,      22.04,    18.87,    23.45,    22.80,    23.04
      195.0,      21.99,    18.84,    23.40,    22.74,    23.00
      196.0,      21.95,    18.80,    23.35,    22.67,    22.97
      197.0,      21.90,    18.77,    23.31,    22.61,    22.93
      198.0,      21.86,    18.73,    23.26,    22.55,    22.90
      199.0,      21.82,    18.70,    23.21,    22.49,    22.86
      200.0,      21.77,    18.66,    23.17,    22.42,    22.83
      201.0,      21.73,    18.63,    23.12,    22.36,    22.79
      202.0,      21.68,    18.60,    23.08,    22.30,    22.76
      203.0,      21.64,    18.56,    23.03,    22.24,    22.73
      204.0,      21.60,    18.53,    22.99,    22.18,    22.69
      205.0,      21.55,    18.50,    22.94,    22.12,    22.66
      206.0,      21.51,    18.46,    22.90,    22.06,    22.63
      207.0,      21.47,    18.43,    22.85,    22.01,    22.59
      208.0,      21.43,    18.40,    22.81,    21.95,    22.56
      209.0,      21.39,    18.37,    22.76,    21.89,    22.53
      210.0,      21.34,    18.33,    22.72,    21.83,    22.49
      211.0,      21.30,    18.30,    22.67,    21.78,    22.46
      212.0,      21.26,    18.27,    22.63,    21.72,    22.43
      213.0,      21.22,    18.24,    22.58,    21.67,    22.39
      214.0,      21.18,    18.21,    22.54,    21.61,    22.36
      215.0,      21.14,    18.18,    22.49,    21.56,    22.33
      216.0,      21.10,    18.14,    22.45,    21.50,    22.30
      217.0,      21.06,    18.11,    22.41,    21.45,    22.26
      218.0,      21.02,    18.08,    22.36,    21.39,    22.23
      219.0,      20.98,    18.05,    22.32,    21.34,    22.20
      220.0,      20.94,    18.02,    22.28,    21.29,    22.17
      221.0,      20.90,    17.99,    22.23,    21.23,    22.14
      222.0,      20.86,    17.96,    22.19,    21.18,    22.10
      223.0,      20.82,    17.93,    22.15,    21.13,    22.07
      224.0,      20.78,    17.90,    22.10,    21.08,    22.04
      225.0,      20.74,    17.87,    22.06,    21.03,    22.01
      226.0,      20.70,    17.84,    22.02,    20.98,    21.98
      227.0,      20.67,    17.81,    21.98,    20.93,    21.95
      228.0,      20.63,    17.78,    21.93,    20.88,    21.92
      229.0,      20.59,    17.75,    21.89,    20.83,    21.88
      230.0,      20.55,    17.72,    21.85,    20.78,    21.85
      231.0,      20.51,    17.69,    21.81,    20.73,    21.82
      232.0,      20.47,    17.66,    21.76,    20.68,    21.79
      233.0,      20.44,    17.63,    21.72,    20.63,    21.76
      234.0,      20.40,    17.60,    21.68,    20.59,    21.73
      235.0,      20.36,    17.58,    21.64,    20.54,    21.70
      236.0,      20.33,    17.55,    21.60,    20.49,    21.67
      237.0,      20.29,    17.52,    21.56,    20.44,    21.64
      238.0,      20.25,    17.49,    21.51,    20.40,    21.61
      239.0,      20.21,    17.46,    21.47,    20.35,    21.58
      240.0,      20.18,    17.43,    21.43,    20.30,    21.54
      241.0,      20.14,    17.40,    21.39,    20.26,    21.51
      242.0,      20.11,    17.37,    21.35,    20.21,    21.48
      243.0,      20.07,    17.35,    21.31,    20.17,    21.45
      244.0,      20.03,    17.32,    21.27,    20.12,    21.42
      245.0,      20.00,    17.29,    21.23,    20.08,    21.39
      246.0,      19.96,    17.26,    21.19,    20.04,    21.36
      247.0,      19.93,    17.23,    21.15,    19.99,    21.33
      248.0,      19.89,    17.21,    21.10,    19.95,    21.30
      249.0,      19.85,    17.18,    21.06,    19.90,    21.27
      250.0,      19.82,    17.15,    21.02,    19.86,    21.24
      251.0,      19.78,    17.12,    20.98,    19.82,    21.21
      252.0,      19.75,    17.09,    20.94,    19.78,    21.18
      253.0,      19.71,    17.07,    20.90,    19.73,    21.15
      254.0,      19.68,    17.04,    20.86,    19.69,    21.12
      255.0,      19.64,    17.01,    20.82,    19.65,    21.09
      256.0,      19.61,    16.98,    20.78,    19.61,    21.06
      257.0,      19.58,    16.96,    20.74,    19.57,    21.03
      258.0,      19.54,    16.93,    20.70,    19.53,    21.00
      259.0,      19.51,    16.90,    20.66,    19.49,    20.97
      260.0,      19.47,    16.88,    20.62,    19.45,    20.95
      261.0,      19.44,    16.85,    20.59,    19.41,    20.92
      262.0,      19.41,    16.82,    20.55,    19.37,    20.89
      263.0,      19.37,    16.79,    20.51,    19.33,    20.86
      264.0,      19.34,    16.77,    20.47,    19.29,    20.83
      265.0,      19.30,    16.74,    20.43,    19.25,    20.80
      266.0,      19.27,    16.71,    20.39,    19.21,    20.77
      267.0,      19.24,    16.69,    20.35,    19.17,    20.74
      268.0,      19.20,    16.66,    20.31,    19.13,    20.71
      269.0,      19.17,    16.63,    20.27,    19.10,    20.68
      270.0,      19.14,    16.61,    20.23,    19.06,    20.65
      271.0,      19.11,    16.58,    20.20,    19.02,    20.62
      272.0,      19.07,    16.55,    20.16,    18.98,    20.60
      273.0,      19.04,    16.53,    20.12,    18.95,    20.57
      274.0,      19.01,    16.50,    20.08,    18.91,    20.54
      275.0,      18.97,    16.48,    20.04,    18.87,    20.51
      276.0,      18.94,    16.45,    20.00,    18.83,    20.48
      277.0,      18.91,    16.42,    19.96,    18.80,    20.45
      278.0,      18.88,    16.40,    19.93,    18.76,    20.42
      279.0,      18.85,    16.37,    19.89,    18.73,    20.39
      280.0,      18.81,    16.34,    19.85,    18.69,    20.37
      281.0,      18.78,    16.32,    19.81,    18.66,    20.34
      282.0,      18.75,    16.29,    19.77,    18.62,    20.31
      283.0,      18.72,    16.27,    19.74,    18.59,    20.28
      284.0,      18.69,    16.24,    19.70,    18.55,    20.25
      285.0,      18.65,    16.22,    19.66,    18.52,    20.22
      286.0,      18.62,    16.19,    19.62,    18.48,    20.20
      287.0,      18.59,    16.16,    19.59,    18.45,    20.17
      288.0,      18.56,    16.14,    19.55,    18.41,    20.14
      289.0,      18.53,    16.11,    19.51,    18.38,    20.11
      290.0,      18.50,    16.09,    19.48,    18.35,    20.08
      291.0,      18.47,    16.06,    19.44,    18.31,    20.06
      292.0,      18.44,    16.04,    19.40,    18.28,    20.03
      293.0,      18.40,    16.01,    19.36,    18.25,    20.00
      294.0,      18.37,    15.99,    19.33,    18.21,    19.97
      295.0,      18.34,    15.96,    19.29,    18.18,    19.94
      296.0,      18.31,    15.93,    19.25,    18.15,    19.92
      297.0,      18.28,    15.91,    19.22,    18.11,    19.89
      298.0,      18.25,    15.88,    19.18,    18.08,    19.86
      299.0,      18.22,    15.86,    19.14,    18.05,    19.83
      300.0,      18.19,    15.83,    19.11,    18.02,    19.80
      301.0,      18.16,    15.81,    19.07,    17.99,    19.78
      302.0,      18.13,    15.78,    19.03,    17.96,    19.75
      303.0,      18.10,    15.76,    19.00,    17.92,    19.72
      304.0,      18.07,    15.73,    18.96,    17.89,    19.69
      305.0,      18.04,    15.71,    18.93,    17.86,    19.67
      306.0,      18.01,    15.68,    18.89,    17.83,    19.64
      307.0,      17.98,    15.66,    18.85,    17.80,    19.61
      308.0,      17.95,    15.63,    18.82,    17.77,    19.58
      309.0,      17.92,    15.61,    18.78,    17.74,    19.56
      310.0,      17.89,    15.59,    18.75,    17.71,    19.53
