Radius (km), Mean (m/s), NE (m/s), SE (m/s), SW (m/s), NW (m/s)
        0.0,       0.00,     0.00,     0.00,     0.00,     0.00
        1.0,       2.21,     2.18,     2.29,     2.29,     2.09
        2.0,       3.62,     3.60,     3.67,     3.67,     3.53
        3.0,       4.82,     4.83,     4.84,     4.84,     4.79
        4.0,       5.92,     5.94,     5.89,     5.89,     5.95
        5.0,       6.93,     6.98,     6.86,     6.86,     7.04
        6.0,       7.89,     7.97,     7.76,     7.76,     8.08
        7.0,       8.81,     8.91,     8.62,     8.62,     9.07
        8.0,       9.68,     9.81,     9.45,     9.45,    10.03
        9.0,      10.53,    10.68,    10.24,    10.24,    10.96
       10.0,      11.35,    11.53,    11.00,    11.00,    11.87
       11.0,      12.14,    12.35,    11.74,    11.74,    12.75
       12.0,      12.92,    13.15,    12.45,    12.45,    13.62
       13.0,      13.68,    13.94,    13.15,    13.15,    14.47
       14.0,      14.42,    14.70,    13.83,    13.83,    15.30
       15.0,      15.14,    15.46,    14.50,    14.50,    16.11
       16.0,      15.85,    16.19,    15.15,    15.15,    16.92
       17.0,      16.55,    16.92,    15.79,    15.79,    17.71
       18.0,      17.24,    17.63,    16.42,    16.42,    18.49
       19.0,      17.92,    18.34,    17.04,    17.04,    19.26
       20.0,      18.58,    19.03,    17.64,    17.64,    20.02
       21.0,      19.24,    19.71,    18.24,    18.24,    20.77
       22.0,      19.90,    20.39,    18.83,    18.83,    21.53
       23.0,      20.56,    21.08,    19.43,    19.42,    22.33
       24.0,      21.26,    21.79,    20.04,    20.03,    23.19
       25.0,      22.01,    22.55,    20.69,    20.67,    24.12
       26.0,      22.82,    23.37,    21.39,    21.37,    25.14
       27.0,      23.67,    24.24,    22.13,    22.11,    26.22
       28.0,      24.57,    25.14,    22.89,    22.90,    27.33
       29.0,      25.46,    26.05,    23.66,    23.70,    28.42
       30.0,      26.31,    26.92,    24.40,    24.48,    29.43
       31.0,      27.08,    27.72,    25.08,    25.20,    30.31
       32.0,      27.73,    28.41,    25.67,    25.82,    31.02
       33.0,      28.24,    28.95,    26.14,    26.31,    31.54
       34.0,      28.59,    29.35,    26.49,    26.66,    31.87
       35.0,      28.80,    29.60,    26.72,    26.86,    32.01
       36.0,      28.86,    29.71,    26.84,    26.92,    31.99
       37.0,      28.82,    29.71,    26.86,    26.87,    31.86
       38.0,      28.71,    29.64,    26.82,    26.73,    31.65
       39.0,      28.55,    29.52,    26.74,    26.54,    31.41
       40.0,      28.38,    29.38,    26.64,    26.33,    31.15
       41.0,      28.20,    29.24,    26.55,    26.12,    30.90
       42.0,      28.03,    29.11,    26.45,    25.92,    30.66
       43.0,      27.87,    28.98,    26.37,    25.73,    30.43
       44.0,      27.72,    28.86,    26.28,    25.55,    30.20
       45.0,      27.57,    28.74,    26.20,    25.38,    29.98
       46.0,      27.43,    28.62,    26.12,    25.21,    29.76
       47.0,      27.28,    28.51,    26.04,    25.05,    29.54
       48.0,      27.14,    28.39,    25.96,    24.89,    29.33
       49.0,      27.00,    28.28,    25.88,    24.74,    29.12
       50.0,      26.86,    28.16,    25.80,    24.58,    28.91
       51.0,      26.73,    28.05,    25.72,    24.44,    28.71
       52.0,      26.59,    27.93,    25.64,    24.29,    28.51
       53.0,      26.46,    27.82,    25.56,    24.15,    28.31
       54.0,      26.33,    27.71,    25.48,    24.01,    28.12
       55.0,      26.20,    27.60,    25.40,    23.87,    27.93
       56.0,      26.07,    27.49,    25.32,    23.74,    27.74
       57.0,      25.95,    27.38,    25.25,    23.61,    27.55
       58.0,      25.82,    27.27,    25.17,    23.48,    27.37
       59.0,      25.70,    27.16,    25.09,    23.36,    27.19
       60.0,      25.58,    27.05,    25.02,    23.23,    27.01
       61.0,      25.46,    26.95,    24.94,    23.11,    26.84
       62.0,      25.34,    26.84,    24.86,    23.00,    26.67
       63.0,      25.23,    26.73,    24.79,    22.88,    26.50
       64.0,      25.11,    26.63,    24.71,    22.77,    26.33
       65.0,      25.00,    26.53,    24.64,    22.66,    26.17
       66.0,      24.88,    26.42,    24.56,    22.55,    26.01
       67.0,      24.77,    26.32,    24.49,    22.44,    25.85
       68.0,      24.66,    26.22,    24.41,    22.34,    25.69
       69.0,      24.56,    26.12,    24.34,    22.23,    25.54
       70.0,      24.45,    26.02,    24.27,    22.13,    25.38
       71.0,      24.34,    25.92,    24.19,    22.03,    25.23
       72.0,      24.24,    25.82,    24.12,    21.93,    25.09
       73.0,      24.14,    25.72,    24.05,    21.84,    24.94
       74.0,      24.03,    25.62,    23.98,    21.74,    24.80
       75.0,      23.93,    25.52,    23.90,    21.65,    24.66
       76.0,      23.83,    25.42,    23.83,    21.55,    24.52
       77.0,      23.73,    25.33,    23.76,    21.46,    24.38
       78.0,      23.64,    25.23,    23.69,    21.37,    24.25
       79.0,      23.54,    25.14,    23.62,    21.29,    24.11
       80.0,      23.44,    25.04,    23.55,    21.20,    23.98
       81.0,      23.35,    24.95,    23.48,    21.11,    23.85
       82.0,      23.26,    24.86,    23.41,    21.03,    23.73
       83.0,      23.16,    24.76,    23.34,    20.95,    23.60
       84.0,      23.07,    24.67,    23.27,    20.87,    23.48
       85.0,      22.98,    24.58,    23.20,    20.78,    23.36
       86.0,      22.89,    24.49,    23.13,    20.71,    23.24
       87.0,      22.80,    24.40,    23.06,    20.63,    23.12
       88.0,      22.71,    24.31,    23.00,    20.55,    23.00
       89.0,      22.63,    24.22,    22.93,    20.47,    22.89
       90.0,      22.54,    24.13,    22.86,    20.40,    22.77
       91.0,      22.45,    24.04,    22.79,    20.32,    22.66
       92.0,      22.37,    23.95,    22.73,    20.25,    22.55
       93.0,      22.29,    23.87,    22.66,    20.17,    22.44
       94.0,      22.20,    23.78,    22.59,    20.10,    22.34
       95.0,      22.12,    23.70,    22.53,    20.03,    22.23
       96.0,      22.04,    23.61,    22.46,    19.96,    22.13
       97.0,      21.96,    23.52,    22.40,    19.89,    22.02
       98.0,      21.88,    23.44,    22.33,    19.82,    21.92
       99.0,      21.80,    23.36,    22.26,    19.75,    21.82
      100.0,      21.72,    23.27,    22.20,    19.68,    21.73
      101.0,      21.64,    23.19,    22.14,    19.62,    21.63
      102.0,      21.57,    23.11,    22.07,    19.55,    21.53
      103.0,      21.49,    23.03,    22.01,    19.49,    21.44
      104.0,      21.41,    22.94,    21.94,    19.42,    21.35
      105.0,      21.34,    22.86,    21.88,    19.36,    21.25
      106.0,      21.26,    22.78,    21.82,    19.29,    21.16
      107.0,      21.19,    22.70,    21.75,    19.23,    21.08
      108.0,      21.12,    22.62,    21.69,    19.17,    20.99
      109.0,      21.04,    22.54,    21.63,    19.10,    20.90
      110.0,      20.97,    22.47,    21.57,    19.04,    20.82
      111.0,      20.90,    22.39,    21.50,    18.98,    20.73
      112.0,      20.83,    22.31,    21.44,    18.92,    20.65
      113.0,      20.76,    22.23,    21.38,    18.86,    20.57
      114.0,      20.69,    22.16,    21.32,    18.80,    20.48
      115.0,      20.62,    22.08,    21.26,    18.74,    20.40
      116.0,      20.55,    22.00,    21.20,    18.68,    20.33
      117.0,      20.48,    21.93,    21.14,    18.62,    20.25
      118.0,      20.42,    21.85,    21.08,    18.56,    20.17
      119.0,      20.35,    21.78,    21.02,    18.51,    20.10
      120.0,      20.28,    21.71,    20.96,    18.45,    20.02
      121.0,      20.22,    21.63,    20.90,    18.39,    19.95
      122.0,      20.15,    21.56,    20.84,    18.34,    19.87
      123.0,      20.09,    21.49,    20.78,    18.28,    19.80
      124.0,      20.02,    21.41,    20.72,    18.22,    19.73
      125.0,      19.96,    21.34,    20.66,    18.17,    19.66
      126.0,      19.89,    21.27,    20.60,    18.11,    19.59
      127.0,      19.83,    21.20,    20.54,    18.06,    19.52
      128.0,      19.77,    21.13,    20.48,    18.00,    19.46
      129.0,      19.71,    21.06,    20.43,    17.95,    19.39
      130.0,      19.64,    20.99,    20.37,    17.90,    19.33
      131.0,      19.58,    20.92,    20.31,    17.84,    19.26
      132.0,      19.52,    20.85,    20.25,    17.79,    19.20
      133.0,      19.46,    20.78,    20.20,    17.74,    19.13
      134.0,      19.40,    20.71,    20.14,    17.69,    19.07
      135.0,      19.34,    20.65,    20.08,    17.63,    19.01
      136.0,      19.28,    20.58,    20.03,    17.58,    18.95
      137.0,      19.23,    20.51,    19.97,    17.53,    18.89
      138.0,      19.17,    20.44,    19.92,    17.48,    18.83
      139.0,      19.11,    20.38,    19.86,    17.43,    18.77
      140.0,      19.05,    20.31,    19.80,    17.38,    18.71
      141.0,      18.99,    20.25,    19.75,    17.33,    18.66
      142.0,      18.94,    20.18,    19.69,    17.28,    18.60
      143.0,      18.88,    20.12,    19.64,    17.23,    18.54
      144.0,      18.82,    20.05,    19.58,    17.18,    18.49
      145.0,      18.77,    19.99,    19.53,    17.13,    18.43
      146.0,      18.71,    19.92,    19.48,    17.08,    18.38
      147.0,      18.66,    19.86,    19.42,    17.03,    18.33
      148.0,      18.60,    19.80,    19.37,    16.98,    18.27
      149.0,      18.55,    19.73,    19.31,    16.93,    18.22
      150.0,      18.50,    19.67,    19.26,    16.88,    18.17
      151.0,      18.44,    19.61,    19.21,    16.83,    18.12
      152.0,      18.39,    19.55,    19.15,    16.79,    18.07
      153.0,      18.34,    19.49,    19.10,    16.74,    18.02
      154.0,      18.28,    19.43,    19.05,    16.69,    17.97
      155.0,      18.23,    19.36,    19.00,    16.64,    17.92
      156.0,      18.18,    19.30,    18.94,    16.60,    17.87
      157.0,      18.13,    19.24,    18.89,    16.55,    17.83
      158.0,      18.08,    19.18,    18.84,    16.50,    17.78
      159.0,      18.03,    19.12,    18.79,    16.45,    17.73
      160.0,      17.97,    19.07,    18.74,    16.41,    17.69
      161.0,      17.92,    19.01,    18.69,    16.36,    17.64
      162.0,      17.87,    18.95,    18.64,    16.32,    17.60
      163.0,      17.82,    18.89,    18.58,    16.27,    17.55
      164.0,      17.77,    18.83,    18.53,    16.22,    17.51
      165.0,      17.73,    18.77,    18.48,    16.18,    17.47
      166.0,      17.68,    18.72,    18.43,    16.13,    17.42
      167.0,      17.63,    18.66,    18.38,    16.09,    17.38
      168.0,      17.58,    18.60,    18.33,    16.04,    17.34
      169.0,      17.53,    18.55,    18.28,    16.00,    17.30
      170.0,      17.48,    18.49,    18.23,    15.95,    17.26
      171.0,      17.44,    18.44,    18.18,    15.91,    17.22
      172.0,      17.39,    18.38,    18.13,    15.86,    17.18
      173.0,      17.34,    18.32,    18.09,    15.82,    17.14
      174.0,      17.29,    18.27,    18.04,    15.78,    17.10
      175.0,      17.25,    18.21,    17.99,    15.73,    17.06
      176.0,      17.20,    18.16,    17.94,    15.69,    17.02
      177.0,      17.16,    18.11,    17.89,    15.64,    16.98
      178.0,      17.11,    18.05,    17.84,    15.60,    16.94
      179.0,      17.06,    18.00,    17.79,    15.56,    16.90
      180.0,      17.02,    17.95,    17.75,    15.51,    16.87
      181.0,      16.97,    17.89,    17.70,    15.47,    16.83
      182.0,      16.93,    17.84,    17.65,    15.43,    16.79
      183.0,      16.88,    17.79,    17.60,    15.39,    16.76
      184.0,      16.84,    17.74,    17.56,    15.34,    16.72
      185.0,      16.80,    17.68,    17.51,    15.30,    16.69
      186.0,      16.75,    17.63,    17.46,    15.26,    16.65
      187.0,      16.71,    17.58,    17.42,    15.22,    16.62
      188.0,      16.66,    17.53,    17.37,    15.17,    16.58
      189.0,      16.62,    17.48,    17.32,    15.13,    16.55
      190.0,      16.58,    17.43,    17.28,    15.09,    16.52
      191.0,      16.53,    17.38,    17.23,    15.05,    16.48
      192.0,      16.49,    17.33,    17.18,    15.01,    16.45
      193.0,      16.45,    17.28,    17.14,    14.97,    16.42
      194.0,      16.41,    17.23,    17.09,    14.92,    16.38
      195.0,      16.37,    17.18,    17.05,    14.88,    16.35
      196.0,      16.32,    17.13,    17.00,    14.84,    16.32
      197.0,      16.28,    17.08,    16.96,    14.80,    16.29
      198.0,      16.24,    17.03,    16.91,    14.76,    16.26
      199.0,      16.20,    16.98,    16.87,    14.72,    16.23
      200.0,      16.16,    16.93,    16.82,    14.68,    16.19
      201.0,      16.12,    16.89,    16.78,    14.64,    16.16
      202.0,      16.08,    16.84,    16.73,    14.60,    16.13
      203.0,      16.04,    16.79,    16.69,    14.56,    16.10
      204.0,      16.00,    16.74,    16.65,    14.52,    16.07
      205.0,      15.96,    16.70,    16.60,    14.48,    16.04
      206.0,      15.92,    16.65,    16.56,    14.44,    16.02
      207.0,      15.88,    16.60,    16.52,    14.40,    15.99
      208.0,      15.84,    16.56,    16.47,    14.36,    15.96
      209.0,      15.80,    16.51,    16.43,    14.32,    15.93
      210.0,      15.76,    16.47,    16.39,    14.28,    15.90
      211.0,      15.72,    16.42,    16.34,    14.24,    15.87
      212.0,      15.68,    16.37,    16.30,    14.20,    15.84
      213.0,      15.64,    16.33,    16.26,    14.16,    15.82
      214.0,      15.60,    16.28,    16.21,    14.12,    15.79
      215.0,      15.56,    16.24,    16.17,    14.09,    15.76
      216.0,      15.53,    16.19,    16.13,    14.05,    15.74
      217.0,      15.49,    16.15,    16.09,    14.01,    15.71
      218.0,      15.45,    16.11,    16.05,    13.97,    15.68
      219.0,      15.41,    16.06,    16.00,    13.93,    15.66
      220.0,      15.38,    16.02,    15.96,    13.89,    15.63
      221.0,      15.34,    15.97,    15.92,    13.86,    15.60
      222.0,      15.30,    15.93,    15.88,    13.82,    15.58
      223.0,      15.26,    15.89,    15.84,    13.78,    15.55
      224.0,      15.23,    15.84,    15.80,    13.74,    15.53
      225.0,      15.19,    15.80,    15.76,    13.70,    15.50
      226.0,      15.15,    15.76,    15.72,    13.67,    15.48
      227.0,      15.12,    15.72,    15.67,    13.63,    15.45
      228.0,      15.08,    15.67,    15.63,    13.59,    15.43
      229.0,      15.05,    15.63,    15.59,    13.56,    15.40
      230.0,      15.01,    15.59,    15.55,    13.52,    15.38
      231.0,      14.97,    15.55,    15.51,    13.48,    15.35
      232.0,      14.94,    15.51,    15.47,    13.44,    15.33
      233.0,      14.90,    15.47,    15.43,    13.41,    15.30
      234.0,      14.87,    15.42,    15.39,    13.37,    15.28
      235.0,      14.83,    15.38,    15.35,    13.33,    15.26
      236.0,      14.80,    15.34,    15.31,    13.30,    15.23
      237.0,      14.76,    15.30,    15.27,    13.26,    15.21
      238.0,      14.73,    15.26,    15.24,    13.23,    15.19
      239.0,      14.69,    15.22,    15.20,    13.19,    15.16
      240.0,      14.66,    15.18,    15.16,    13.15,    15.14
      241.0,      14.62,    15.14,    15.12,    13.12,    15.12
      242.0,      14.59,    15.10,    15.08,    13.08,    15.10
      243.0,      14.56,    15.06,    15.04,    13.05,    15.07
      244.0,      14.52,    15.02,    15.00,    13.01,    15.05
      245.0,      14.49,    14.98,    14.96,    12.97,    15.03
      246.0,      14.45,    14.94,    14.93,    12.94,    15.01
      247.0,      14.42,    14.91,    14.89,    12.90,    14.98
      248.0,      14.39,    14.87,    14.85,    12.87,    14.96
      249.0,      14.35,    14.83,    14.81,    12.83,    14.94
      250.0,      14.32,    14.79,    14.77,    12.80,    14.92
      251.0,      14.29,    14.75,    14.74,    12.76,    14.90
      252.0,      14.25,    14.71,    14.70,    12.73,    14.88
      253.0,      14.22,    14.68,    14.66,    12.69,    14.85
      254.0,      14.19,    14.64,    14.62,    12.66,    14.83
      255.0,      14.16,    14.60,    14.59,    12.62,    14.81
      256.0,      14.12,    14.56,    14.55,    12.59,    14.79
      257.0,      14.09,    14.53,    14.51,    12.56,    14.77
      258.0,      14.06,    14.49,    14.48,    12.52,    14.75
      259.0,      14.03,    14.45,    14.44,    12.49,    14.73
      260.0,      14.00,    14.41,    14.40,    12.45,    14.71
      261.0,      13.96,    14.38,    14.37,    12.42,    14.69
      262.0,      13.93,    14.34,    14.33,    12.38,    14.67
      263.0,      13.90,    14.31,    14.29,    12.35,    14.65
      264.0,      13.87,    14.27,    14.26,    12.32,    14.63
      265.0,      13.84,    14.23,    14.22,    12.28,    14.61
      266.0,      13.81,    14.20,    14.19,    12.25,    14.59
      267.0,      13.77,    14.16,    14.15,    12.22,    14.57
      268.0,      13.74,    14.13,    14.12,    12.18,    14.55
      269.0,      13.71,    14.09,    14.08,    12.15,    14.53
      270.0,      13.68,    14.06,    14.04,    12.12,    14.51
      271.0,      13.65,    14.02,    14.01,    12.08,    14.49
      272.0,      13.62,    13.98,    13.97,    12.05,    14.47
      273.0,      13.59,    13.95,    13.94,    12.02,    14.45
      274.0,      13.56,    13.92,    13.90,    11.99,    14.43
      275.0,      13.53,    13.88,    13.87,    11.95,    14.41
      276.0,      13.50,    13.85,    13.83,    11.92,    14.40
      277.0,      13.47,    13.81,    13.80,    11.89,    14.38
      278.0,      13.44,    13.78,    13.76,    11.86,    14.36
      279.0,      13.41,    13.74,    13.73,    11.82,    14.34
      280.0,      13.38,    13.71,    13.70,    11.79,    14.32
      281.0,      13.35,    13.68,    13.66,    11.76,    14.30
      282.0,      13.32,    13.64,    13.63,    11.73,    14.28
      283.0,      13.29,    13.61,    13.59,    11.69,    14.27
      284.0,      13.26,    13.58,    13.56,    11.66,    14.25
      285.0,      13.23,    13.54,    13.53,    11.63,    14.23
      286.0,      13.20,    13.51,    13.49,    11.60,    14.21
      287.0,      13.17,    13.48,    13.46,    11.57,    14.19
      288.0,      13.14,    13.44,    13.43,    11.54,    14.17
      289.0,      13.12,    13.41,    13.39,    11.50,    14.16
      290.0,      13.09,    13.38,    13.36,    11.47,    14.14
      291.0,      13.06,    13.35,    13.33,    11.44,    14.12
      292.0,      13.03,    13.31,    13.29,    11.41,    14.10
      293.0,      13.00,    13.28,    13.26,    11.38,    14.09
      294.0,      12.97,    13.25,    13.23,    11.35,    14.07
      295.0,      12.94,    13.22,    13.19,    11.32,    14.05
      296.0,      12.92,    13.18,    13.16,    11.29,    14.03
      297.0,      12.89,    13.15,    13.13,    11.26,    14.02
      298.0,      12.86,    13.12,    13.10,    11.22,    14.00
      299.0,      12.83,    13.09,    13.06,    11.19,    13.98
      300.0,      12.80,    13.06,    13.03,    11.16,    13.96
      301.0,      12.78,    13.03,    13.00,    11.13,    13.95
      302.0,      12.75,    13.00,    12.97,    11.10,    13.93
      303.0,      12.72,    12.96,    12.93,    11.07,    13.91
      304.0,      12.69,    12.93,    12.90,    11.04,    13.90
      305.0,      12.67,    12.90,    12.87,    11.01,    13.88
      306.0,      12.64,    12.87,    12.84,    10.98,    13.86
      307.0,      12.61,    12.84,    12.81,    10.95,    13.85
      308.0,      12.58,    12.81,    12.78,    10.92,    13.83
      309.0,      12.56,    12.78,    12.74,    10.89,    13.81
      310.0,      12.53,    12.75,    12.71,    10.86,    13.80
