Radius (km), Mean (m/s), NE (m/s), SE (m/s), SW (m/s), NW (m/s)
        0.0,       0.00,     0.00,     0.00,     0.00,     0.00
        1.0,       1.44,     1.34,     1.54,     1.44,     1.44
        2.0,       2.76,     2.63,     2.88,     2.76,     2.76
        3.0,       4.03,     3.90,     4.16,     4.03,     4.03
        4.0,       5.28,     5.17,     5.39,     5.29,     5.29
        5.0,       6.51,     6.42,     6.59,     6.52,     6.52
        6.0,       7.73,     7.67,     7.77,     7.73,     7.73
        7.0,       8.93,     8.91,     8.93,     8.94,     8.94
        8.0,      10.12,    10.15,    10.08,    10.13,    10.13
        9.0,      11.31,    11.38,    11.21,    11.32,    11.32
       10.0,      12.48,    12.61,    12.33,    12.49,    12.49
       11.0,      13.65,    13.84,    13.44,    13.66,    13.66
       12.0,      14.81,    15.06,    14.54,    14.82,    14.82
       13.0,      15.97,    16.28,    15.63,    15.98,    15.98
       14.0,      17.12,    17.50,    16.71,    17.13,    17.13
       15.0,      18.27,    18.72,    17.79,    18.28,    18.28
       16.0,      19.41,    19.93,    18.86,    19.42,    19.42
       17.0,      20.54,    21.14,    19.92,    20.56,    20.56
       18.0,      21.68,    22.36,    20.97,    21.69,    21.69
       19.0,      22.81,    23.56,    22.02,    22.82,    22.82
       20.0,      23.93,    24.77,    23.07,    23.94,    23.94
       21.0,      25.06,    25.99,    24.11,    25.07,    25.08
       22.0,      26.22,    27.25,    25.18,    26.21,    26.24
       23.0,      27.46,    28.63,    26.32,    27.41,    27.48
       24.0,      28.83,    30.19,    27.59,    28.73,    28.83
       25.0,      30.38,    31.95,    29.02,    30.23,    30.32
       26.0,      32.10,    33.93,    30.63,    31.91,    31.94
       27.0,      33.97,    36.07,    32.37,    33.76,    33.67
       28.0,      35.90,    38.27,    34.18,    35.72,    35.44
       29.0,      37.80,    40.41,    35.96,    37.67,    37.16
       30.0,      39.56,    42.35,    37.61,    39.51,    38.77
       31.0,      41.07,    43.99,    39.01,    41.11,    40.16
       32.0,      42.25,    45.23,    40.10,    42.37,    41.29
       33.0,      43.04,    46.01,    40.81,    43.22,    42.12
       34.0,      43.44,    46.34,    41.15,    43.65,    42.64
       35.0,      43.48,    46.26,    41.13,    43.67,    42.88
       36.0,      43.22,    45.84,    40.82,    43.33,    42.88
       37.0,      42.72,    45.17,    40.28,    42.73,    42.71
       38.0,      42.08,    44.36,    39.61,    41.94,    42.43
       39.0,      41.38,    43.49,    38.87,    41.07,    42.09
       40.0,      40.67,    42.63,    38.13,    40.17,    41.74
       41.0,      39.98,    41.80,    37.42,    39.31,    41.40
       42.0,      39.33,    41.01,    36.75,    38.49,    41.07
       43.0,      38.71,    40.27,    36.11,    37.71,    40.76
       44.0,      38.12,    39.55,    35.50,    36.98,    40.45
       45.0,      37.55,    38.87,    34.92,    36.27,    40.14
       46.0,      37.00,    38.21,    34.36,    35.58,    39.84
       47.0,      36.46,    37.57,    33.82,    34.92,    39.54
       48.0,      35.95,    36.96,    33.29,    34.28,    39.25
       49.0,      35.45,    36.37,    32.79,    33.66,    38.96
       50.0,      34.96,    35.80,    32.31,    33.07,    38.68
       51.0,      34.50,    35.26,    31.84,    32.50,    38.39
       52.0,      34.05,    34.73,    31.40,    31.94,    38.12
       53.0,      33.61,    34.23,    30.96,    31.41,    37.84
       54.0,      33.19,    33.74,    30.55,    30.89,    37.57
       55.0,      32.78,    33.27,    30.15,    30.39,    37.31
       56.0,      32.39,    32.82,    29.76,    29.91,    37.04
       57.0,      32.00,    32.39,    29.39,    29.45,    36.78
       58.0,      31.63,    31.97,    29.03,    29.00,    36.53
       59.0,      31.28,    31.57,    28.69,    28.57,    36.28
       60.0,      30.93,    31.18,    28.35,    28.15,    36.03
       61.0,      30.59,    30.81,    28.03,    27.75,    35.78
       62.0,      30.27,    30.45,    27.72,    27.36,    35.54
       63.0,      29.95,    30.10,    27.43,    26.98,    35.30
       64.0,      29.65,    29.77,    27.14,    26.62,    35.07
       65.0,      29.35,    29.45,    26.86,    26.27,    34.83
       66.0,      29.07,    29.14,    26.60,    25.93,    34.60
       67.0,      28.79,    28.84,    26.34,    25.60,    34.38
       68.0,      28.52,    28.55,    26.09,    25.29,    34.15
       69.0,      28.26,    28.27,    25.85,    24.98,    33.93
       70.0,      28.01,    28.00,    25.62,    24.69,    33.72
       71.0,      27.76,    27.75,    25.39,    24.40,    33.50
       72.0,      27.52,    27.50,    25.18,    24.13,    33.29
       73.0,      27.29,    27.26,    24.97,    23.86,    33.08
       74.0,      27.07,    27.02,    24.77,    23.60,    32.88
       75.0,      26.85,    26.80,    24.58,    23.35,    32.67
       76.0,      26.64,    26.59,    24.39,    23.11,    32.47
       77.0,      26.43,    26.38,    24.21,    22.88,    32.28
       78.0,      26.24,    26.18,    24.03,    22.65,    32.08
       79.0,      26.04,    25.98,    23.86,    22.44,    31.89
       80.0,      25.85,    25.79,    23.70,    22.23,    31.70
       81.0,      25.67,    25.61,    23.54,    22.02,    31.51
       82.0,      25.49,    25.44,    23.39,    21.83,    31.33
       83.0,      25.32,    25.27,    23.24,    21.63,    31.14
       84.0,      25.15,    25.11,    23.10,    21.45,    30.96
       85.0,      24.99,    24.95,    22.96,    21.27,    30.79
       86.0,      24.83,    24.80,    22.82,    21.10,    30.61
       87.0,      24.68,    24.65,    22.69,    20.93,    30.44
       88.0,      24.53,    24.51,    22.57,    20.77,    30.27
       89.0,      24.38,    24.37,    22.45,    20.61,    30.10
       90.0,      24.24,    24.24,    22.33,    20.46,    29.93
       91.0,      24.10,    24.11,    22.21,    20.31,    29.77
       92.0,      23.97,    23.98,    22.10,    20.17,    29.61
       93.0,      23.83,    23.86,    22.00,    20.03,    29.45
       94.0,      23.71,    23.75,    21.89,    19.90,    29.29
       95.0,      23.58,    23.63,    21.79,    19.77,    29.13
       96.0,      23.46,    23.52,    21.69,    19.64,    28.98
       97.0,      23.34,    23.42,    21.60,    19.52,    28.83
       98.0,      23.22,    23.31,    21.50,    19.40,    28.68
       99.0,      23.11,    23.21,    21.41,    19.28,    28.53
      100.0,      23.00,    23.12,    21.33,    19.17,    28.38
      101.0,      22.89,    23.02,    21.24,    19.06,    28.24
      102.0,      22.79,    22.93,    21.16,    18.96,    28.10
      103.0,      22.68,    22.84,    21.08,    18.86,    27.96
      104.0,      22.58,    22.76,    21.00,    18.76,    27.82
      105.0,      22.48,    22.67,    20.92,    18.66,    27.68
      106.0,      22.39,    22.59,    20.85,    18.57,    27.55
      107.0,      22.29,    22.51,    20.78,    18.48,    27.41
      108.0,      22.20,    22.44,    20.71,    18.39,    27.28
      109.0,      22.11,    22.36,    20.64,    18.30,    27.15
      110.0,      22.03,    22.29,    20.57,    18.22,    27.02
      111.0,      21.94,    22.22,    20.51,    18.14,    26.89
      112.0,      21.85,    22.15,    20.44,    18.06,    26.77
      113.0,      21.77,    22.08,    20.38,    17.98,    26.65
      114.0,      21.69,    22.02,    20.32,    17.90,    26.52
      115.0,      21.61,    21.95,    20.26,    17.83,    26.40
      116.0,      21.54,    21.89,    20.21,    17.76,    26.28
      117.0,      21.46,    21.83,    20.15,    17.69,    26.17
      118.0,      21.38,    21.77,    20.09,    17.62,    26.05
      119.0,      21.31,    21.72,    20.04,    17.56,    25.93
      120.0,      21.24,    21.66,    19.99,    17.49,    25.82
      121.0,      21.17,    21.60,    19.94,    17.43,    25.71
      122.0,      21.10,    21.55,    19.89,    17.37,    25.60
      123.0,      21.03,    21.50,    19.84,    17.31,    25.49
      124.0,      20.97,    21.45,    19.79,    17.25,    25.38
      125.0,      20.90,    21.40,    19.74,    17.19,    25.28
      126.0,      20.84,    21.35,    19.69,    17.14,    25.17
      127.0,      20.77,    21.30,    19.65,    17.08,    25.07
      128.0,      20.71,    21.25,    19.60,    17.03,    24.96
      129.0,      20.65,    21.21,    19.56,    16.98,    24.86
      130.0,      20.59,    21.16,    19.52,    16.93,    24.76
      131.0,      20.53,    21.12,    19.47,    16.88,    24.66
      132.0,      20.48,    21.08,    19.43,    16.83,    24.56
      133.0,      20.42,    21.03,    19.39,    16.78,    24.47
      134.0,      20.36,    20.99,    19.35,    16.73,    24.37
      135.0,      20.31,    20.95,    19.31,    16.69,    24.28
      136.0,      20.25,    20.91,    19.27,    16.64,    24.19
      137.0,      20.20,    20.87,    19.23,    16.60,    24.09
      138.0,      20.15,    20.83,    19.20,    16.56,    24.00
      139.0,      20.09,    20.79,    19.16,    16.51,    23.91
      140.0,      20.04,    20.76,    19.12,    16.47,    23.82
      141.0,      19.99,    20.72,    19.08,    16.43,    23.74
      142.0,      19.94,    20.68,    19.05,    16.39,    23.65
      143.0,      19.89,    20.65,    19.01,    16.35,    23.56
      144.0,      19.85,    20.61,    18.98,    16.31,    23.48
      145.0,      19.80,    20.58,    18.94,    16.28,    23.39
      146.0,      19.75,    20.54,    18.91,    16.24,    23.31
      147.0,      19.70,    20.51,    18.88,    16.20,    23.23
      148.0,      19.66,    20.48,    18.84,    16.17,    23.15
      149.0,      19.61,    20.45,    18.81,    16.13,    23.07
      150.0,      19.57,    20.41,    18.78,    16.10,    22.99
      151.0,      19.52,    20.38,    18.75,    16.06,    22.91
      152.0,      19.48,    20.35,    18.71,    16.03,    22.83
      153.0,      19.44,    20.32,    18.68,    15.99,    22.76
      154.0,      19.40,    20.29,    18.65,    15.96,    22.68
      155.0,      19.35,    20.26,    18.62,    15.93,    22.61
      156.0,      19.31,    20.23,    18.59,    15.90,    22.53
      157.0,      19.27,    20.20,    18.56,    15.87,    22.46
      158.0,      19.23,    20.17,    18.53,    15.83,    22.39
      159.0,      19.19,    20.14,    18.50,    15.80,    22.32
      160.0,      19.15,    20.11,    18.47,    15.77,    22.24
      161.0,      19.11,    20.08,    18.44,    15.74,    22.18
      162.0,      19.07,    20.05,    18.41,    15.71,    22.11
      163.0,      19.03,    20.03,    18.39,    15.69,    22.04
      164.0,      19.00,    20.00,    18.36,    15.66,    21.97
      165.0,      18.96,    19.97,    18.33,    15.63,    21.90
      166.0,      18.92,    19.94,    18.30,    15.60,    21.84
      167.0,      18.88,    19.92,    18.27,    15.57,    21.77
      168.0,      18.85,    19.89,    18.25,    15.54,    21.71
      169.0,      18.81,    19.86,    18.22,    15.52,    21.64
      170.0,      18.77,    19.84,    18.19,    15.49,    21.58
      171.0,      18.74,    19.81,    18.16,    15.46,    21.52
      172.0,      18.70,    19.78,    18.14,    15.44,    21.45
      173.0,      18.67,    19.76,    18.11,    15.41,    21.39
      174.0,      18.63,    19.73,    18.08,    15.38,    21.33
      175.0,      18.60,    19.71,    18.06,    15.36,    21.27
      176.0,      18.57,    19.68,    18.03,    15.33,    21.21
      177.0,      18.53,    19.66,    18.01,    15.31,    21.15
      178.0,      18.50,    19.63,    17.98,    15.28,    21.10
      179.0,      18.46,    19.61,    17.95,    15.26,    21.04
      180.0,      18.43,    19.58,    17.93,    15.23,    20.98
      181.0,      18.40,    19.56,    17.90,    15.21,    20.93
      182.0,      18.37,    19.53,    17.88,    15.18,    20.87
      183.0,      18.33,    19.51,    17.85,    15.16,    20.81
      184.0,      18.30,    19.49,    17.83,    15.14,    20.76
      185.0,      18.27,    19.46,    17.80,    15.11,    20.70
      186.0,      18.24,    19.44,    17.78,    15.09,    20.65
      187.0,      18.21,    19.41,    17.75,    15.07,    20.60
      188.0,      18.18,    19.39,    17.73,    15.04,    20.55
      189.0,      18.15,    19.37,    17.70,    15.02,    20.49
      190.0,      18.12,    19.34,    17.68,    15.00,    20.44
      191.0,      18.08,    19.32,    17.65,    14.97,    20.39
      192.0,      18.05,    19.30,    17.63,    14.95,    20.34
      193.0,      18.02,    19.27,    17.61,    14.93,    20.29
      194.0,      17.99,    19.25,    17.58,    14.91,    20.24
      195.0,      17.97,    19.23,    17.56,    14.88,    20.19
      196.0,      17.94,    19.20,    17.53,    14.86,    20.14
      197.0,      17.91,    19.18,    17.51,    14.84,    20.10
      198.0,      17.88,    19.16,    17.49,    14.82,    20.05
      199.0,      17.85,    19.14,    17.46,    14.80,    20.00
      200.0,      17.82,    19.11,    17.44,    14.77,    19.95
      201.0,      17.79,    19.09,    17.41,    14.75,    19.91
      202.0,      17.76,    19.07,    17.39,    14.73,    19.86
      203.0,      17.74,    19.05,    17.37,    14.71,    19.82
      204.0,      17.71,    19.02,    17.34,    14.69,    19.77
      205.0,      17.68,    19.00,    17.32,    14.67,    19.73
      206.0,      17.65,    18.98,    17.30,    14.65,    19.68
      207.0,      17.62,    18.96,    17.27,    14.63,    19.64
      208.0,      17.60,    18.94,    17.25,    14.60,    19.59
      209.0,      17.57,    18.91,    17.23,    14.58,    19.55
      210.0,      17.54,    18.89,    17.21,    14.56,    19.51
      211.0,      17.52,    18.87,    17.18,    14.54,    19.47
      212.0,      17.49,    18.85,    17.16,    14.52,    19.42
      213.0,      17.46,    18.83,    17.14,    14.50,    19.38
      214.0,      17.44,    18.81,    17.11,    14.48,    19.34
      215.0,      17.41,    18.78,    17.09,    14.46,    19.30
      216.0,      17.38,    18.76,    17.07,    14.44,    19.26
      217.0,      17.36,    18.74,    17.05,    14.42,    19.22
      218.0,      17.33,    18.72,    17.02,    14.40,    19.18
      219.0,      17.30,    18.70,    17.00,    14.38,    19.14
      220.0,      17.28,    18.68,    16.98,    14.36,    19.10
      221.0,      17.25,    18.66,    16.96,    14.34,    19.06
      222.0,      17.23,    18.63,    16.93,    14.32,    19.03
      223.0,      17.20,    18.61,    16.91,    14.30,    18.99
      224.0,      17.18,    18.59,    16.89,    14.28,    18.95
      225.0,      17.15,    18.57,    16.87,    14.26,    18.91
      226.0,      17.13,    18.55,    16.84,    14.24,    18.87
      227.0,      17.10,    18.53,    16.82,    14.22,    18.84
      228.0,      17.08,    18.51,    16.80,    14.20,    18.80
      229.0,      17.05,    18.49,    16.78,    14.18,    18.77
      230.0,      17.03,    18.47,    16.76,    14.16,    18.73
      231.0,      17.00,    18.45,    16.73,    14.14,    18.69
      232.0,      16.98,    18.42,    16.71,    14.12,    18.66
      233.0,      16.96,    18.40,    16.69,    14.10,    18.62
      234.0,      16.93,    18.38,    16.67,    14.08,    18.59
      235.0,      16.91,    18.36,    16.65,    14.06,    18.55
      236.0,      16.88,    18.34,    16.63,    14.05,    18.52
      237.0,      16.86,    18.32,    16.60,    14.03,    18.49
      238.0,      16.84,    18.30,    16.58,    14.01,    18.45
      239.0,      16.81,    18.28,    16.56,    13.99,    18.42
      240.0,      16.79,    18.26,    16.54,    13.97,    18.38
      241.0,      16.76,    18.24,    16.52,    13.95,    18.35
      242.0,      16.74,    18.22,    16.50,    13.93,    18.32
      243.0,      16.72,    18.20,    16.47,    13.91,    18.29
      244.0,      16.69,    18.18,    16.45,    13.89,    18.25
      245.0,      16.67,    18.16,    16.43,    13.87,    18.22
      246.0,      16.65,    18.14,    16.41,    13.86,    18.19
      247.0,      16.63,    18.12,    16.39,    13.84,    18.16
      248.0,      16.60,    18.10,    16.37,    13.82,    18.13
      249.0,      16.58,    18.08,    16.35,    13.80,    18.10
      250.0,      16.56,    18.06,    16.32,    13.78,    18.07
      251.0,      16.53,    18.04,    16.30,    13.76,    18.03
      252.0,      16.51,    18.02,    16.28,    13.74,    18.00
      253.0,      16.49,    17.99,    16.26,    13.73,    17.97
      254.0,      16.47,    17.97,    16.24,    13.71,    17.94
      255.0,      16.44,    17.95,    16.22,    13.69,    17.91
      256.0,      16.42,    17.93,    16.20,    13.67,    17.88
      257.0,      16.40,    17.91,    16.18,    13.65,    17.86
      258.0,      16.38,    17.89,    16.16,    13.63,    17.83
      259.0,      16.36,    17.87,    16.13,    13.62,    17.80
      260.0,      16.33,    17.85,    16.11,    13.60,    17.77
      261.0,      16.31,    17.83,    16.09,    13.58,    17.74
      262.0,      16.29,    17.81,    16.07,    13.56,    17.71
      263.0,      16.27,    17.80,    16.05,    13.54,    17.68
      264.0,      16.25,    17.78,    16.03,    13.52,    17.65
      265.0,      16.22,    17.76,    16.01,    13.51,    17.63
      266.0,      16.20,    17.74,    15.99,    13.49,    17.60
      267.0,      16.18,    17.72,    15.97,    13.47,    17.57
      268.0,      16.16,    17.70,    15.95,    13.45,    17.54
      269.0,      16.14,    17.68,    15.93,    13.43,    17.52
      270.0,      16.12,    17.66,    15.91,    13.42,    17.49
      271.0,      16.10,    17.64,    15.88,    13.40,    17.46
      272.0,      16.07,    17.62,    15.86,    13.38,    17.44
      273.0,      16.05,    17.60,    15.84,    13.36,    17.41
      274.0,      16.03,    17.58,    15.82,    13.34,    17.38
      275.0,      16.01,    17.56,    15.80,    13.33,    17.36
      276.0,      15.99,    17.54,    15.78,    13.31,    17.33
      277.0,      15.97,    17.52,    15.76,    13.29,    17.30
      278.0,      15.95,    17.50,    15.74,    13.27,    17.28
      279.0,      15.93,    17.48,    15.72,    13.26,    17.25
      280.0,      15.91,    17.46,    15.70,    13.24,    17.23
      281.0,      15.89,    17.44,    15.68,    13.22,    17.20
      282.0,      15.87,    17.42,    15.66,    13.20,    17.18
      283.0,      15.85,    17.40,    15.64,    13.19,    17.15
      284.0,      15.82,    17.38,    15.62,    13.17,    17.13
      285.0,      15.80,    17.36,    15.60,    13.15,    17.10
      286.0,      15.78,    17.35,    15.58,    13.13,    17.08
      287.0,      15.76,    17.33,    15.56,    13.12,    17.05
      288.0,      15.74,    17.31,    15.54,    13.10,    17.03
      289.0,      15.72,    17.29,    15.52,    13.08,    17.00
      290.0,      15.70,    17.27,    15.50,    13.06,    16.98
      291.0,      15.68,    17.25,    15.48,    13.05,    16.96
      292.0,      15.66,    17.23,    15.46,    13.03,    16.93
      293.0,      15.64,    17.21,    15.44,    13.01,    16.91
      294.0,      15.62,    17.19,    15.42,    12.99,    16.89
      295.0,      15.60,    17.17,    15.40,    12.98,    16.86
      296.0,      15.58,    17.15,    15.38,    12.96,    16.84
      297.0,      15.56,    17.13,    15.36,    12.94,    16.82
      298.0,      15.54,    17.12,    15.34,    12.92,    16.79
      299.0,      15.52,    17.10,    15.32,    12.91,    16.77
      300.0,      15.50,    17.08,    15.30,    12.89,    16.75
      301.0,      15.48,    17.06,    15.28,    12.87,    16.72
      302.0,      15.46,    17.04,    15.26,    12.86,    16.70
      303.0,      15.44,    17.02,    15.24,    12.84,    16.68
      304.0,      15.42,    17.00,    15.22,    12.82,    16.66
      305.0,      15.41,    16.98,    15.20,    12.81,    16.63
      306.0,      15.39,    16.96,    15.18,    12.79,    16.61
      307.0,      15.37,    16.94,    15.16,    12.77,    16.59
      308.0,      15.35,    16.93,    15.14,    12.75,    16.57
      309.0,      15.33,    16.91,    15.12,    12.74,    16.54
      310.0,      15.31,    16.89,    15.10,    12.72,    16.52
