Radius (km), Mean (m/s), NE (m/s), SE (m/s), SW (m/s), NW (m/s)
        0.0,       0.00,     0.00,     0.00,     0.00,     0.00
        1.0,       1.25,     1.07,     1.53,     1.76,     0.66
        2.0,       2.42,     2.23,     2.82,     3.05,     1.59
        3.0,       3.58,     3.43,     4.04,     4.20,     2.65
        4.0,       4.74,     4.65,     5.20,     5.28,     3.82
        5.0,       5.89,     5.90,     6.33,     6.30,     5.06
        6.0,       7.06,     7.16,     7.43,     7.28,     6.37
        7.0,       8.23,     8.43,     8.51,     8.22,     7.74
        8.0,       9.40,     9.72,     9.57,     9.14,     9.16
        9.0,      10.57,    11.02,    10.62,    10.03,    10.63
       10.0,      11.76,    12.32,    11.65,    10.91,    12.14
       11.0,      12.94,    13.64,    12.67,    11.76,    13.69
       12.0,      14.13,    14.96,    13.68,    12.60,    15.28
       13.0,      15.33,    16.29,    14.68,    13.43,    16.91
       14.0,      16.53,    17.62,    15.66,    14.24,    18.57
       15.0,      17.73,    18.97,    16.65,    15.04,    20.26
       16.0,      18.94,    20.31,    17.62,    15.83,    21.98
       17.0,      20.15,    21.67,    18.58,    16.61,    23.73
       18.0,      21.36,    23.02,    19.54,    17.38,    25.51
       19.0,      22.58,    24.38,    20.50,    18.14,    27.31
       20.0,      23.81,    25.75,    21.44,    18.90,    29.14
       21.0,      25.05,    27.14,    22.39,    19.64,    31.01
       22.0,      26.34,    28.60,    23.36,    20.40,    33.00
       23.0,      27.75,    30.20,    24.40,    21.19,    35.21
       24.0,      29.35,    32.03,    25.55,    22.05,    37.75
       25.0,      31.17,    34.13,    26.85,    23.00,    40.71
       26.0,      33.23,    36.49,    28.30,    24.05,    44.06
       27.0,      35.46,    39.05,    29.88,    25.18,    47.73
       28.0,      37.77,    41.68,    31.51,    26.35,    51.55
       29.0,      40.04,    44.24,    33.12,    27.51,    55.29
       30.0,      42.11,    46.56,    34.59,    28.59,    58.71
       31.0,      43.87,    48.50,    35.85,    29.53,    61.59
       32.0,      45.20,    49.95,    36.81,    30.28,    63.77
       33.0,      46.06,    50.85,    37.44,    30.80,    65.15
       34.0,      46.44,    51.20,    37.72,    31.10,    65.72
       35.0,      46.36,    51.04,    37.69,    31.18,    65.55
       36.0,      45.93,    50.48,    37.40,    31.06,    64.76
       37.0,      45.22,    49.63,    36.92,    30.81,    63.53
       38.0,      44.35,    48.60,    36.31,    30.47,    62.04
       39.0,      43.42,    47.51,    35.65,    30.07,    60.43
       40.0,      42.48,    46.42,    34.99,    29.67,    58.83
       41.0,      41.58,    45.38,    34.35,    29.27,    57.30
       42.0,      40.72,    44.39,    33.75,    28.90,    55.85
       43.0,      39.91,    43.46,    33.18,    28.53,    54.48
       44.0,      39.14,    42.56,    32.64,    28.18,    53.17
       45.0,      38.39,    41.70,    32.11,    27.84,    51.91
       46.0,      37.67,    40.87,    31.61,    27.50,    50.69
       47.0,      36.97,    40.08,    31.12,    27.17,    49.53
       48.0,      36.30,    39.31,    30.65,    26.85,    48.40
       49.0,      35.66,    38.58,    30.20,    26.53,    47.32
       50.0,      35.04,    37.87,    29.77,    26.23,    46.29
       51.0,      34.44,    37.18,    29.35,    25.93,    45.29
       52.0,      33.86,    36.53,    28.95,    25.63,    44.33
       53.0,      33.30,    35.90,    28.57,    25.34,    43.41
       54.0,      32.77,    35.29,    28.19,    25.06,    42.52
       55.0,      32.25,    34.71,    27.83,    24.79,    41.67
       56.0,      31.75,    34.15,    27.49,    24.52,    40.85
       57.0,      31.27,    33.60,    27.16,    24.25,    40.06
       58.0,      30.80,    33.08,    26.83,    23.99,    39.30
       59.0,      30.36,    32.58,    26.53,    23.74,    38.57
       60.0,      29.92,    32.10,    26.23,    23.49,    37.87
       61.0,      29.51,    31.64,    25.94,    23.25,    37.19
       62.0,      29.10,    31.19,    25.66,    23.02,    36.54
       63.0,      28.72,    30.76,    25.40,    22.78,    35.92
       64.0,      28.34,    30.35,    25.14,    22.56,    35.32
       65.0,      27.98,    29.95,    24.89,    22.34,    34.74
       66.0,      27.63,    29.57,    24.65,    22.12,    34.18
       67.0,      27.29,    29.20,    24.42,    21.91,    33.65
       68.0,      26.97,    28.84,    24.20,    21.70,    33.13
       69.0,      26.65,    28.50,    23.98,    21.50,    32.64
       70.0,      26.35,    28.17,    23.77,    21.30,    32.16
       71.0,      26.06,    27.85,    23.57,    21.10,    31.70
       72.0,      25.77,    27.55,    23.38,    20.91,    31.26
       73.0,      25.50,    27.25,    23.19,    20.73,    30.83
       74.0,      25.24,    26.97,    23.01,    20.55,    30.42
       75.0,      24.98,    26.70,    22.84,    20.37,    30.03
       76.0,      24.74,    26.43,    22.67,    20.19,    29.65
       77.0,      24.50,    26.18,    22.51,    20.02,    29.28
       78.0,      24.27,    25.93,    22.35,    19.85,    28.93
       79.0,      24.04,    25.70,    22.20,    19.69,    28.59
       80.0,      23.83,    25.47,    22.05,    19.53,    28.26
       81.0,      23.62,    25.25,    21.91,    19.37,    27.95
       82.0,      23.42,    25.04,    21.77,    19.22,    27.64
       83.0,      23.22,    24.83,    21.64,    19.07,    27.35
       84.0,      23.04,    24.64,    21.51,    18.92,    27.07
       85.0,      22.85,    24.45,    21.39,    18.78,    26.80
       86.0,      22.68,    24.26,    21.27,    18.64,    26.54
       87.0,      22.51,    24.09,    21.15,    18.50,    26.29
       88.0,      22.34,    23.92,    21.04,    18.36,    26.04
       89.0,      22.18,    23.75,    20.93,    18.23,    25.81
       90.0,      22.03,    23.59,    20.82,    18.10,    25.58
       91.0,      21.88,    23.44,    20.72,    17.97,    25.37
       92.0,      21.73,    23.29,    20.62,    17.85,    25.16
       93.0,      21.59,    23.15,    20.53,    17.73,    24.95
       94.0,      21.45,    23.01,    20.43,    17.61,    24.76
       95.0,      21.32,    22.88,    20.34,    17.49,    24.57
       96.0,      21.19,    22.75,    20.25,    17.38,    24.39
       97.0,      21.07,    22.62,    20.17,    17.26,    24.21
       98.0,      20.95,    22.50,    20.09,    17.15,    24.04
       99.0,      20.83,    22.38,    20.01,    17.05,    23.88
      100.0,      20.72,    22.27,    19.93,    16.94,    23.72
      101.0,      20.61,    22.16,    19.85,    16.84,    23.57
      102.0,      20.50,    22.06,    19.78,    16.74,    23.42
      103.0,      20.39,    21.95,    19.70,    16.64,    23.28
      104.0,      20.29,    21.85,    19.63,    16.54,    23.14
      105.0,      20.19,    21.76,    19.57,    16.44,    23.01
      106.0,      20.10,    21.66,    19.50,    16.35,    22.88
      107.0,      20.01,    21.57,    19.44,    16.26,    22.76
      108.0,      19.92,    21.49,    19.37,    16.17,    22.64
      109.0,      19.83,    21.40,    19.31,    16.08,    22.52
      110.0,      19.74,    21.32,    19.25,    16.00,    22.41
      111.0,      19.66,    21.24,    19.19,    15.91,    22.30
      112.0,      19.58,    21.16,    19.14,    15.83,    22.20
      113.0,      19.50,    21.09,    19.08,    15.75,    22.09
      114.0,      19.43,    21.02,    19.03,    15.67,    22.00
      115.0,      19.35,    20.94,    18.97,    15.59,    21.90
      116.0,      19.28,    20.88,    18.92,    15.51,    21.81
      117.0,      19.21,    20.81,    18.87,    15.44,    21.72
      118.0,      19.14,    20.74,    18.82,    15.36,    21.63
      119.0,      19.07,    20.68,    18.77,    15.29,    21.55
      120.0,      19.01,    20.62,    18.73,    15.22,    21.46
      121.0,      18.94,    20.56,    18.68,    15.15,    21.39
      122.0,      18.88,    20.50,    18.63,    15.08,    21.31
      123.0,      18.82,    20.44,    18.59,    15.01,    21.23
      124.0,      18.76,    20.39,    18.55,    14.95,    21.16
      125.0,      18.70,    20.34,    18.50,    14.88,    21.09
      126.0,      18.65,    20.28,    18.46,    14.82,    21.02
      127.0,      18.59,    20.23,    18.42,    14.76,    20.96
      128.0,      18.54,    20.18,    18.38,    14.70,    20.89
      129.0,      18.49,    20.13,    18.34,    14.64,    20.83
      130.0,      18.43,    20.09,    18.30,    14.58,    20.77
      131.0,      18.38,    20.04,    18.26,    14.52,    20.71
      132.0,      18.33,    19.99,    18.23,    14.46,    20.65
      133.0,      18.29,    19.95,    18.19,    14.41,    20.59
      134.0,      18.24,    19.91,    18.15,    14.35,    20.54
      135.0,      18.19,    19.87,    18.12,    14.30,    20.48
      136.0,      18.15,    19.82,    18.08,    14.25,    20.43
      137.0,      18.10,    19.78,    18.05,    14.20,    20.38
      138.0,      18.06,    19.74,    18.01,    14.14,    20.33
      139.0,      18.02,    19.70,    17.98,    14.09,    20.28
      140.0,      17.97,    19.67,    17.95,    14.04,    20.24
      141.0,      17.93,    19.63,    17.91,    14.00,    20.19
      142.0,      17.89,    19.59,    17.88,    13.95,    20.14
      143.0,      17.85,    19.56,    17.85,    13.90,    20.10
      144.0,      17.81,    19.52,    17.82,    13.86,    20.06
      145.0,      17.78,    19.49,    17.79,    13.81,    20.02
      146.0,      17.74,    19.45,    17.76,    13.77,    19.97
      147.0,      17.70,    19.42,    17.73,    13.72,    19.93
      148.0,      17.67,    19.39,    17.70,    13.68,    19.89
      149.0,      17.63,    19.36,    17.67,    13.64,    19.86
      150.0,      17.59,    19.32,    17.64,    13.60,    19.82
      151.0,      17.56,    19.29,    17.61,    13.56,    19.78
      152.0,      17.53,    19.26,    17.58,    13.52,    19.74
      153.0,      17.49,    19.23,    17.55,    13.48,    19.71
      154.0,      17.46,    19.20,    17.53,    13.44,    19.67
      155.0,      17.43,    19.17,    17.50,    13.40,    19.64
      156.0,      17.40,    19.14,    17.47,    13.36,    19.60
      157.0,      17.36,    19.12,    17.44,    13.32,    19.57
      158.0,      17.33,    19.09,    17.42,    13.29,    19.54
      159.0,      17.30,    19.06,    17.39,    13.25,    19.51
      160.0,      17.27,    19.03,    17.36,    13.22,    19.47
      161.0,      17.24,    19.01,    17.34,    13.18,    19.44
      162.0,      17.21,    18.98,    17.31,    13.15,    19.41
      163.0,      17.18,    18.95,    17.29,    13.11,    19.38
      164.0,      17.16,    18.93,    17.26,    13.08,    19.35
      165.0,      17.13,    18.90,    17.24,    13.05,    19.32
      166.0,      17.10,    18.88,    17.21,    13.02,    19.29
      167.0,      17.07,    18.85,    17.19,    12.98,    19.27
      168.0,      17.04,    18.83,    17.16,    12.95,    19.24
      169.0,      17.02,    18.80,    17.14,    12.92,    19.21
      170.0,      16.99,    18.78,    17.11,    12.89,    19.18
      171.0,      16.96,    18.75,    17.09,    12.86,    19.16
      172.0,      16.94,    18.73,    17.06,    12.83,    19.13
      173.0,      16.91,    18.71,    17.04,    12.80,    19.10
      174.0,      16.89,    18.68,    17.01,    12.77,    19.08
      175.0,      16.86,    18.66,    16.99,    12.75,    19.05
      176.0,      16.84,    18.64,    16.97,    12.72,    19.03
      177.0,      16.81,    18.61,    16.94,    12.69,    19.00
      178.0,      16.79,    18.59,    16.92,    12.66,    18.98
      179.0,      16.76,    18.57,    16.90,    12.64,    18.95
      180.0,      16.74,    18.55,    16.87,    12.61,    18.93
      181.0,      16.72,    18.52,    16.85,    12.58,    18.90
      182.0,      16.69,    18.50,    16.83,    12.56,    18.88
      183.0,      16.67,    18.48,    16.81,    12.53,    18.85
      184.0,      16.64,    18.46,    16.78,    12.51,    18.83
      185.0,      16.62,    18.44,    16.76,    12.48,    18.81
      186.0,      16.60,    18.42,    16.74,    12.46,    18.78
      187.0,      16.58,    18.39,    16.72,    12.43,    18.76
      188.0,      16.55,    18.37,    16.69,    12.41,    18.74
      189.0,      16.53,    18.35,    16.67,    12.38,    18.72
      190.0,      16.51,    18.33,    16.65,    12.36,    18.69
      191.0,      16.49,    18.31,    16.63,    12.34,    18.67
      192.0,      16.47,    18.29,    16.61,    12.32,    18.65
      193.0,      16.44,    18.27,    16.58,    12.29,    18.63
      194.0,      16.42,    18.25,    16.56,    12.27,    18.61
      195.0,      16.40,    18.23,    16.54,    12.25,    18.59
      196.0,      16.38,    18.21,    16.52,    12.23,    18.56
      197.0,      16.36,    18.19,    16.50,    12.20,    18.54
      198.0,      16.34,    18.17,    16.48,    12.18,    18.52
      199.0,      16.32,    18.15,    16.45,    12.16,    18.50
      200.0,      16.30,    18.13,    16.43,    12.14,    18.48
      201.0,      16.27,    18.11,    16.41,    12.12,    18.46
      202.0,      16.25,    18.09,    16.39,    12.10,    18.44
      203.0,      16.23,    18.07,    16.37,    12.08,    18.42
      204.0,      16.21,    18.05,    16.35,    12.06,    18.40
      205.0,      16.19,    18.03,    16.33,    12.04,    18.38
      206.0,      16.17,    18.01,    16.31,    12.02,    18.36
      207.0,      16.15,    17.99,    16.28,    12.00,    18.34
      208.0,      16.13,    17.97,    16.26,    11.98,    18.32
      209.0,      16.11,    17.96,    16.24,    11.96,    18.30
      210.0,      16.09,    17.94,    16.22,    11.94,    18.28
      211.0,      16.07,    17.92,    16.20,    11.92,    18.26
      212.0,      16.06,    17.90,    16.18,    11.91,    18.24
      213.0,      16.04,    17.88,    16.16,    11.89,    18.22
      214.0,      16.02,    17.86,    16.14,    11.87,    18.20
      215.0,      16.00,    17.84,    16.12,    11.85,    18.18
      216.0,      15.98,    17.82,    16.10,    11.83,    18.16
      217.0,      15.96,    17.80,    16.08,    11.82,    18.14
      218.0,      15.94,    17.79,    16.06,    11.80,    18.12
      219.0,      15.92,    17.77,    16.04,    11.78,    18.10
      220.0,      15.90,    17.75,    16.02,    11.76,    18.08
      221.0,      15.88,    17.73,    16.00,    11.75,    18.06
      222.0,      15.87,    17.71,    15.98,    11.73,    18.04
      223.0,      15.85,    17.69,    15.96,    11.71,    18.02
      224.0,      15.83,    17.68,    15.94,    11.70,    18.00
      225.0,      15.81,    17.66,    15.92,    11.68,    17.99
      226.0,      15.79,    17.64,    15.90,    11.66,    17.97
      227.0,      15.77,    17.62,    15.88,    11.65,    17.95
      228.0,      15.75,    17.60,    15.86,    11.63,    17.93
      229.0,      15.74,    17.58,    15.84,    11.61,    17.91
      230.0,      15.72,    17.57,    15.82,    11.60,    17.89
      231.0,      15.70,    17.55,    15.80,    11.58,    17.87
      232.0,      15.68,    17.53,    15.78,    11.57,    17.85
      233.0,      15.66,    17.51,    15.76,    11.55,    17.84
      234.0,      15.65,    17.49,    15.74,    11.54,    17.82
      235.0,      15.63,    17.48,    15.72,    11.52,    17.80
      236.0,      15.61,    17.46,    15.70,    11.50,    17.78
      237.0,      15.59,    17.44,    15.68,    11.49,    17.76
      238.0,      15.57,    17.42,    15.66,    11.47,    17.74
      239.0,      15.56,    17.40,    15.64,    11.46,    17.73
      240.0,      15.54,    17.39,    15.62,    11.44,    17.71
      241.0,      15.52,    17.37,    15.60,    11.43,    17.69
      242.0,      15.50,    17.35,    15.58,    11.41,    17.67
      243.0,      15.49,    17.33,    15.56,    11.40,    17.65
      244.0,      15.47,    17.32,    15.54,    11.39,    17.64
      245.0,      15.45,    17.30,    15.52,    11.37,    17.62
      246.0,      15.43,    17.28,    15.50,    11.36,    17.60
      247.0,      15.42,    17.26,    15.48,    11.34,    17.58
      248.0,      15.40,    17.25,    15.46,    11.33,    17.56
      249.0,      15.38,    17.23,    15.44,    11.31,    17.55
      250.0,      15.37,    17.21,    15.43,    11.30,    17.53
      251.0,      15.35,    17.19,    15.41,    11.29,    17.51
      252.0,      15.33,    17.18,    15.39,    11.27,    17.49
      253.0,      15.31,    17.16,    15.37,    11.26,    17.47
      254.0,      15.30,    17.14,    15.35,    11.24,    17.46
      255.0,      15.28,    17.12,    15.33,    11.23,    17.44
      256.0,      15.26,    17.11,    15.31,    11.22,    17.42
      257.0,      15.25,    17.09,    15.29,    11.20,    17.40
      258.0,      15.23,    17.07,    15.27,    11.19,    17.39
      259.0,      15.21,    17.06,    15.25,    11.18,    17.37
      260.0,      15.20,    17.04,    15.23,    11.16,    17.35
      261.0,      15.18,    17.02,    15.22,    11.15,    17.33
      262.0,      15.16,    17.00,    15.20,    11.14,    17.32
      263.0,      15.15,    16.99,    15.18,    11.12,    17.30
      264.0,      15.13,    16.97,    15.16,    11.11,    17.28
      265.0,      15.11,    16.95,    15.14,    11.10,    17.26
      266.0,      15.10,    16.94,    15.12,    11.08,    17.25
      267.0,      15.08,    16.92,    15.10,    11.07,    17.23
      268.0,      15.06,    16.90,    15.08,    11.06,    17.21
      269.0,      15.05,    16.88,    15.06,    11.05,    17.19
      270.0,      15.03,    16.87,    15.05,    11.03,    17.18
      271.0,      15.01,    16.85,    15.03,    11.02,    17.16
      272.0,      15.00,    16.83,    15.01,    11.01,    17.14
      273.0,      14.98,    16.82,    14.99,    11.00,    17.12
      274.0,      14.97,    16.80,    14.97,    10.98,    17.11
      275.0,      14.95,    16.78,    14.95,    10.97,    17.09
      276.0,      14.93,    16.77,    14.93,    10.96,    17.07
      277.0,      14.92,    16.75,    14.92,    10.95,    17.06
      278.0,      14.90,    16.73,    14.90,    10.93,    17.04
      279.0,      14.88,    16.72,    14.88,    10.92,    17.02
      280.0,      14.87,    16.70,    14.86,    10.91,    17.00
      281.0,      14.85,    16.68,    14.84,    10.90,    16.99
      282.0,      14.84,    16.67,    14.82,    10.88,    16.97
      283.0,      14.82,    16.65,    14.80,    10.87,    16.95
      284.0,      14.80,    16.63,    14.79,    10.86,    16.94
      285.0,      14.79,    16.62,    14.77,    10.85,    16.92
      286.0,      14.77,    16.60,    14.75,    10.84,    16.90
      287.0,      14.76,    16.58,    14.73,    10.82,    16.88
      288.0,      14.74,    16.57,    14.71,    10.81,    16.87
      289.0,      14.72,    16.55,    14.70,    10.80,    16.85
      290.0,      14.71,    16.53,    14.68,    10.79,    16.83
      291.0,      14.69,    16.52,    14.66,    10.78,    16.82
      292.0,      14.68,    16.50,    14.64,    10.76,    16.80
      293.0,      14.66,    16.48,    14.62,    10.75,    16.78
      294.0,      14.64,    16.47,    14.60,    10.74,    16.77
      295.0,      14.63,    16.45,    14.59,    10.73,    16.75
      296.0,      14.61,    16.43,    14.57,    10.72,    16.73
      297.0,      14.60,    16.42,    14.55,    10.71,    16.72
      298.0,      14.58,    16.40,    14.53,    10.69,    16.70
      299.0,      14.57,    16.38,    14.51,    10.68,    16.68
      300.0,      14.55,    16.37,    14.50,    10.67,    16.67
      301.0,      14.53,    16.35,    14.48,    10.66,    16.65
      302.0,      14.52,    16.33,    14.46,    10.65,    16.63
      303.0,      14.50,    16.32,    14.44,    10.64,    16.62
      304.0,      14.49,    16.30,    14.42,    10.62,    16.60
      305.0,      14.47,    16.29,    14.41,    10.61,    16.58
      306.0,      14.46,    16.27,    14.39,    10.60,    16.57
      307.0,      14.44,    16.25,    14.37,    10.59,    16.55
      308.0,      14.43,    16.24,    14.35,    10.58,    16.53
      309.0,      14.41,    16.22,    14.34,    10.57,    16.52
      310.0,      14.39,    16.20,    14.32,    10.56,    16.50
