Radius (km), Mean (m/s), NE (m/s), SE (m/s), SW (m/s), NW (m/s)
        0.0,       0.00,     0.00,     0.00,     0.00,     0.00
        1.0,       1.14,     1.06,     1.06,     1.37,     1.06
        2.0,       2.35,     2.24,     2.24,     2.68,     2.24
        3.0,       3.60,     3.48,     3.48,     3.96,     3.48
        4.0,       4.88,     4.76,     4.76,     5.24,     4.76
        5.0,       6.17,     6.06,     6.06,     6.50,     6.06
        6.0,       7.48,     7.39,     7.39,     7.75,     7.39
        7.0,       8.80,     8.74,     8.74,     9.00,     8.74
        8.0,      10.13,    10.10,    10.10,    10.24,    10.10
        9.0,      11.48,    11.48,    11.48,    11.48,    11.48
       10.0,      12.83,    12.87,    12.87,    12.71,    12.87
       11.0,      14.18,    14.27,    14.27,    13.94,    14.27
       12.0,      15.55,    15.68,    15.68,    15.16,    15.68
       13.0,      16.92,    17.10,    17.10,    16.38,    17.10
       14.0,      18.30,    18.54,    18.54,    17.60,    18.54
       15.0,      19.69,    19.98,    19.98,    18.82,    19.98
       16.0,      21.08,    21.43,    21.43,    20.03,    21.43
       17.0,      22.47,    22.88,    22.88,    21.24,    22.88
       18.0,      23.87,    24.35,    24.35,    22.45,    24.35
       19.0,      25.28,    25.82,    25.82,    23.65,    25.82
       20.0,      26.69,    27.30,    27.30,    24.86,    27.30
       21.0,      28.10,    28.78,    28.78,    26.06,    28.78
       22.0,      29.53,    30.30,    30.30,    27.27,    30.27
       23.0,      31.03,    31.90,    31.92,    28.50,    31.80
       24.0,      32.65,    33.65,    33.70,    29.82,    33.42
       25.0,      34.44,    35.61,    35.71,    31.26,    35.20
       26.0,      36.45,    37.81,    37.97,    32.85,    37.18
       27.0,      38.67,    40.22,    40.46,    34.60,    39.38
       28.0,      41.02,    42.76,    43.07,    36.47,    41.76
       29.0,      43.40,    45.32,    45.69,    38.38,    44.22
       30.0,      45.69,    47.74,    48.16,    40.23,    46.64
       31.0,      47.76,    49.89,    50.34,    41.91,    48.88
       32.0,      49.47,    51.65,    52.08,    43.33,    50.80
       33.0,      50.74,    52.93,    53.32,    44.42,    52.28
       34.0,      51.52,    53.69,    54.01,    45.12,    53.26
       35.0,      51.83,    53.96,    54.19,    45.45,    53.73
       36.0,      51.72,    53.80,    53.92,    45.44,    53.71
       37.0,      51.26,    53.30,    53.30,    45.15,    53.30
       38.0,      50.57,    52.58,    52.46,    44.66,    52.58
       39.0,      49.75,    51.74,    51.51,    44.05,    51.69
       40.0,      48.88,    50.88,    50.54,    43.40,    50.72
       41.0,      48.03,    50.04,    49.59,    42.77,    49.75
       42.0,      47.23,    49.25,    48.70,    42.16,    48.82
       43.0,      46.48,    48.50,    47.87,    41.60,    47.96
       44.0,      45.77,    47.80,    47.07,    41.07,    47.15
       45.0,      45.09,    47.12,    46.31,    40.56,    46.37
       46.0,      44.43,    46.47,    45.57,    40.07,    45.62
       47.0,      43.79,    45.84,    44.86,    39.59,    44.89
       48.0,      43.18,    45.23,    44.17,    39.13,    44.18
       49.0,      42.58,    44.64,    43.51,    38.68,    43.49
       50.0,      42.01,    44.07,    42.88,    38.25,    42.82
       51.0,      41.45,    43.52,    42.27,    37.84,    42.17
       52.0,      40.91,    42.99,    41.67,    37.43,    41.54
       53.0,      40.39,    42.48,    41.10,    37.04,    40.93
       54.0,      39.89,    41.99,    40.56,    36.66,    40.34
       55.0,      39.40,    41.51,    40.03,    36.30,    39.77
       56.0,      38.93,    41.05,    39.51,    35.94,    39.21
       57.0,      38.47,    40.61,    39.02,    35.60,    38.66
       58.0,      38.03,    40.18,    38.55,    35.26,    38.14
       59.0,      37.60,    39.76,    38.09,    34.94,    37.63
       60.0,      37.19,    39.36,    37.64,    34.62,    37.13
       61.0,      36.79,    38.97,    37.22,    34.32,    36.65
       62.0,      36.40,    38.60,    36.80,    34.02,    36.18
       63.0,      36.03,    38.23,    36.41,    33.74,    35.72
       64.0,      35.66,    37.88,    36.02,    33.46,    35.28
       65.0,      35.31,    37.54,    35.65,    33.19,    34.85
       66.0,      34.96,    37.21,    35.29,    32.92,    34.44
       67.0,      34.63,    36.89,    34.94,    32.67,    34.03
       68.0,      34.31,    36.58,    34.61,    32.42,    33.63
       69.0,      34.00,    36.29,    34.28,    32.17,    33.25
       70.0,      33.70,    36.00,    33.97,    31.94,    32.88
       71.0,      33.40,    35.71,    33.67,    31.71,    32.51
       72.0,      33.12,    35.44,    33.38,    31.49,    32.16
       73.0,      32.84,    35.18,    33.09,    31.27,    31.82
       74.0,      32.57,    34.92,    32.82,    31.06,    31.48
       75.0,      32.31,    34.67,    32.55,    30.85,    31.16
       76.0,      32.06,    34.43,    32.30,    30.65,    30.84
       77.0,      31.81,    34.20,    32.05,    30.46,    30.54
       78.0,      31.57,    33.97,    31.81,    30.26,    30.24
       79.0,      31.34,    33.75,    31.57,    30.08,    29.94
       80.0,      31.11,    33.53,    31.35,    29.90,    29.66
       81.0,      30.89,    33.32,    31.13,    29.72,    29.38
       82.0,      30.67,    33.12,    30.92,    29.55,    29.11
       83.0,      30.46,    32.92,    30.71,    29.38,    28.85
       84.0,      30.26,    32.73,    30.51,    29.21,    28.59
       85.0,      30.06,    32.54,    30.32,    29.05,    28.34
       86.0,      29.87,    32.36,    30.13,    28.89,    28.10
       87.0,      29.68,    32.18,    29.95,    28.74,    27.86
       88.0,      29.50,    32.01,    29.77,    28.58,    27.63
       89.0,      29.32,    31.84,    29.60,    28.43,    27.41
       90.0,      29.15,    31.68,    29.43,    28.29,    27.19
       91.0,      28.98,    31.52,    29.27,    28.15,    26.97
       92.0,      28.81,    31.36,    29.11,    28.01,    26.76
       93.0,      28.65,    31.21,    28.96,    27.87,    26.56
       94.0,      28.49,    31.06,    28.81,    27.74,    26.36
       95.0,      28.34,    30.92,    28.66,    27.61,    26.16
       96.0,      28.19,    30.78,    28.52,    27.48,    25.97
       97.0,      28.04,    30.64,    28.38,    27.35,    25.79
       98.0,      27.89,    30.50,    28.25,    27.22,    25.61
       99.0,      27.75,    30.37,    28.12,    27.10,    25.43
      100.0,      27.62,    30.24,    27.99,    26.98,    25.25
      101.0,      27.48,    30.11,    27.86,    26.86,    25.08
      102.0,      27.35,    29.99,    27.74,    26.75,    24.92
      103.0,      27.22,    29.87,    27.62,    26.63,    24.76
      104.0,      27.09,    29.75,    27.51,    26.52,    24.60
      105.0,      26.97,    29.63,    27.40,    26.41,    24.44
      106.0,      26.85,    29.52,    27.29,    26.30,    24.29
      107.0,      26.73,    29.41,    27.18,    26.19,    24.14
      108.0,      26.61,    29.30,    27.07,    26.09,    23.99
      109.0,      26.50,    29.19,    26.97,    25.98,    23.85
      110.0,      26.39,    29.08,    26.87,    25.88,    23.71
      111.0,      26.28,    28.98,    26.77,    25.78,    23.57
      112.0,      26.17,    28.88,    26.67,    25.68,    23.44
      113.0,      26.06,    28.78,    26.58,    25.58,    23.31
      114.0,      25.96,    28.68,    26.49,    25.48,    23.18
      115.0,      25.85,    28.58,    26.40,    25.39,    23.05
      116.0,      25.75,    28.49,    26.31,    25.29,    22.93
      117.0,      25.65,    28.39,    26.22,    25.20,    22.81
      118.0,      25.56,    28.30,    26.14,    25.11,    22.69
      119.0,      25.46,    28.21,    26.05,    25.02,    22.57
      120.0,      25.37,    28.12,    25.97,    24.93,    22.45
      121.0,      25.27,    28.03,    25.89,    24.84,    22.34
      122.0,      25.18,    27.94,    25.81,    24.75,    22.23
      123.0,      25.09,    27.86,    25.73,    24.66,    22.12
      124.0,      25.00,    27.77,    25.65,    24.57,    22.01
      125.0,      24.92,    27.69,    25.58,    24.49,    21.91
      126.0,      24.83,    27.61,    25.50,    24.40,    21.80
      127.0,      24.74,    27.53,    25.43,    24.32,    21.70
      128.0,      24.66,    27.44,    25.36,    24.24,    21.60
      129.0,      24.58,    27.37,    25.29,    24.16,    21.50
      130.0,      24.50,    27.29,    25.22,    24.07,    21.40
      131.0,      24.42,    27.21,    25.15,    23.99,    21.31
      132.0,      24.34,    27.13,    25.08,    23.91,    21.21
      133.0,      24.26,    27.06,    25.02,    23.83,    21.12
      134.0,      24.18,    26.98,    24.95,    23.76,    21.03
      135.0,      24.10,    26.91,    24.88,    23.68,    20.94
      136.0,      24.03,    26.83,    24.82,    23.60,    20.85
      137.0,      23.95,    26.76,    24.76,    23.52,    20.76
      138.0,      23.88,    26.69,    24.69,    23.45,    20.68
      139.0,      23.80,    26.62,    24.63,    23.37,    20.59
      140.0,      23.73,    26.55,    24.57,    23.30,    20.51
      141.0,      23.66,    26.48,    24.51,    23.22,    20.43
      142.0,      23.59,    26.41,    24.45,    23.15,    20.34
      143.0,      23.52,    26.34,    24.39,    23.08,    20.26
      144.0,      23.45,    26.27,    24.33,    23.00,    20.18
      145.0,      23.38,    26.21,    24.28,    22.93,    20.10
      146.0,      23.31,    26.14,    24.22,    22.86,    20.03
      147.0,      23.24,    26.07,    24.16,    22.79,    19.95
      148.0,      23.18,    26.01,    24.11,    22.72,    19.87
      149.0,      23.11,    25.94,    24.05,    22.65,    19.80
      150.0,      23.04,    25.88,    23.99,    22.58,    19.73
      151.0,      22.98,    25.81,    23.94,    22.51,    19.65
      152.0,      22.91,    25.75,    23.89,    22.44,    19.58
      153.0,      22.85,    25.69,    23.83,    22.37,    19.51
      154.0,      22.79,    25.62,    23.78,    22.30,    19.44
      155.0,      22.72,    25.56,    23.73,    22.23,    19.37
      156.0,      22.66,    25.50,    23.67,    22.17,    19.30
      157.0,      22.60,    25.44,    23.62,    22.10,    19.23
      158.0,      22.53,    25.37,    23.57,    22.03,    19.16
      159.0,      22.47,    25.31,    23.52,    21.96,    19.09
      160.0,      22.41,    25.25,    23.47,    21.90,    19.03
      161.0,      22.35,    25.19,    23.42,    21.83,    18.96
      162.0,      22.29,    25.13,    23.37,    21.77,    18.90
      163.0,      22.23,    25.07,    23.32,    21.70,    18.83
      164.0,      22.17,    25.01,    23.27,    21.64,    18.77
      165.0,      22.11,    24.96,    23.22,    21.57,    18.70
      166.0,      22.06,    24.90,    23.17,    21.51,    18.64
      167.0,      22.00,    24.84,    23.12,    21.45,    18.58
      168.0,      21.94,    24.78,    23.08,    21.38,    18.52
      169.0,      21.88,    24.72,    23.03,    21.32,    18.46
      170.0,      21.82,    24.67,    22.98,    21.26,    18.40
      171.0,      21.77,    24.61,    22.93,    21.19,    18.33
      172.0,      21.71,    24.55,    22.89,    21.13,    18.28
      173.0,      21.65,    24.50,    22.84,    21.07,    18.22
      174.0,      21.60,    24.44,    22.79,    21.01,    18.16
      175.0,      21.54,    24.38,    22.75,    20.94,    18.10
      176.0,      21.49,    24.33,    22.70,    20.88,    18.04
      177.0,      21.43,    24.27,    22.65,    20.82,    17.98
      178.0,      21.38,    24.22,    22.61,    20.76,    17.93
      179.0,      21.32,    24.16,    22.56,    20.70,    17.87
      180.0,      21.27,    24.11,    22.52,    20.64,    17.81
      181.0,      21.22,    24.05,    22.47,    20.58,    17.76
      182.0,      21.16,    24.00,    22.43,    20.52,    17.70
      183.0,      21.11,    23.94,    22.38,    20.46,    17.65
      184.0,      21.06,    23.89,    22.34,    20.40,    17.59
      185.0,      21.00,    23.83,    22.30,    20.34,    17.54
      186.0,      20.95,    23.78,    22.25,    20.28,    17.48
      187.0,      20.90,    23.73,    22.21,    20.22,    17.43
      188.0,      20.85,    23.67,    22.16,    20.17,    17.38
      189.0,      20.79,    23.62,    22.12,    20.11,    17.32
      190.0,      20.74,    23.57,    22.08,    20.05,    17.27
      191.0,      20.69,    23.52,    22.03,    19.99,    17.22
      192.0,      20.64,    23.46,    21.99,    19.93,    17.16
      193.0,      20.59,    23.41,    21.95,    19.88,    17.11
      194.0,      20.54,    23.36,    21.91,    19.82,    17.06
      195.0,      20.49,    23.31,    21.86,    19.76,    17.01
      196.0,      20.44,    23.26,    21.82,    19.71,    16.96
      197.0,      20.38,    23.20,    21.78,    19.65,    16.91
      198.0,      20.33,    23.15,    21.74,    19.59,    16.86
      199.0,      20.28,    23.10,    21.69,    19.54,    16.81
      200.0,      20.24,    23.05,    21.65,    19.48,    16.76
      201.0,      20.19,    23.00,    21.61,    19.42,    16.71
      202.0,      20.14,    22.95,    21.57,    19.37,    16.66
      203.0,      20.09,    22.90,    21.53,    19.31,    16.61
      204.0,      20.04,    22.85,    21.49,    19.26,    16.56
      205.0,      19.99,    22.80,    21.45,    19.20,    16.51
      206.0,      19.94,    22.75,    21.40,    19.15,    16.46
      207.0,      19.89,    22.70,    21.36,    19.09,    16.42
      208.0,      19.84,    22.65,    21.32,    19.04,    16.37
      209.0,      19.80,    22.60,    21.28,    18.98,    16.32
      210.0,      19.75,    22.55,    21.24,    18.93,    16.27
      211.0,      19.70,    22.50,    21.20,    18.88,    16.23
      212.0,      19.65,    22.45,    21.16,    18.82,    16.18
      213.0,      19.60,    22.40,    21.12,    18.77,    16.13
      214.0,      19.56,    22.35,    21.08,    18.71,    16.08
      215.0,      19.51,    22.30,    21.04,    18.66,    16.04
      216.0,      19.46,    22.25,    21.00,    18.61,    15.99
      217.0,      19.42,    22.20,    20.96,    18.55,    15.95
      218.0,      19.37,    22.15,    20.92,    18.50,    15.90
      219.0,      19.32,    22.11,    20.88,    18.45,    15.85
      220.0,      19.28,    22.06,    20.84,    18.40,    15.81
      221.0,      19.23,    22.01,    20.80,    18.34,    15.76
      222.0,      19.18,    21.96,    20.76,    18.29,    15.72
      223.0,      19.14,    21.91,    20.72,    18.24,    15.67
      224.0,      19.09,    21.86,    20.68,    18.19,    15.63
      225.0,      19.05,    21.82,    20.64,    18.14,    15.58
      226.0,      19.00,    21.77,    20.60,    18.08,    15.54
      227.0,      18.95,    21.72,    20.57,    18.03,    15.50
      228.0,      18.91,    21.67,    20.53,    17.98,    15.45
      229.0,      18.86,    21.63,    20.49,    17.93,    15.41
      230.0,      18.82,    21.58,    20.45,    17.88,    15.36
      231.0,      18.77,    21.53,    20.41,    17.83,    15.32
      232.0,      18.73,    21.49,    20.37,    17.78,    15.28
      233.0,      18.68,    21.44,    20.33,    17.73,    15.23
      234.0,      18.64,    21.39,    20.30,    17.68,    15.19
      235.0,      18.59,    21.35,    20.26,    17.63,    15.15
      236.0,      18.55,    21.30,    20.22,    17.58,    15.11
      237.0,      18.51,    21.25,    20.18,    17.53,    15.06
      238.0,      18.46,    21.21,    20.14,    17.48,    15.02
      239.0,      18.42,    21.16,    20.11,    17.43,    14.98
      240.0,      18.37,    21.11,    20.07,    17.38,    14.94
      241.0,      18.33,    21.07,    20.03,    17.33,    14.89
      242.0,      18.29,    21.02,    19.99,    17.28,    14.85
      243.0,      18.24,    20.98,    19.95,    17.23,    14.81
      244.0,      18.20,    20.93,    19.92,    17.18,    14.77
      245.0,      18.16,    20.89,    19.88,    17.13,    14.73
      246.0,      18.11,    20.84,    19.84,    17.08,    14.69
      247.0,      18.07,    20.80,    19.81,    17.04,    14.64
      248.0,      18.03,    20.75,    19.77,    16.99,    14.60
      249.0,      17.98,    20.70,    19.73,    16.94,    14.56
      250.0,      17.94,    20.66,    19.69,    16.89,    14.52
      251.0,      17.90,    20.62,    19.66,    16.84,    14.48
      252.0,      17.86,    20.57,    19.62,    16.80,    14.44
      253.0,      17.81,    20.53,    19.58,    16.75,    14.40
      254.0,      17.77,    20.48,    19.55,    16.70,    14.36
      255.0,      17.73,    20.44,    19.51,    16.65,    14.32
      256.0,      17.69,    20.39,    19.47,    16.61,    14.28
      257.0,      17.65,    20.35,    19.44,    16.56,    14.24
      258.0,      17.60,    20.30,    19.40,    16.51,    14.20
      259.0,      17.56,    20.26,    19.36,    16.47,    14.16
      260.0,      17.52,    20.22,    19.33,    16.42,    14.12
      261.0,      17.48,    20.17,    19.29,    16.37,    14.08
      262.0,      17.44,    20.13,    19.26,    16.33,    14.04
      263.0,      17.40,    20.08,    19.22,    16.28,    14.00
      264.0,      17.36,    20.04,    19.18,    16.23,    13.97
      265.0,      17.32,    20.00,    19.15,    16.19,    13.93
      266.0,      17.27,    19.95,    19.11,    16.14,    13.89
      267.0,      17.23,    19.91,    19.08,    16.10,    13.85
      268.0,      17.19,    19.87,    19.04,    16.05,    13.81
      269.0,      17.15,    19.82,    19.01,    16.00,    13.77
      270.0,      17.11,    19.78,    18.97,    15.96,    13.73
      271.0,      17.07,    19.74,    18.93,    15.91,    13.70
      272.0,      17.03,    19.70,    18.90,    15.87,    13.66
      273.0,      16.99,    19.65,    18.86,    15.82,    13.62
      274.0,      16.95,    19.61,    18.83,    15.78,    13.58
      275.0,      16.91,    19.57,    18.79,    15.73,    13.55
      276.0,      16.87,    19.53,    18.76,    15.69,    13.51
      277.0,      16.83,    19.48,    18.72,    15.65,    13.47
      278.0,      16.79,    19.44,    18.69,    15.60,    13.43
      279.0,      16.75,    19.40,    18.65,    15.56,    13.40
      280.0,      16.71,    19.36,    18.62,    15.51,    13.36
      281.0,      16.67,    19.32,    18.58,    15.47,    13.32
      282.0,      16.63,    19.27,    18.55,    15.43,    13.29
      283.0,      16.59,    19.23,    18.51,    15.38,    13.25
      284.0,      16.55,    19.19,    18.48,    15.34,    13.21
      285.0,      16.52,    19.15,    18.44,    15.29,    13.18
      286.0,      16.48,    19.11,    18.41,    15.25,    13.14
      287.0,      16.44,    19.07,    18.38,    15.21,    13.10
      288.0,      16.40,    19.02,    18.34,    15.17,    13.07
      289.0,      16.36,    18.98,    18.31,    15.12,    13.03
      290.0,      16.32,    18.94,    18.27,    15.08,    12.99
      291.0,      16.28,    18.90,    18.24,    15.04,    12.96
      292.0,      16.25,    18.86,    18.20,    14.99,    12.92
      293.0,      16.21,    18.82,    18.17,    14.95,    12.89
      294.0,      16.17,    18.78,    18.14,    14.91,    12.85
      295.0,      16.13,    18.74,    18.10,    14.87,    12.82
      296.0,      16.09,    18.70,    18.07,    14.83,    12.78
      297.0,      16.06,    18.66,    18.04,    14.78,    12.75
      298.0,      16.02,    18.62,    18.00,    14.74,    12.71
      299.0,      15.98,    18.58,    17.97,    14.70,    12.68
      300.0,      15.94,    18.54,    17.93,    14.66,    12.64
      301.0,      15.90,    18.50,    17.90,    14.62,    12.61
      302.0,      15.87,    18.46,    17.87,    14.58,    12.57
      303.0,      15.83,    18.42,    17.83,    14.53,    12.54
      304.0,      15.79,    18.38,    17.80,    14.49,    12.50
      305.0,      15.76,    18.34,    17.77,    14.45,    12.47
      306.0,      15.72,    18.30,    17.73,    14.41,    12.43
      307.0,      15.68,    18.26,    17.70,    14.37,    12.40
      308.0,      15.64,    18.22,    17.67,    14.33,    12.36
      309.0,      15.61,    18.18,    17.64,    14.29,    12.33
      310.0,      15.57,    18.14,    17.60,    14.25,    12.30
