Radius (km), Mean (m/s), NE (m/s), SE (m/s), SW (m/s), NW (m/s)
        0.0,       0.00,     0.00,     0.00,     0.00,     0.00
        1.0,       1.26,     1.27,     1.22,     1.23,     1.31
        2.0,       2.16,     2.18,     2.11,     2.13,     2.22
        3.0,       2.96,     2.98,     2.90,     2.93,     3.03
        4.0,       3.70,     3.72,     3.65,     3.67,     3.77
        5.0,       4.40,     4.42,     4.36,     4.38,     4.46
        6.0,       5.08,     5.09,     5.03,     5.05,     5.13
        7.0,       5.72,     5.74,     5.69,     5.70,     5.77
        8.0,       6.35,     6.36,     6.32,     6.34,     6.38
        9.0,       6.96,     6.97,     6.94,     6.95,     6.98
       10.0,       7.56,     7.56,     7.55,     7.55,     7.56
       11.0,       8.14,     8.14,     8.14,     8.14,     8.13
       12.0,       8.71,     8.71,     8.72,     8.72,     8.69
       13.0,       9.27,     9.26,     9.29,     9.28,     9.23
       14.0,       9.82,     9.81,     9.86,     9.84,     9.77
       15.0,      10.36,    10.35,    10.41,    10.39,    10.30
       16.0,      10.89,    10.88,    10.96,    10.93,    10.81
       17.0,      11.42,    11.40,    11.50,    11.47,    11.32
       18.0,      11.94,    11.91,    12.03,    11.99,    11.83
       19.0,      12.45,    12.42,    12.56,    12.51,    12.33
       20.0,      12.96,    12.93,    13.08,    13.03,    12.82
       21.0,      13.46,    13.42,    13.59,    13.54,    13.30
       22.0,      13.96,    13.92,    14.10,    14.04,    13.78
       23.0,      14.45,    14.40,    14.61,    14.54,    14.25
       24.0,      14.94,    14.88,    15.11,    15.04,    14.72
       25.0,      15.42,    15.36,    15.61,    15.53,    15.19
       26.0,      15.90,    15.84,    16.10,    16.02,    15.65
       27.0,      16.37,    16.30,    16.59,    16.50,    16.10
       28.0,      16.84,    16.77,    17.08,    16.98,    16.56
       29.0,      17.31,    17.23,    17.56,    17.45,    17.00
       30.0,      17.77,    17.69,    18.04,    17.92,    17.45
       31.0,      18.23,    18.14,    18.51,    18.39,    17.89
       32.0,      18.69,    18.60,    18.99,    18.86,    18.33
       33.0,      19.14,    19.04,    19.45,    19.32,    18.76
       34.0,      19.59,    19.49,    19.92,    19.78,    19.19
       35.0,      20.04,    19.93,    20.38,    20.23,    19.62
       36.0,      20.49,    20.37,    20.84,    20.69,    20.04
       37.0,      20.93,    20.81,    21.30,    21.14,    20.47
       38.0,      21.37,    21.24,    21.76,    21.59,    20.89
       39.0,      21.80,    21.67,    22.21,    22.03,    21.30
       40.0,      22.24,    22.10,    22.66,    22.48,    21.72
       41.0,      22.67,    22.53,    23.11,    22.92,    22.13
       42.0,      23.10,    22.95,    23.55,    23.35,    22.54
       43.0,      23.53,    23.37,    24.00,    23.79,    22.95
       44.0,      23.95,    23.79,    24.44,    24.23,    23.35
       45.0,      24.37,    24.21,    24.88,    24.66,    23.75
       46.0,      24.80,    24.62,    25.32,    25.09,    24.15
       47.0,      25.21,    25.04,    25.75,    25.52,    24.55
       48.0,      25.63,    25.45,    26.19,    25.94,    24.95
       49.0,      26.05,    25.86,    26.62,    26.37,    25.34
       50.0,      26.46,    26.27,    27.05,    26.79,    25.74
       51.0,      26.87,    26.67,    27.48,    27.21,    26.13
       52.0,      27.28,    27.07,    27.90,    27.63,    26.52
       53.0,      27.69,    27.48,    28.33,    28.04,    26.90
       54.0,      28.09,    27.88,    28.75,    28.46,    27.29
       55.0,      28.50,    28.28,    29.17,    28.87,    27.67
       56.0,      28.90,    28.67,    29.59,    29.29,    28.05
       57.0,      29.30,    29.07,    30.01,    29.70,    28.43
       58.0,      29.70,    29.46,    30.43,    30.11,    28.81
       59.0,      30.10,    29.85,    30.85,    30.51,    29.19
       60.0,      30.51,    30.25,    31.28,    30.93,    29.59
       61.0,      30.96,    30.66,    31.76,    31.38,    30.03
       62.0,      31.45,    31.11,    32.30,    31.87,    30.52
       63.0,      32.01,    31.60,    32.92,    32.43,    31.09
       64.0,      32.63,    32.14,    33.61,    33.05,    31.72
       65.0,      33.30,    32.73,    34.35,    33.72,    32.41
       66.0,      33.99,    33.34,    35.10,    34.42,    33.10
       67.0,      34.65,    33.94,    35.81,    35.09,    33.76
       68.0,      35.25,    34.50,    36.44,    35.70,    34.34
       69.0,      35.73,    34.98,    36.94,    36.21,    34.80
       70.0,      36.08,    35.36,    37.27,    36.57,    35.10
       71.0,      36.27,    35.61,    37.43,    36.78,    35.24
       72.0,      36.30,    35.73,    37.42,    36.83,    35.21
       73.0,      36.19,    35.73,    37.26,    36.73,    35.03
       74.0,      35.96,    35.62,    36.97,    36.52,    34.74
       75.0,      35.65,    35.43,    36.60,    36.21,    34.37
       76.0,      35.29,    35.18,    36.19,    35.86,    33.95
       77.0,      34.92,    34.92,    35.76,    35.48,    33.52
       78.0,      34.55,    34.65,    35.34,    35.12,    33.11
       79.0,      34.20,    34.40,    34.94,    34.76,    32.71
       80.0,      33.87,    34.16,    34.57,    34.43,    32.34
       81.0,      33.56,    33.93,    34.21,    34.12,    31.99
       82.0,      33.26,    33.72,    33.86,    33.81,    31.64
       83.0,      32.97,    33.51,    33.52,    33.52,    31.31
       84.0,      32.68,    33.30,    33.20,    33.24,    31.00
       85.0,      32.41,    33.10,    32.88,    32.96,    30.69
       86.0,      32.14,    32.91,    32.58,    32.70,    30.39
       87.0,      31.89,    32.72,    32.28,    32.44,    30.11
       88.0,      31.64,    32.54,    32.00,    32.19,    29.83
       89.0,      31.40,    32.36,    31.72,    31.95,    29.56
       90.0,      31.16,    32.19,    31.45,    31.71,    29.30
       91.0,      30.94,    32.02,    31.19,    31.49,    29.05
       92.0,      30.72,    31.85,    30.94,    31.26,    28.81
       93.0,      30.50,    31.69,    30.69,    31.05,    28.58
       94.0,      30.30,    31.53,    30.46,    30.84,    28.35
       95.0,      30.10,    31.38,    30.23,    30.64,    28.14
       96.0,      29.90,    31.23,    30.00,    30.45,    27.93
       97.0,      29.71,    31.08,    29.79,    30.26,    27.72
       98.0,      29.53,    30.94,    29.58,    30.07,    27.52
       99.0,      29.35,    30.80,    29.38,    29.89,    27.33
      100.0,      29.18,    30.66,    29.18,    29.72,    27.15
      101.0,      29.01,    30.53,    28.99,    29.55,    26.97
      102.0,      28.85,    30.40,    28.80,    29.39,    26.80
      103.0,      28.69,    30.27,    28.62,    29.23,    26.63
      104.0,      28.54,    30.15,    28.45,    29.07,    26.47
      105.0,      28.39,    30.03,    28.28,    28.92,    26.31
      106.0,      28.24,    29.91,    28.12,    28.78,    26.16
      107.0,      28.10,    29.79,    27.96,    28.64,    26.02
      108.0,      27.96,    29.68,    27.80,    28.50,    25.87
      109.0,      27.83,    29.57,    27.65,    28.36,    25.74
      110.0,      27.70,    29.46,    27.51,    28.23,    25.60
      111.0,      27.57,    29.35,    27.36,    28.10,    25.47
      112.0,      27.45,    29.25,    27.23,    27.98,    25.35
      113.0,      27.33,    29.14,    27.09,    27.86,    25.23
      114.0,      27.21,    29.04,    26.96,    27.74,    25.11
      115.0,      27.10,    28.94,    26.84,    27.63,    25.00
      116.0,      26.99,    28.85,    26.71,    27.52,    24.89
      117.0,      26.88,    28.75,    26.59,    27.41,    24.78
      118.0,      26.78,    28.66,    26.48,    27.30,    24.67
      119.0,      26.68,    28.57,    26.36,    27.20,    24.57
      120.0,      26.58,    28.48,    26.25,    27.10,    24.47
      121.0,      26.48,    28.39,    26.15,    27.00,    24.38
      122.0,      26.38,    28.30,    26.04,    26.90,    24.29
      123.0,      26.29,    28.22,    25.94,    26.81,    24.20
      124.0,      26.20,    28.13,    25.84,    26.71,    24.11
      125.0,      26.11,    28.05,    25.75,    26.63,    24.02
      126.0,      26.02,    27.97,    25.65,    26.54,    23.94
      127.0,      25.94,    27.89,    25.56,    26.45,    23.86
      128.0,      25.86,    27.81,    25.47,    26.37,    23.78
      129.0,      25.78,    27.73,    25.39,    26.29,    23.71
      130.0,      25.70,    27.66,    25.30,    26.21,    23.63
      131.0,      25.62,    27.58,    25.22,    26.13,    23.56
      132.0,      25.55,    27.51,    25.14,    26.05,    23.49
      133.0,      25.47,    27.43,    25.06,    25.98,    23.42
      134.0,      25.40,    27.36,    24.98,    25.90,    23.35
      135.0,      25.33,    27.29,    24.91,    25.83,    23.29
      136.0,      25.26,    27.22,    24.84,    25.76,    23.22
      137.0,      25.19,    27.15,    24.77,    25.69,    23.16
      138.0,      25.13,    27.08,    24.70,    25.62,    23.10
      139.0,      25.06,    27.02,    24.63,    25.55,    23.04
      140.0,      25.00,    26.95,    24.56,    25.49,    22.98
      141.0,      24.93,    26.88,    24.50,    25.42,    22.93
      142.0,      24.87,    26.82,    24.43,    25.36,    22.87
      143.0,      24.81,    26.75,    24.37,    25.30,    22.82
      144.0,      24.75,    26.69,    24.31,    25.24,    22.77
      145.0,      24.69,    26.63,    24.25,    25.18,    22.71
      146.0,      24.64,    26.57,    24.19,    25.12,    22.66
      147.0,      24.58,    26.50,    24.14,    25.06,    22.62
      148.0,      24.52,    26.44,    24.08,    25.01,    22.57
      149.0,      24.47,    26.38,    24.03,    24.95,    22.52
      150.0,      24.42,    26.32,    23.97,    24.89,    22.47
      151.0,      24.36,    26.26,    23.92,    24.84,    22.43
      152.0,      24.31,    26.21,    23.87,    24.79,    22.38
      153.0,      24.26,    26.15,    23.82,    24.73,    22.34
      154.0,      24.21,    26.09,    23.77,    24.68,    22.30
      155.0,      24.16,    26.04,    23.72,    24.63,    22.26
      156.0,      24.11,    25.98,    23.67,    24.58,    22.21
      157.0,      24.06,    25.92,    23.62,    24.53,    22.17
      158.0,      24.02,    25.87,    23.58,    24.48,    22.13
      159.0,      23.97,    25.81,    23.53,    24.43,    22.09
      160.0,      23.92,    25.76,    23.49,    24.39,    22.06
      161.0,      23.88,    25.71,    23.45,    24.34,    22.02
      162.0,      23.83,    25.65,    23.40,    24.29,    21.98
      163.0,      23.79,    25.60,    23.36,    24.25,    21.95
      164.0,      23.74,    25.55,    23.32,    24.20,    21.91
      165.0,      23.70,    25.49,    23.28,    24.16,    21.87
      166.0,      23.66,    25.44,    23.24,    24.11,    21.84
      167.0,      23.62,    25.39,    23.20,    24.07,    21.80
      168.0,      23.57,    25.34,    23.16,    24.02,    21.77
      169.0,      23.53,    25.29,    23.12,    23.98,    21.74
      170.0,      23.49,    25.24,    23.08,    23.94,    21.70
      171.0,      23.45,    25.19,    23.05,    23.90,    21.67
      172.0,      23.41,    25.14,    23.01,    23.85,    21.64
      173.0,      23.37,    25.09,    22.97,    23.81,    21.61
      174.0,      23.33,    25.04,    22.94,    23.77,    21.58
      175.0,      23.29,    24.99,    22.90,    23.73,    21.55
      176.0,      23.25,    24.94,    22.87,    23.69,    21.52
      177.0,      23.22,    24.89,    22.83,    23.65,    21.49
      178.0,      23.18,    24.85,    22.80,    23.61,    21.46
      179.0,      23.14,    24.80,    22.76,    23.57,    21.43
      180.0,      23.10,    24.75,    22.73,    23.53,    21.40
      181.0,      23.07,    24.70,    22.70,    23.50,    21.37
      182.0,      23.03,    24.66,    22.67,    23.46,    21.34
      183.0,      22.99,    24.61,    22.63,    23.42,    21.31
      184.0,      22.96,    24.56,    22.60,    23.38,    21.28
      185.0,      22.92,    24.52,    22.57,    23.34,    21.26
      186.0,      22.89,    24.47,    22.54,    23.31,    21.23
      187.0,      22.85,    24.43,    22.51,    23.27,    21.20
      188.0,      22.82,    24.38,    22.48,    23.23,    21.18
      189.0,      22.78,    24.34,    22.45,    23.20,    21.15
      190.0,      22.75,    24.29,    22.42,    23.16,    21.12
      191.0,      22.71,    24.25,    22.39,    23.13,    21.10
      192.0,      22.68,    24.20,    22.36,    23.09,    21.07
      193.0,      22.65,    24.16,    22.33,    23.06,    21.04
      194.0,      22.61,    24.11,    22.30,    23.02,    21.02
      195.0,      22.58,    24.07,    22.27,    22.99,    20.99
      196.0,      22.55,    24.02,    22.25,    22.95,    20.97
      197.0,      22.51,    23.98,    22.22,    22.92,    20.94
      198.0,      22.48,    23.94,    22.19,    22.88,    20.92
      199.0,      22.45,    23.89,    22.16,    22.85,    20.89
      200.0,      22.42,    23.85,    22.14,    22.81,    20.87
      201.0,      22.38,    23.80,    22.11,    22.78,    20.84
      202.0,      22.35,    23.76,    22.08,    22.75,    20.82
      203.0,      22.32,    23.72,    22.05,    22.71,    20.80
      204.0,      22.29,    23.68,    22.03,    22.68,    20.77
      205.0,      22.26,    23.63,    22.00,    22.65,    20.75
      206.0,      22.23,    23.59,    21.98,    22.61,    20.73
      207.0,      22.20,    23.55,    21.95,    22.58,    20.70
      208.0,      22.16,    23.51,    21.92,    22.55,    20.68
      209.0,      22.13,    23.46,    21.90,    22.52,    20.66
      210.0,      22.10,    23.42,    21.87,    22.48,    20.63
      211.0,      22.07,    23.38,    21.85,    22.45,    20.61
      212.0,      22.04,    23.34,    21.82,    22.42,    20.59
      213.0,      22.01,    23.30,    21.80,    22.39,    20.56
      214.0,      21.98,    23.26,    21.77,    22.35,    20.54
      215.0,      21.95,    23.21,    21.75,    22.32,    20.52
      216.0,      21.92,    23.17,    21.72,    22.29,    20.50
      217.0,      21.89,    23.13,    21.70,    22.26,    20.47
      218.0,      21.86,    23.09,    21.67,    22.23,    20.45
      219.0,      21.83,    23.05,    21.65,    22.20,    20.43
      220.0,      21.80,    23.01,    21.62,    22.16,    20.41
      221.0,      21.77,    22.97,    21.60,    22.13,    20.38
      222.0,      21.74,    22.93,    21.58,    22.10,    20.36
      223.0,      21.71,    22.89,    21.55,    22.07,    20.34
      224.0,      21.68,    22.85,    21.53,    22.04,    20.32
      225.0,      21.65,    22.81,    21.50,    22.01,    20.30
      226.0,      21.63,    22.77,    21.48,    21.98,    20.28
      227.0,      21.60,    22.73,    21.46,    21.95,    20.25
      228.0,      21.57,    22.69,    21.43,    21.92,    20.23
      229.0,      21.54,    22.65,    21.41,    21.89,    20.21
      230.0,      21.51,    22.61,    21.39,    21.86,    20.19
      231.0,      21.48,    22.57,    21.36,    21.83,    20.17
      232.0,      21.45,    22.53,    21.34,    21.80,    20.15
      233.0,      21.43,    22.49,    21.32,    21.77,    20.13
      234.0,      21.40,    22.45,    21.30,    21.74,    20.11
      235.0,      21.37,    22.41,    21.27,    21.71,    20.08
      236.0,      21.34,    22.37,    21.25,    21.68,    20.06
      237.0,      21.31,    22.33,    21.23,    21.65,    20.04
      238.0,      21.28,    22.29,    21.20,    21.62,    20.02
      239.0,      21.26,    22.26,    21.18,    21.59,    20.00
      240.0,      21.23,    22.22,    21.16,    21.56,    19.98
      241.0,      21.20,    22.18,    21.14,    21.53,    19.96
      242.0,      21.17,    22.14,    21.11,    21.50,    19.94
      243.0,      21.15,    22.10,    21.09,    21.47,    19.92
      244.0,      21.12,    22.06,    21.07,    21.44,    19.90
      245.0,      21.09,    22.02,    21.05,    21.41,    19.88
      246.0,      21.06,    21.99,    21.03,    21.38,    19.86
      247.0,      21.03,    21.95,    21.00,    21.35,    19.84
      248.0,      21.01,    21.91,    20.98,    21.32,    19.82
      249.0,      20.98,    21.87,    20.96,    21.30,    19.79
      250.0,      20.95,    21.83,    20.94,    21.27,    19.77
      251.0,      20.93,    21.80,    20.92,    21.24,    19.75
      252.0,      20.90,    21.76,    20.89,    21.21,    19.73
      253.0,      20.87,    21.72,    20.87,    21.18,    19.71
      254.0,      20.84,    21.68,    20.85,    21.15,    19.69
      255.0,      20.82,    21.64,    20.83,    21.12,    19.67
      256.0,      20.79,    21.61,    20.81,    21.09,    19.65
      257.0,      20.76,    21.57,    20.79,    21.07,    19.63
      258.0,      20.74,    21.53,    20.76,    21.04,    19.61
      259.0,      20.71,    21.50,    20.74,    21.01,    19.59
      260.0,      20.68,    21.46,    20.72,    20.98,    19.57
      261.0,      20.66,    21.42,    20.70,    20.95,    19.55
      262.0,      20.63,    21.38,    20.68,    20.92,    19.53
      263.0,      20.60,    21.35,    20.66,    20.90,    19.51
      264.0,      20.58,    21.31,    20.64,    20.87,    19.49
      265.0,      20.55,    21.27,    20.62,    20.84,    19.47
      266.0,      20.52,    21.24,    20.59,    20.81,    19.45
      267.0,      20.50,    21.20,    20.57,    20.78,    19.43
      268.0,      20.47,    21.16,    20.55,    20.75,    19.41
      269.0,      20.45,    21.13,    20.53,    20.73,    19.40
      270.0,      20.42,    21.09,    20.51,    20.70,    19.38
      271.0,      20.39,    21.05,    20.49,    20.67,    19.36
      272.0,      20.37,    21.02,    20.47,    20.64,    19.34
      273.0,      20.34,    20.98,    20.45,    20.62,    19.32
      274.0,      20.31,    20.95,    20.43,    20.59,    19.30
      275.0,      20.29,    20.91,    20.41,    20.56,    19.28
      276.0,      20.26,    20.87,    20.39,    20.53,    19.26
      277.0,      20.24,    20.84,    20.36,    20.51,    19.24
      278.0,      20.21,    20.80,    20.34,    20.48,    19.22
      279.0,      20.18,    20.77,    20.32,    20.45,    19.20
      280.0,      20.16,    20.73,    20.30,    20.42,    19.18
      281.0,      20.13,    20.69,    20.28,    20.40,    19.16
      282.0,      20.11,    20.66,    20.26,    20.37,    19.14
      283.0,      20.08,    20.62,    20.24,    20.34,    19.12
      284.0,      20.06,    20.59,    20.22,    20.31,    19.10
      285.0,      20.03,    20.55,    20.20,    20.29,    19.08
      286.0,      20.01,    20.52,    20.18,    20.26,    19.06
      287.0,      19.98,    20.48,    20.16,    20.23,    19.05
      288.0,      19.95,    20.45,    20.14,    20.21,    19.03
      289.0,      19.93,    20.41,    20.12,    20.18,    19.01
      290.0,      19.90,    20.38,    20.10,    20.15,    18.99
      291.0,      19.88,    20.34,    20.08,    20.12,    18.97
      292.0,      19.85,    20.31,    20.06,    20.10,    18.95
      293.0,      19.83,    20.27,    20.04,    20.07,    18.93
      294.0,      19.80,    20.24,    20.02,    20.04,    18.91
      295.0,      19.78,    20.20,    20.00,    20.02,    18.89
      296.0,      19.75,    20.17,    19.98,    19.99,    18.87
      297.0,      19.73,    20.13,    19.96,    19.96,    18.86
      298.0,      19.70,    20.10,    19.94,    19.94,    18.84
      299.0,      19.68,    20.06,    19.92,    19.91,    18.82
      300.0,      19.65,    20.03,    19.90,    19.88,    18.80
      301.0,      19.63,    19.99,    19.88,    19.86,    18.78
      302.0,      19.60,    19.96,    19.86,    19.83,    18.76
      303.0,      19.58,    19.93,    19.84,    19.80,    18.74
      304.0,      19.55,    19.89,    19.82,    19.78,    18.72
      305.0,      19.53,    19.86,    19.80,    19.75,    18.70
      306.0,      19.50,    19.82,    19.78,    19.72,    18.69
      307.0,      19.48,    19.79,    19.76,    19.70,    18.67
      308.0,      19.45,    19.75,    19.74,    19.67,    18.65
      309.0,      19.43,    19.72,    19.72,    19.65,    18.63
      310.0,      19.40,    19.69,    19.70,    19.62,    18.61
