Radius (km), Mean (m/s), NE (m/s), SE (m/s), SW (m/s), NW (m/s)
        0.0,       0.00,     0.00,     0.00,     0.00,     0.00
        1.0,       1.66,     1.50,     1.65,     1.96,     1.50
        2.0,       2.88,     2.78,     2.93,     3.03,     2.78
        3.0,       3.99,     3.98,     4.10,     3.90,     3.98
        4.0,       5.03,     5.14,     5.20,     4.66,     5.14
        5.0,       6.03,     6.26,     6.26,     5.36,     6.26
        6.0,       7.00,     7.35,     7.28,     6.01,     7.35
        7.0,       7.94,     8.43,     8.27,     6.61,     8.43
        8.0,       8.85,     9.49,     9.24,     7.19,     9.49
        9.0,       9.74,    10.53,    10.18,     7.73,    10.53
       10.0,      10.62,    11.56,    11.11,     8.26,    11.56
       11.0,      11.49,    12.58,    12.02,     8.77,    12.58
       12.0,      12.34,    13.59,    12.92,     9.26,    13.59
       13.0,      13.17,    14.58,    13.80,     9.73,    14.58
       14.0,      14.00,    15.57,    14.67,    10.19,    15.57
       15.0,      14.82,    16.55,    15.54,    10.64,    16.55
       16.0,      15.63,    17.53,    16.39,    11.08,    17.53
       17.0,      16.43,    18.49,    17.23,    11.50,    18.49
       18.0,      17.22,    19.46,    18.07,    11.92,    19.46
       19.0,      18.01,    20.41,    18.89,    12.33,    20.41
       20.0,      18.79,    21.36,    19.71,    12.73,    21.36
       21.0,      19.57,    22.31,    20.53,    13.13,    22.31
       22.0,      20.38,    23.31,    21.37,    13.53,    23.31
       23.0,      21.25,    24.39,    22.28,    13.95,    24.40
       24.0,      22.23,    25.61,    23.29,    14.40,    25.62
       25.0,      23.33,    26.99,    24.43,    14.91,    27.00
       26.0,      24.56,    28.53,    25.71,    15.47,    28.53
       27.0,      25.87,    30.17,    27.09,    16.06,    30.17
       28.0,      27.22,    31.85,    28.50,    16.68,    31.84
       29.0,      28.52,    33.46,    29.88,    17.27,    33.45
       30.0,      29.69,    34.92,    31.14,    17.82,    34.90
       31.0,      30.68,    36.13,    32.19,    18.28,    36.10
       32.0,      31.41,    37.03,    32.98,    18.63,    37.00
       33.0,      31.87,    37.59,    33.47,    18.87,    37.56
       34.0,      32.06,    37.81,    33.67,    18.98,    37.78
       35.0,      32.00,    37.72,    33.60,    18.97,    37.70
       36.0,      31.74,    37.39,    33.30,    18.88,    37.38
       37.0,      31.33,    36.88,    32.85,    18.71,    36.88
       38.0,      30.84,    36.28,    32.29,    18.50,    36.29
       39.0,      30.32,    35.63,    31.70,    18.27,    35.66
       40.0,      29.79,    34.99,    31.11,    18.04,    35.04
       41.0,      29.30,    34.38,    30.54,    17.82,    34.44
       42.0,      28.82,    33.80,    30.00,    17.62,    33.88
       43.0,      28.37,    33.25,    29.49,    17.42,    33.34
       44.0,      27.94,    32.72,    29.00,    17.23,    32.83
       45.0,      27.53,    32.21,    28.53,    17.05,    32.33
       46.0,      27.13,    31.72,    28.08,    16.87,    31.85
       47.0,      26.75,    31.25,    27.65,    16.70,    31.39
       48.0,      26.38,    30.79,    27.23,    16.54,    30.95
       49.0,      26.02,    30.35,    26.83,    16.39,    30.53
       50.0,      25.68,    29.93,    26.44,    16.23,    30.12
       51.0,      25.35,    29.53,    26.06,    16.09,    29.72
       52.0,      25.03,    29.14,    25.71,    15.95,    29.34
       53.0,      24.73,    28.76,    25.36,    15.81,    28.98
       54.0,      24.43,    28.40,    25.03,    15.68,    28.62
       55.0,      24.15,    28.06,    24.71,    15.55,    28.28
       56.0,      23.88,    27.72,    24.40,    15.43,    27.96
       57.0,      23.61,    27.40,    24.10,    15.31,    27.64
       58.0,      23.36,    27.09,    23.81,    15.20,    27.34
       59.0,      23.12,    26.79,    23.54,    15.09,    27.05
       60.0,      22.88,    26.50,    23.27,    14.99,    26.77
       61.0,      22.65,    26.22,    23.02,    14.88,    26.50
       62.0,      22.44,    25.95,    22.77,    14.78,    26.24
       63.0,      22.23,    25.70,    22.53,    14.69,    25.98
       64.0,      22.02,    25.45,    22.30,    14.60,    25.74
       65.0,      21.83,    25.21,    22.08,    14.51,    25.51
       66.0,      21.64,    24.98,    21.87,    14.42,    25.28
       67.0,      21.46,    24.76,    21.66,    14.34,    25.06
       68.0,      21.28,    24.54,    21.47,    14.26,    24.86
       69.0,      21.11,    24.33,    21.27,    14.18,    24.65
       70.0,      20.95,    24.13,    21.09,    14.10,    24.46
       71.0,      20.79,    23.94,    20.91,    14.03,    24.27
       72.0,      20.64,    23.76,    20.74,    13.96,    24.09
       73.0,      20.49,    23.58,    20.58,    13.89,    23.91
       74.0,      20.35,    23.40,    20.42,    13.83,    23.74
       75.0,      20.21,    23.24,    20.26,    13.76,    23.58
       76.0,      20.08,    23.08,    20.12,    13.70,    23.42
       77.0,      19.95,    22.92,    19.97,    13.64,    23.27
       78.0,      19.83,    22.77,    19.83,    13.58,    23.12
       79.0,      19.71,    22.62,    19.70,    13.52,    22.98
       80.0,      19.59,    22.48,    19.57,    13.47,    22.84
       81.0,      19.48,    22.35,    19.45,    13.42,    22.71
       82.0,      19.37,    22.22,    19.33,    13.36,    22.58
       83.0,      19.27,    22.09,    19.21,    13.31,    22.46
       84.0,      19.17,    21.97,    19.10,    13.27,    22.34
       85.0,      19.07,    21.85,    18.99,    13.22,    22.22
       86.0,      18.98,    21.74,    18.88,    13.17,    22.11
       87.0,      18.89,    21.63,    18.78,    13.13,    22.00
       88.0,      18.80,    21.52,    18.68,    13.08,    21.90
       89.0,      18.71,    21.42,    18.59,    13.04,    21.80
       90.0,      18.63,    21.32,    18.50,    13.00,    21.70
       91.0,      18.55,    21.22,    18.41,    12.96,    21.60
       92.0,      18.47,    21.13,    18.32,    12.92,    21.51
       93.0,      18.39,    21.03,    18.24,    12.88,    21.42
       94.0,      18.32,    20.95,    18.16,    12.85,    21.34
       95.0,      18.25,    20.86,    18.08,    12.81,    21.25
       96.0,      18.18,    20.78,    18.00,    12.78,    21.17
       97.0,      18.11,    20.70,    17.93,    12.74,    21.09
       98.0,      18.05,    20.62,    17.86,    12.71,    21.01
       99.0,      17.99,    20.54,    17.79,    12.68,    20.94
      100.0,      17.93,    20.47,    17.72,    12.64,    20.87
      101.0,      17.87,    20.40,    17.65,    12.61,    20.80
      102.0,      17.81,    20.33,    17.59,    12.58,    20.73
      103.0,      17.75,    20.26,    17.53,    12.55,    20.66
      104.0,      17.70,    20.20,    17.47,    12.52,    20.60
      105.0,      17.64,    20.13,    17.41,    12.49,    20.54
      106.0,      17.59,    20.07,    17.35,    12.47,    20.48
      107.0,      17.54,    20.01,    17.30,    12.44,    20.42
      108.0,      17.49,    19.95,    17.25,    12.41,    20.36
      109.0,      17.45,    19.90,    17.19,    12.39,    20.30
      110.0,      17.40,    19.84,    17.14,    12.36,    20.25
      111.0,      17.35,    19.79,    17.09,    12.34,    20.19
      112.0,      17.31,    19.74,    17.05,    12.31,    20.14
      113.0,      17.27,    19.69,    17.00,    12.29,    20.09
      114.0,      17.22,    19.64,    16.95,    12.26,    20.04
      115.0,      17.18,    19.59,    16.91,    12.24,    19.99
      116.0,      17.14,    19.54,    16.86,    12.22,    19.95
      117.0,      17.10,    19.49,    16.82,    12.20,    19.90
      118.0,      17.06,    19.45,    16.78,    12.17,    19.86
      119.0,      17.03,    19.40,    16.74,    12.15,    19.81
      120.0,      16.99,    19.36,    16.70,    12.13,    19.77
      121.0,      16.95,    19.32,    16.66,    12.11,    19.73
      122.0,      16.92,    19.28,    16.62,    12.09,    19.69
      123.0,      16.89,    19.24,    16.59,    12.07,    19.65
      124.0,      16.85,    19.20,    16.55,    12.05,    19.61
      125.0,      16.82,    19.16,    16.52,    12.03,    19.57
      126.0,      16.79,    19.12,    16.48,    12.01,    19.53
      127.0,      16.75,    19.08,    16.45,    11.99,    19.49
      128.0,      16.72,    19.05,    16.41,    11.97,    19.46
      129.0,      16.69,    19.01,    16.38,    11.95,    19.42
      130.0,      16.66,    18.98,    16.35,    11.93,    19.39
      131.0,      16.63,    18.94,    16.32,    11.92,    19.35
      132.0,      16.60,    18.91,    16.29,    11.90,    19.32
      133.0,      16.58,    18.88,    16.26,    11.88,    19.29
      134.0,      16.55,    18.84,    16.23,    11.86,    19.25
      135.0,      16.52,    18.81,    16.20,    11.84,    19.22
      136.0,      16.49,    18.78,    16.17,    11.83,    19.19
      137.0,      16.47,    18.75,    16.14,    11.81,    19.16
      138.0,      16.44,    18.72,    16.12,    11.79,    19.13
      139.0,      16.41,    18.69,    16.09,    11.78,    19.10
      140.0,      16.39,    18.66,    16.06,    11.76,    19.07
      141.0,      16.36,    18.63,    16.03,    11.74,    19.04
      142.0,      16.34,    18.60,    16.01,    11.73,    19.01
      143.0,      16.31,    18.58,    15.98,    11.71,    18.98
      144.0,      16.29,    18.55,    15.96,    11.70,    18.96
      145.0,      16.27,    18.52,    15.93,    11.68,    18.93
      146.0,      16.24,    18.49,    15.91,    11.67,    18.90
      147.0,      16.22,    18.47,    15.88,    11.65,    18.88
      148.0,      16.20,    18.44,    15.86,    11.63,    18.85
      149.0,      16.17,    18.42,    15.84,    11.62,    18.82
      150.0,      16.15,    18.39,    15.81,    11.60,    18.80
      151.0,      16.13,    18.36,    15.79,    11.59,    18.77
      152.0,      16.11,    18.34,    15.77,    11.57,    18.75
      153.0,      16.09,    18.31,    15.75,    11.56,    18.72
      154.0,      16.06,    18.29,    15.72,    11.54,    18.70
      155.0,      16.04,    18.27,    15.70,    11.53,    18.67
      156.0,      16.02,    18.24,    15.68,    11.52,    18.65
      157.0,      16.00,    18.22,    15.66,    11.50,    18.62
      158.0,      15.98,    18.20,    15.64,    11.49,    18.60
      159.0,      15.96,    18.17,    15.62,    11.47,    18.58
      160.0,      15.94,    18.15,    15.60,    11.46,    18.55
      161.0,      15.92,    18.13,    15.57,    11.44,    18.53
      162.0,      15.90,    18.10,    15.55,    11.43,    18.51
      163.0,      15.88,    18.08,    15.53,    11.42,    18.49
      164.0,      15.86,    18.06,    15.51,    11.40,    18.46
      165.0,      15.84,    18.04,    15.49,    11.39,    18.44
      166.0,      15.82,    18.02,    15.47,    11.38,    18.42
      167.0,      15.80,    17.99,    15.45,    11.36,    18.40
      168.0,      15.78,    17.97,    15.43,    11.35,    18.38
      169.0,      15.76,    17.95,    15.42,    11.34,    18.35
      170.0,      15.75,    17.93,    15.40,    11.32,    18.33
      171.0,      15.73,    17.91,    15.38,    11.31,    18.31
      172.0,      15.71,    17.89,    15.36,    11.30,    18.29
      173.0,      15.69,    17.87,    15.34,    11.28,    18.27
      174.0,      15.67,    17.85,    15.32,    11.27,    18.25
      175.0,      15.65,    17.83,    15.30,    11.26,    18.23
      176.0,      15.63,    17.81,    15.28,    11.24,    18.21
      177.0,      15.62,    17.79,    15.27,    11.23,    18.19
      178.0,      15.60,    17.77,    15.25,    11.22,    18.17
      179.0,      15.58,    17.75,    15.23,    11.20,    18.15
      180.0,      15.56,    17.73,    15.21,    11.19,    18.13
      181.0,      15.55,    17.71,    15.19,    11.18,    18.10
      182.0,      15.53,    17.69,    15.18,    11.16,    18.08
      183.0,      15.51,    17.67,    15.16,    11.15,    18.06
      184.0,      15.49,    17.65,    15.14,    11.14,    18.05
      185.0,      15.48,    17.63,    15.12,    11.13,    18.03
      186.0,      15.46,    17.61,    15.11,    11.11,    18.01
      187.0,      15.44,    17.59,    15.09,    11.10,    17.99
      188.0,      15.42,    17.57,    15.07,    11.09,    17.97
      189.0,      15.41,    17.55,    15.05,    11.08,    17.95
      190.0,      15.39,    17.53,    15.04,    11.06,    17.93
      191.0,      15.37,    17.51,    15.02,    11.05,    17.91
      192.0,      15.36,    17.49,    15.00,    11.04,    17.89
      193.0,      15.34,    17.48,    14.98,    11.03,    17.87
      194.0,      15.32,    17.46,    14.97,    11.01,    17.85
      195.0,      15.31,    17.44,    14.95,    11.00,    17.83
      196.0,      15.29,    17.42,    14.93,    10.99,    17.81
      197.0,      15.27,    17.40,    14.92,    10.98,    17.79
      198.0,      15.26,    17.38,    14.90,    10.96,    17.78
      199.0,      15.24,    17.36,    14.88,    10.95,    17.76
      200.0,      15.22,    17.35,    14.87,    10.94,    17.74
      201.0,      15.21,    17.33,    14.85,    10.93,    17.72
      202.0,      15.19,    17.31,    14.83,    10.91,    17.70
      203.0,      15.17,    17.29,    14.82,    10.90,    17.68
      204.0,      15.16,    17.27,    14.80,    10.89,    17.66
      205.0,      15.14,    17.26,    14.79,    10.88,    17.65
      206.0,      15.13,    17.24,    14.77,    10.87,    17.63
      207.0,      15.11,    17.22,    14.75,    10.85,    17.61
      208.0,      15.09,    17.20,    14.74,    10.84,    17.59
      209.0,      15.08,    17.18,    14.72,    10.83,    17.57
      210.0,      15.06,    17.17,    14.70,    10.82,    17.55
      211.0,      15.04,    17.15,    14.69,    10.81,    17.54
      212.0,      15.03,    17.13,    14.67,    10.79,    17.52
      213.0,      15.01,    17.11,    14.66,    10.78,    17.50
      214.0,      15.00,    17.09,    14.64,    10.77,    17.48
      215.0,      14.98,    17.08,    14.62,    10.76,    17.46
      216.0,      14.97,    17.06,    14.61,    10.75,    17.45
      217.0,      14.95,    17.04,    14.59,    10.73,    17.43
      218.0,      14.93,    17.02,    14.58,    10.72,    17.41
      219.0,      14.92,    17.01,    14.56,    10.71,    17.39
      220.0,      14.90,    16.99,    14.55,    10.70,    17.37
      221.0,      14.89,    16.97,    14.53,    10.69,    17.36
      222.0,      14.87,    16.95,    14.51,    10.68,    17.34
      223.0,      14.86,    16.94,    14.50,    10.66,    17.32
      224.0,      14.84,    16.92,    14.48,    10.65,    17.30
      225.0,      14.82,    16.90,    14.47,    10.64,    17.29
      226.0,      14.81,    16.89,    14.45,    10.63,    17.27
      227.0,      14.79,    16.87,    14.44,    10.62,    17.25
      228.0,      14.78,    16.85,    14.42,    10.61,    17.23
      229.0,      14.76,    16.83,    14.41,    10.59,    17.22
      230.0,      14.75,    16.82,    14.39,    10.58,    17.20
      231.0,      14.73,    16.80,    14.37,    10.57,    17.18
      232.0,      14.72,    16.78,    14.36,    10.56,    17.16
      233.0,      14.70,    16.77,    14.34,    10.55,    17.15
      234.0,      14.69,    16.75,    14.33,    10.54,    17.13
      235.0,      14.67,    16.73,    14.31,    10.52,    17.11
      236.0,      14.65,    16.72,    14.30,    10.51,    17.09
      237.0,      14.64,    16.70,    14.28,    10.50,    17.08
      238.0,      14.62,    16.68,    14.27,    10.49,    17.06
      239.0,      14.61,    16.66,    14.25,    10.48,    17.04
      240.0,      14.59,    16.65,    14.24,    10.47,    17.02
      241.0,      14.58,    16.63,    14.22,    10.46,    17.01
      242.0,      14.56,    16.61,    14.21,    10.44,    16.99
      243.0,      14.55,    16.60,    14.19,    10.43,    16.97
      244.0,      14.53,    16.58,    14.18,    10.42,    16.96
      245.0,      14.52,    16.56,    14.16,    10.41,    16.94
      246.0,      14.50,    16.55,    14.15,    10.40,    16.92
      247.0,      14.49,    16.53,    14.13,    10.39,    16.90
      248.0,      14.47,    16.51,    14.12,    10.38,    16.89
      249.0,      14.46,    16.50,    14.10,    10.36,    16.87
      250.0,      14.44,    16.48,    14.09,    10.35,    16.85
      251.0,      14.43,    16.46,    14.07,    10.34,    16.84
      252.0,      14.41,    16.45,    14.06,    10.33,    16.82
      253.0,      14.40,    16.43,    14.04,    10.32,    16.80
      254.0,      14.38,    16.41,    14.03,    10.31,    16.79
      255.0,      14.37,    16.40,    14.01,    10.30,    16.77
      256.0,      14.35,    16.38,    14.00,    10.29,    16.75
      257.0,      14.34,    16.36,    13.98,    10.27,    16.74
      258.0,      14.32,    16.35,    13.97,    10.26,    16.72
      259.0,      14.31,    16.33,    13.95,    10.25,    16.70
      260.0,      14.29,    16.32,    13.94,    10.24,    16.69
      261.0,      14.28,    16.30,    13.92,    10.23,    16.67
      262.0,      14.27,    16.28,    13.91,    10.22,    16.65
      263.0,      14.25,    16.27,    13.89,    10.21,    16.63
      264.0,      14.24,    16.25,    13.88,    10.20,    16.62
      265.0,      14.22,    16.23,    13.86,    10.18,    16.60
      266.0,      14.21,    16.22,    13.85,    10.17,    16.58
      267.0,      14.19,    16.20,    13.84,    10.16,    16.57
      268.0,      14.18,    16.18,    13.82,    10.15,    16.55
      269.0,      14.16,    16.17,    13.81,    10.14,    16.53
      270.0,      14.15,    16.15,    13.79,    10.13,    16.52
      271.0,      14.13,    16.14,    13.78,    10.12,    16.50
      272.0,      14.12,    16.12,    13.76,    10.11,    16.49
      273.0,      14.10,    16.10,    13.75,    10.10,    16.47
      274.0,      14.09,    16.09,    13.73,    10.09,    16.45
      275.0,      14.08,    16.07,    13.72,    10.07,    16.44
      276.0,      14.06,    16.06,    13.70,    10.06,    16.42
      277.0,      14.05,    16.04,    13.69,    10.05,    16.40
      278.0,      14.03,    16.02,    13.68,    10.04,    16.39
      279.0,      14.02,    16.01,    13.66,    10.03,    16.37
      280.0,      14.00,    15.99,    13.65,    10.02,    16.35
      281.0,      13.99,    15.97,    13.63,    10.01,    16.34
      282.0,      13.97,    15.96,    13.62,    10.00,    16.32
      283.0,      13.96,    15.94,    13.60,     9.99,    16.30
      284.0,      13.94,    15.93,    13.59,     9.98,    16.29
      285.0,      13.93,    15.91,    13.57,     9.97,    16.27
      286.0,      13.92,    15.90,    13.56,     9.95,    16.26
      287.0,      13.90,    15.88,    13.55,     9.94,    16.24
      288.0,      13.89,    15.86,    13.53,     9.93,    16.22
      289.0,      13.87,    15.85,    13.52,     9.92,    16.21
      290.0,      13.86,    15.83,    13.50,     9.91,    16.19
      291.0,      13.84,    15.82,    13.49,     9.90,    16.17
      292.0,      13.83,    15.80,    13.47,     9.89,    16.16
      293.0,      13.82,    15.78,    13.46,     9.88,    16.14
      294.0,      13.80,    15.77,    13.45,     9.87,    16.13
      295.0,      13.79,    15.75,    13.43,     9.86,    16.11
      296.0,      13.77,    15.74,    13.42,     9.85,    16.09
      297.0,      13.76,    15.72,    13.40,     9.84,    16.08
      298.0,      13.75,    15.71,    13.39,     9.82,    16.06
      299.0,      13.73,    15.69,    13.38,     9.81,    16.05
      300.0,      13.72,    15.67,    13.36,     9.80,    16.03
      301.0,      13.70,    15.66,    13.35,     9.79,    16.01
      302.0,      13.69,    15.64,    13.33,     9.78,    16.00
      303.0,      13.67,    15.63,    13.32,     9.77,    15.98
      304.0,      13.66,    15.61,    13.31,     9.76,    15.97
      305.0,      13.65,    15.60,    13.29,     9.75,    15.95
      306.0,      13.63,    15.58,    13.28,     9.74,    15.93
      307.0,      13.62,    15.56,    13.26,     9.73,    15.92
      308.0,      13.60,    15.55,    13.25,     9.72,    15.90
      309.0,      13.59,    15.53,    13.24,     9.71,    15.89
      310.0,      13.58,    15.52,    13.22,     9.70,    15.87
