Radius (km), Mean (m/s), NE (m/s), SE (m/s), SW (m/s), NW (m/s)
        0.0,       0.00,     0.00,     0.00,     0.00,     0.00
        1.0,       1.48,     1.48,     1.48,     1.48,     1.48
        2.0,       2.57,     2.57,     2.57,     2.57,     2.57
        3.0,       3.54,     3.54,     3.54,     3.54,     3.54
        4.0,       4.46,     4.46,     4.46,     4.46,     4.46
        5.0,       5.33,     5.33,     5.33,     5.33,     5.33
        6.0,       6.16,     6.16,     6.16,     6.16,     6.16
        7.0,       6.96,     6.96,     6.96,     6.96,     6.96
        8.0,       7.75,     7.75,     7.75,     7.75,     7.75
        9.0,       8.51,     8.51,     8.51,     8.51,     8.51
       10.0,       9.25,     9.25,     9.25,     9.25,     9.25
       11.0,       9.98,     9.98,     9.98,     9.98,     9.98
       12.0,      10.70,    10.70,    10.70,    10.70,    10.70
       13.0,      11.40,    11.40,    11.40,    11.40,    11.40
       14.0,      12.10,    12.10,    12.10,    12.10,    12.10
       15.0,      12.78,    12.78,    12.78,    12.78,    12.78
       16.0,      13.46,    13.46,    13.46,    13.46,    13.46
       17.0,      14.12,    14.12,    14.12,    14.12,    14.12
       18.0,      14.78,    14.78,    14.78,    14.78,    14.78
       19.0,      15.43,    15.43,    15.43,    15.43,    15.43
       20.0,      16.08,    16.08,    16.08,    16.08,    16.08
       21.0,      16.71,    16.71,    16.71,    16.71,    16.71
       22.0,      17.35,    17.35,    17.35,    17.35,    17.35
       23.0,      17.97,    17.97,    17.97,    17.97,    17.97
       24.0,      18.59,    18.59,    18.59,    18.59,    18.59
       25.0,      19.21,    19.21,    19.21,    19.21,    19.21
       26.0,      19.82,    19.82,    19.82,    19.82,    19.82
       27.0,      20.42,    20.42,    20.42,    20.42,    20.42
       28.0,      21.02,    21.02,    21.02,    21.02,    21.02
       29.0,      21.62,    21.62,    21.62,    21.62,    21.62
       30.0,      22.21,    22.21,    22.21,    22.21,    22.21
       31.0,      22.80,    22.80,    22.80,    22.80,    22.80
       32.0,      23.38,    23.38,    23.38,    23.38,    23.38
       33.0,      23.96,    23.96,    23.96,    23.96,    23.96
       34.0,      24.54,    24.54,    24.54,    24.54,    24.54
       35.0,      25.11,    25.11,    25.11,    25.11,    25.11
       36.0,      25.68,    25.68,    25.68,    25.68,    25.68
       37.0,      26.25,    26.25,    26.25,    26.25,    26.25
       38.0,      26.81,    26.81,    26.81,    26.81,    26.81
       39.0,      27.37,    27.37,    27.37,    27.37,    27.37
       40.0,      27.94,    27.93,    27.94,    27.93,    27.94
       41.0,      28.51,    28.50,    28.51,    28.51,    28.52
       42.0,      29.12,    29.08,    29.13,    29.10,    29.16
       43.0,      29.78,    29.71,    29.79,    29.75,    29.88
       44.0,      30.52,    30.40,    30.53,    30.45,    30.69
       45.0,      31.33,    31.17,    31.33,    31.21,    31.60
       46.0,      32.19,    32.00,    32.18,    32.01,    32.57
       47.0,      33.07,    32.86,    33.04,    32.82,    33.55
       48.0,      33.93,    33.71,    33.88,    33.62,    34.50
       49.0,      34.72,    34.51,    34.65,    34.36,    35.35
       50.0,      35.39,    35.22,    35.30,    35.01,    36.04
       51.0,      35.92,    35.78,    35.81,    35.54,    36.53
       52.0,      36.27,    36.18,    36.17,    35.93,    36.82
       53.0,      36.46,    36.41,    36.37,    36.18,    36.89
       54.0,      36.49,    36.47,    36.43,    36.30,    36.77
       55.0,      36.39,    36.39,    36.37,    36.32,    36.50
       56.0,      36.20,    36.20,    36.22,    36.26,    36.12
       57.0,      35.95,    35.94,    36.03,    36.15,    35.68
       58.0,      35.67,    35.65,    35.82,    36.01,    35.22
       59.0,      35.40,    35.35,    35.60,    35.88,    34.77
       60.0,      35.13,    35.06,    35.40,    35.74,    34.33
       61.0,      34.88,    34.79,    35.21,    35.62,    33.92
       62.0,      34.65,    34.53,    35.03,    35.50,    33.53
       63.0,      34.42,    34.29,    34.85,    35.39,    33.16
       64.0,      34.20,    34.05,    34.68,    35.28,    32.80
       65.0,      33.99,    33.82,    34.52,    35.17,    32.45
       66.0,      33.78,    33.60,    34.36,    35.07,    32.11
       67.0,      33.58,    33.39,    34.20,    34.96,    31.78
       68.0,      33.39,    33.18,    34.05,    34.86,    31.47
       69.0,      33.20,    32.98,    33.91,    34.76,    31.16
       70.0,      33.02,    32.78,    33.77,    34.66,    30.87
       71.0,      32.84,    32.59,    33.63,    34.57,    30.58
       72.0,      32.67,    32.41,    33.49,    34.47,    30.31
       73.0,      32.50,    32.23,    33.36,    34.38,    30.04
       74.0,      32.34,    32.05,    33.24,    34.29,    29.78
       75.0,      32.18,    31.88,    33.11,    34.20,    29.54
       76.0,      32.03,    31.72,    32.99,    34.11,    29.29
       77.0,      31.88,    31.56,    32.88,    34.02,    29.06
       78.0,      31.74,    31.40,    32.76,    33.94,    28.84
       79.0,      31.59,    31.25,    32.65,    33.85,    28.62
       80.0,      31.46,    31.10,    32.54,    33.77,    28.41
       81.0,      31.32,    30.96,    32.44,    33.69,    28.21
       82.0,      31.19,    30.82,    32.34,    33.61,    28.01
       83.0,      31.07,    30.68,    32.24,    33.53,    27.82
       84.0,      30.94,    30.55,    32.14,    33.45,    27.63
       85.0,      30.82,    30.42,    32.04,    33.38,    27.46
       86.0,      30.71,    30.29,    31.95,    33.30,    27.28
       87.0,      30.59,    30.17,    31.86,    33.23,    27.12
       88.0,      30.48,    30.05,    31.77,    33.15,    26.95
       89.0,      30.37,    29.93,    31.68,    33.08,    26.80
       90.0,      30.27,    29.81,    31.60,    33.01,    26.65
       91.0,      30.16,    29.70,    31.51,    32.94,    26.50
       92.0,      30.06,    29.59,    31.43,    32.87,    26.36
       93.0,      29.96,    29.48,    31.35,    32.80,    26.22
       94.0,      29.87,    29.38,    31.27,    32.73,    26.08
       95.0,      29.77,    29.27,    31.20,    32.66,    25.95
       96.0,      29.68,    29.17,    31.12,    32.60,    25.83
       97.0,      29.59,    29.07,    31.05,    32.53,    25.70
       98.0,      29.50,    28.98,    30.97,    32.47,    25.59
       99.0,      29.41,    28.88,    30.90,    32.40,    25.47
      100.0,      29.33,    28.79,    30.83,    32.34,    25.36
      101.0,      29.25,    28.70,    30.76,    32.28,    25.25
      102.0,      29.17,    28.61,    30.70,    32.21,    25.14
      103.0,      29.09,    28.52,    30.63,    32.15,    25.04
      104.0,      29.01,    28.43,    30.56,    32.09,    24.94
      105.0,      28.93,    28.35,    30.50,    32.03,    24.85
      106.0,      28.86,    28.26,    30.44,    31.97,    24.75
      107.0,      28.78,    28.18,    30.38,    31.91,    24.66
      108.0,      28.71,    28.10,    30.31,    31.85,    24.57
      109.0,      28.64,    28.02,    30.25,    31.79,    24.49
      110.0,      28.57,    27.94,    30.19,    31.73,    24.40
      111.0,      28.50,    27.86,    30.14,    31.68,    24.32
      112.0,      28.43,    27.79,    30.08,    31.62,    24.24
      113.0,      28.37,    27.71,    30.02,    31.56,    24.16
      114.0,      28.30,    27.64,    29.96,    31.51,    24.09
      115.0,      28.24,    27.57,    29.91,    31.45,    24.01
      116.0,      28.17,    27.50,    29.85,    31.39,    23.94
      117.0,      28.11,    27.43,    29.80,    31.34,    23.87
      118.0,      28.05,    27.36,    29.75,    31.28,    23.80
      119.0,      27.99,    27.29,    29.69,    31.23,    23.74
      120.0,      27.93,    27.22,    29.64,    31.18,    23.67
      121.0,      27.87,    27.15,    29.59,    31.12,    23.61
      122.0,      27.81,    27.09,    29.54,    31.07,    23.55
      123.0,      27.75,    27.02,    29.49,    31.02,    23.49
      124.0,      27.70,    26.96,    29.44,    30.96,    23.43
      125.0,      27.64,    26.89,    29.39,    30.91,    23.37
      126.0,      27.59,    26.83,    29.34,    30.86,    23.32
      127.0,      27.53,    26.77,    29.29,    30.81,    23.26
      128.0,      27.48,    26.70,    29.24,    30.76,    23.21
      129.0,      27.42,    26.64,    29.20,    30.70,    23.15
      130.0,      27.37,    26.58,    29.15,    30.65,    23.10
      131.0,      27.32,    26.52,    29.10,    30.60,    23.05
      132.0,      27.27,    26.46,    29.06,    30.55,    23.00
      133.0,      27.22,    26.40,    29.01,    30.50,    22.96
      134.0,      27.17,    26.35,    28.96,    30.45,    22.91
      135.0,      27.12,    26.29,    28.92,    30.40,    22.86
      136.0,      27.07,    26.23,    28.87,    30.35,    22.82
      137.0,      27.02,    26.17,    28.83,    30.30,    22.77
      138.0,      26.97,    26.12,    28.78,    30.25,    22.73
      139.0,      26.92,    26.06,    28.74,    30.20,    22.68
      140.0,      26.88,    26.01,    28.70,    30.16,    22.64
      141.0,      26.83,    25.95,    28.65,    30.11,    22.60
      142.0,      26.78,    25.90,    28.61,    30.06,    22.56
      143.0,      26.74,    25.84,    28.57,    30.01,    22.52
      144.0,      26.69,    25.79,    28.52,    29.96,    22.48
      145.0,      26.64,    25.73,    28.48,    29.92,    22.44
      146.0,      26.60,    25.68,    28.44,    29.87,    22.40
      147.0,      26.55,    25.63,    28.40,    29.82,    22.37
      148.0,      26.51,    25.58,    28.36,    29.77,    22.33
      149.0,      26.46,    25.52,    28.32,    29.73,    22.29
      150.0,      26.42,    25.47,    28.27,    29.68,    22.26
      151.0,      26.38,    25.42,    28.23,    29.63,    22.22
      152.0,      26.33,    25.37,    28.19,    29.59,    22.19
      153.0,      26.29,    25.32,    28.15,    29.54,    22.15
      154.0,      26.25,    25.27,    28.11,    29.49,    22.12
      155.0,      26.21,    25.22,    28.07,    29.45,    22.09
      156.0,      26.16,    25.17,    28.03,    29.40,    22.05
      157.0,      26.12,    25.12,    27.99,    29.36,    22.02
      158.0,      26.08,    25.07,    27.95,    29.31,    21.99
      159.0,      26.04,    25.02,    27.91,    29.26,    21.96
      160.0,      26.00,    24.97,    27.87,    29.22,    21.93
      161.0,      25.96,    24.92,    27.83,    29.17,    21.90
      162.0,      25.91,    24.87,    27.79,    29.13,    21.87
      163.0,      25.87,    24.82,    27.76,    29.08,    21.84
      164.0,      25.83,    24.78,    27.72,    29.04,    21.81
      165.0,      25.79,    24.73,    27.68,    28.99,    21.78
      166.0,      25.75,    24.68,    27.64,    28.95,    21.75
      167.0,      25.71,    24.63,    27.60,    28.90,    21.72
      168.0,      25.67,    24.59,    27.56,    28.86,    21.69
      169.0,      25.63,    24.54,    27.52,    28.81,    21.66
      170.0,      25.60,    24.49,    27.49,    28.77,    21.63
      171.0,      25.56,    24.44,    27.45,    28.73,    21.61
      172.0,      25.52,    24.40,    27.41,    28.68,    21.58
      173.0,      25.48,    24.35,    27.37,    28.64,    21.55
      174.0,      25.44,    24.31,    27.34,    28.59,    21.52
      175.0,      25.40,    24.26,    27.30,    28.55,    21.50
      176.0,      25.36,    24.21,    27.26,    28.51,    21.47
      177.0,      25.32,    24.17,    27.22,    28.46,    21.44
      178.0,      25.29,    24.12,    27.19,    28.42,    21.42
      179.0,      25.25,    24.08,    27.15,    28.38,    21.39
      180.0,      25.21,    24.03,    27.11,    28.33,    21.37
      181.0,      25.17,    23.99,    27.08,    28.29,    21.34
      182.0,      25.14,    23.94,    27.04,    28.25,    21.31
      183.0,      25.10,    23.90,    27.00,    28.20,    21.29
      184.0,      25.06,    23.85,    26.97,    28.16,    21.26
      185.0,      25.02,    23.81,    26.93,    28.12,    21.24
      186.0,      24.99,    23.76,    26.89,    28.07,    21.21
      187.0,      24.95,    23.72,    26.86,    28.03,    21.19
      188.0,      24.91,    23.67,    26.82,    27.99,    21.17
      189.0,      24.88,    23.63,    26.78,    27.95,    21.14
      190.0,      24.84,    23.59,    26.75,    27.90,    21.12
      191.0,      24.80,    23.54,    26.71,    27.86,    21.09
      192.0,      24.77,    23.50,    26.68,    27.82,    21.07
      193.0,      24.73,    23.46,    26.64,    27.78,    21.05
      194.0,      24.69,    23.41,    26.61,    27.74,    21.02
      195.0,      24.66,    23.37,    26.57,    27.69,    21.00
      196.0,      24.62,    23.33,    26.53,    27.65,    20.97
      197.0,      24.59,    23.28,    26.50,    27.61,    20.95
      198.0,      24.55,    23.24,    26.46,    27.57,    20.93
      199.0,      24.51,    23.20,    26.43,    27.53,    20.91
      200.0,      24.48,    23.15,    26.39,    27.49,    20.88
      201.0,      24.44,    23.11,    26.36,    27.44,    20.86
      202.0,      24.41,    23.07,    26.32,    27.40,    20.84
      203.0,      24.37,    23.03,    26.29,    27.36,    20.81
      204.0,      24.34,    22.98,    26.25,    27.32,    20.79
      205.0,      24.30,    22.94,    26.22,    27.28,    20.77
      206.0,      24.27,    22.90,    26.18,    27.24,    20.75
      207.0,      24.23,    22.86,    26.15,    27.20,    20.72
      208.0,      24.20,    22.81,    26.11,    27.15,    20.70
      209.0,      24.16,    22.77,    26.08,    27.11,    20.68
      210.0,      24.13,    22.73,    26.04,    27.07,    20.66
      211.0,      24.09,    22.69,    26.01,    27.03,    20.64
      212.0,      24.06,    22.65,    25.97,    26.99,    20.61
      213.0,      24.02,    22.61,    25.94,    26.95,    20.59
      214.0,      23.99,    22.57,    25.91,    26.91,    20.57
      215.0,      23.95,    22.52,    25.87,    26.87,    20.55
      216.0,      23.92,    22.48,    25.84,    26.83,    20.53
      217.0,      23.88,    22.44,    25.80,    26.79,    20.50
      218.0,      23.85,    22.40,    25.77,    26.75,    20.48
      219.0,      23.82,    22.36,    25.73,    26.71,    20.46
      220.0,      23.78,    22.32,    25.70,    26.67,    20.44
      221.0,      23.75,    22.28,    25.67,    26.63,    20.42
      222.0,      23.71,    22.24,    25.63,    26.59,    20.40
      223.0,      23.68,    22.20,    25.60,    26.55,    20.38
      224.0,      23.65,    22.16,    25.56,    26.51,    20.35
      225.0,      23.61,    22.12,    25.53,    26.47,    20.33
      226.0,      23.58,    22.08,    25.50,    26.43,    20.31
      227.0,      23.54,    22.04,    25.46,    26.39,    20.29
      228.0,      23.51,    22.00,    25.43,    26.35,    20.27
      229.0,      23.48,    21.95,    25.40,    26.31,    20.25
      230.0,      23.44,    21.91,    25.36,    26.27,    20.23
      231.0,      23.41,    21.88,    25.33,    26.23,    20.21
      232.0,      23.38,    21.84,    25.29,    26.19,    20.19
      233.0,      23.34,    21.80,    25.26,    26.15,    20.17
      234.0,      23.31,    21.76,    25.23,    26.11,    20.15
      235.0,      23.28,    21.72,    25.19,    26.07,    20.12
      236.0,      23.24,    21.68,    25.16,    26.03,    20.10
      237.0,      23.21,    21.64,    25.13,    25.99,    20.08
      238.0,      23.18,    21.60,    25.10,    25.96,    20.06
      239.0,      23.14,    21.56,    25.06,    25.92,    20.04
      240.0,      23.11,    21.52,    25.03,    25.88,    20.02
      241.0,      23.08,    21.48,    25.00,    25.84,    20.00
      242.0,      23.05,    21.44,    24.96,    25.80,    19.98
      243.0,      23.01,    21.40,    24.93,    25.76,    19.96
      244.0,      22.98,    21.36,    24.90,    25.72,    19.94
      245.0,      22.95,    21.32,    24.86,    25.68,    19.92
      246.0,      22.92,    21.29,    24.83,    25.65,    19.90
      247.0,      22.88,    21.25,    24.80,    25.61,    19.88
      248.0,      22.85,    21.21,    24.77,    25.57,    19.86
      249.0,      22.82,    21.17,    24.73,    25.53,    19.84
      250.0,      22.79,    21.13,    24.70,    25.49,    19.82
      251.0,      22.75,    21.09,    24.67,    25.45,    19.80
      252.0,      22.72,    21.05,    24.64,    25.42,    19.78
      253.0,      22.69,    21.02,    24.60,    25.38,    19.76
      254.0,      22.66,    20.98,    24.57,    25.34,    19.74
      255.0,      22.62,    20.94,    24.54,    25.30,    19.72
      256.0,      22.59,    20.90,    24.51,    25.26,    19.70
      257.0,      22.56,    20.86,    24.47,    25.23,    19.68
      258.0,      22.53,    20.83,    24.44,    25.19,    19.66
      259.0,      22.50,    20.79,    24.41,    25.15,    19.64
      260.0,      22.46,    20.75,    24.38,    25.11,    19.62
      261.0,      22.43,    20.71,    24.34,    25.07,    19.60
      262.0,      22.40,    20.68,    24.31,    25.04,    19.58
      263.0,      22.37,    20.64,    24.28,    25.00,    19.56
      264.0,      22.34,    20.60,    24.25,    24.96,    19.54
      265.0,      22.31,    20.56,    24.22,    24.92,    19.52
      266.0,      22.27,    20.53,    24.19,    24.89,    19.50
      267.0,      22.24,    20.49,    24.15,    24.85,    19.48
      268.0,      22.21,    20.45,    24.12,    24.81,    19.46
      269.0,      22.18,    20.41,    24.09,    24.78,    19.44
      270.0,      22.15,    20.38,    24.06,    24.74,    19.42
      271.0,      22.12,    20.34,    24.03,    24.70,    19.40
      272.0,      22.09,    20.30,    23.99,    24.66,    19.38
      273.0,      22.06,    20.27,    23.96,    24.63,    19.36
      274.0,      22.02,    20.23,    23.93,    24.59,    19.34
      275.0,      21.99,    20.19,    23.90,    24.55,    19.32
      276.0,      21.96,    20.16,    23.87,    24.52,    19.30
      277.0,      21.93,    20.12,    23.84,    24.48,    19.29
      278.0,      21.90,    20.08,    23.81,    24.44,    19.27
      279.0,      21.87,    20.05,    23.77,    24.41,    19.25
      280.0,      21.84,    20.01,    23.74,    24.37,    19.23
      281.0,      21.81,    19.97,    23.71,    24.33,    19.21
      282.0,      21.78,    19.94,    23.68,    24.30,    19.19
      283.0,      21.75,    19.90,    23.65,    24.26,    19.17
      284.0,      21.71,    19.87,    23.62,    24.22,    19.15
      285.0,      21.68,    19.83,    23.59,    24.19,    19.13
      286.0,      21.65,    19.79,    23.56,    24.15,    19.11
      287.0,      21.62,    19.76,    23.53,    24.12,    19.09
      288.0,      21.59,    19.72,    23.49,    24.08,    19.07
      289.0,      21.56,    19.69,    23.46,    24.04,    19.05
      290.0,      21.53,    19.65,    23.43,    24.01,    19.03
      291.0,      21.50,    19.62,    23.40,    23.97,    19.02
      292.0,      21.47,    19.58,    23.37,    23.94,    19.00
      293.0,      21.44,    19.54,    23.34,    23.90,    18.98
      294.0,      21.41,    19.51,    23.31,    23.86,    18.96
      295.0,      21.38,    19.47,    23.28,    23.83,    18.94
      296.0,      21.35,    19.44,    23.25,    23.79,    18.92
      297.0,      21.32,    19.40,    23.22,    23.76,    18.90
      298.0,      21.29,    19.37,    23.19,    23.72,    18.88
      299.0,      21.26,    19.33,    23.16,    23.69,    18.86
      300.0,      21.23,    19.30,    23.13,    23.65,    18.84
      301.0,      21.20,    19.26,    23.10,    23.61,    18.83
      302.0,      21.17,    19.23,    23.07,    23.58,    18.81
      303.0,      21.14,    19.19,    23.03,    23.54,    18.79
      304.0,      21.11,    19.16,    23.00,    23.51,    18.77
      305.0,      21.08,    19.12,    22.97,    23.47,    18.75
      306.0,      21.05,    19.09,    22.94,    23.44,    18.73
      307.0,      21.02,    19.05,    22.91,    23.40,    18.71
      308.0,      20.99,    19.02,    22.88,    23.37,    18.69
      309.0,      20.96,    18.99,    22.85,    23.33,    18.68
      310.0,      20.93,    18.95,    22.82,    23.30,    18.66
