Radius (km), Mean (m/s), NE (m/s), SE (m/s), SW (m/s), NW (m/s)
        0.0,       0.00,     0.00,     0.00,     0.00,     0.00
        1.0,       1.42,     1.33,     1.52,     1.42,     1.42
        2.0,       2.73,     2.61,     2.86,     2.74,     2.74
        3.0,       4.00,     3.88,     4.13,     4.01,     4.01
        4.0,       5.25,     5.14,     5.36,     5.25,     5.25
        5.0,       6.48,     6.39,     6.56,     6.48,     6.48
        6.0,       7.69,     7.63,     7.73,     7.69,     7.69
        7.0,       8.89,     8.87,     8.89,     8.90,     8.90
        8.0,      10.08,    10.11,    10.04,    10.09,    10.09
        9.0,      11.26,    11.34,    11.17,    11.27,    11.27
       10.0,      12.44,    12.57,    12.29,    12.45,    12.45
       11.0,      13.60,    13.79,    13.40,    13.61,    13.61
       12.0,      14.77,    15.02,    14.49,    14.78,    14.78
       13.0,      15.92,    16.24,    15.59,    15.93,    15.93
       14.0,      17.07,    17.45,    16.67,    17.08,    17.08
       15.0,      18.22,    18.67,    17.74,    18.23,    18.23
       16.0,      19.36,    19.89,    18.81,    19.37,    19.37
       17.0,      20.50,    21.10,    19.87,    20.51,    20.51
       18.0,      21.63,    22.31,    20.93,    21.65,    21.65
       19.0,      22.76,    23.52,    21.98,    22.78,    22.78
       20.0,      23.89,    24.73,    23.03,    23.90,    23.90
       21.0,      25.02,    25.94,    24.08,    25.03,    25.03
       22.0,      26.18,    27.18,    25.14,    26.19,    26.19
       23.0,      27.40,    28.49,    26.26,    27.42,    27.41
       24.0,      28.72,    29.90,    27.47,    28.77,    28.74
       25.0,      30.18,    31.45,    28.79,    30.28,    30.20
       26.0,      31.77,    33.13,    30.23,    31.94,    31.80
       27.0,      33.48,    34.91,    31.75,    33.74,    33.51
       28.0,      35.23,    36.75,    33.32,    35.59,    35.26
       29.0,      36.96,    38.56,    34.86,    37.42,    36.99
       30.0,      38.57,    40.27,    36.30,    39.12,    38.60
       31.0,      39.99,    41.78,    37.58,    40.60,    40.01
       32.0,      41.16,    43.04,    38.63,    41.78,    41.17
       33.0,      42.02,    44.01,    39.43,    42.61,    42.03
       34.0,      42.57,    44.67,    39.96,    43.08,    42.58
       35.0,      42.84,    45.05,    40.25,    43.22,    42.84
       36.0,      42.87,    45.19,    40.34,    43.07,    42.87
       37.0,      42.71,    45.15,    40.26,    42.72,    42.71
       38.0,      42.43,    44.98,    40.08,    42.22,    42.43
       39.0,      42.09,    44.76,    39.85,    41.66,    42.09
       40.0,      41.73,    44.51,    39.60,    41.08,    41.74
       41.0,      41.38,    44.27,    39.36,    40.51,    41.39
       42.0,      41.05,    44.05,    39.12,    39.97,    41.05
       43.0,      40.73,    43.83,    38.90,    39.46,    40.73
       44.0,      40.41,    43.61,    38.68,    38.95,    40.41
       45.0,      40.11,    43.40,    38.46,    38.46,    40.10
       46.0,      39.80,    43.19,    38.25,    37.98,    39.79
       47.0,      39.50,    42.98,    38.03,    37.50,    39.49
       48.0,      39.21,    42.77,    37.82,    37.04,    39.19
       49.0,      38.91,    42.56,    37.61,    36.59,    38.89
       50.0,      38.63,    42.35,    37.41,    36.15,    38.60
       51.0,      38.34,    42.15,    37.20,    35.71,    38.31
       52.0,      38.07,    41.95,    37.00,    35.29,    38.03
       53.0,      37.79,    41.75,    36.80,    34.88,    37.75
       54.0,      37.52,    41.55,    36.60,    34.47,    37.47
       55.0,      37.25,    41.35,    36.40,    34.07,    37.19
       56.0,      36.99,    41.15,    36.20,    33.69,    36.92
       57.0,      36.73,    40.96,    36.01,    33.31,    36.65
       58.0,      36.48,    40.77,    35.82,    32.93,    36.39
       59.0,      36.23,    40.57,    35.63,    32.57,    36.13
       60.0,      35.98,    40.38,    35.44,    32.21,    35.87
       61.0,      35.73,    40.19,    35.25,    31.87,    35.62
       62.0,      35.49,    40.01,    35.07,    31.52,    35.37
       63.0,      35.25,    39.82,    34.88,    31.19,    35.12
       64.0,      35.02,    39.63,    34.70,    30.86,    34.87
       65.0,      34.79,    39.45,    34.52,    30.54,    34.63
       66.0,      34.56,    39.27,    34.35,    30.23,    34.39
       67.0,      34.33,    39.09,    34.17,    29.92,    34.16
       68.0,      34.11,    38.91,    33.99,    29.62,    33.92
       69.0,      33.89,    38.73,    33.82,    29.33,    33.69
       70.0,      33.68,    38.55,    33.65,    29.04,    33.47
       71.0,      33.47,    38.38,    33.48,    28.76,    33.24
       72.0,      33.26,    38.20,    33.31,    28.49,    33.02
       73.0,      33.05,    38.03,    33.15,    28.22,    32.80
       74.0,      32.84,    37.86,    32.98,    27.95,    32.58
       75.0,      32.64,    37.69,    32.82,    27.69,    32.37
       76.0,      32.44,    37.52,    32.66,    27.44,    32.16
       77.0,      32.25,    37.35,    32.49,    27.19,    31.95
       78.0,      32.05,    37.18,    32.34,    26.95,    31.75
       79.0,      31.86,    37.02,    32.18,    26.71,    31.54
       80.0,      31.68,    36.85,    32.02,    26.48,    31.34
       81.0,      31.49,    36.69,    31.87,    26.25,    31.14
       82.0,      31.31,    36.53,    31.71,    26.03,    30.95
       83.0,      31.12,    36.37,    31.56,    25.81,    30.75
       84.0,      30.95,    36.21,    31.41,    25.60,    30.56
       85.0,      30.77,    36.05,    31.26,    25.39,    30.38
       86.0,      30.60,    35.89,    31.12,    25.18,    30.19
       87.0,      30.42,    35.74,    30.97,    24.98,    30.00
       88.0,      30.25,    35.58,    30.82,    24.79,    29.82
       89.0,      30.09,    35.43,    30.68,    24.59,    29.64
       90.0,      29.92,    35.28,    30.54,    24.40,    29.47
       91.0,      29.76,    35.13,    30.40,    24.22,    29.29
       92.0,      29.60,    34.98,    30.26,    24.04,    29.12
       93.0,      29.44,    34.83,    30.12,    23.86,    28.95
       94.0,      29.28,    34.68,    29.98,    23.69,    28.78
       95.0,      29.13,    34.53,    29.85,    23.52,    28.61
       96.0,      28.97,    34.38,    29.71,    23.35,    28.45
       97.0,      28.82,    34.24,    29.58,    23.19,    28.28
       98.0,      28.67,    34.10,    29.45,    23.03,    28.12
       99.0,      28.52,    33.95,    29.31,    22.87,    27.96
      100.0,      28.38,    33.81,    29.18,    22.71,    27.81
      101.0,      28.24,    33.67,    29.06,    22.56,    27.65
      102.0,      28.09,    33.53,    28.93,    22.42,    27.50
      103.0,      27.95,    33.39,    28.80,    22.27,    27.35
      104.0,      27.81,    33.25,    28.68,    22.13,    27.20
      105.0,      27.68,    33.12,    28.55,    21.99,    27.05
      106.0,      27.54,    32.98,    28.43,    21.85,    26.90
      107.0,      27.41,    32.85,    28.31,    21.72,    26.76
      108.0,      27.28,    32.71,    28.19,    21.59,    26.62
      109.0,      27.15,    32.58,    28.07,    21.46,    26.48
      110.0,      27.02,    32.45,    27.95,    21.33,    26.34
      111.0,      26.89,    32.32,    27.83,    21.21,    26.20
      112.0,      26.76,    32.19,    27.71,    21.09,    26.06
      113.0,      26.64,    32.06,    27.60,    20.97,    25.93
      114.0,      26.52,    31.93,    27.48,    20.85,    25.80
      115.0,      26.39,    31.80,    27.37,    20.74,    25.66
      116.0,      26.27,    31.67,    27.26,    20.63,    25.53
      117.0,      26.16,    31.55,    27.15,    20.52,    25.41
      118.0,      26.04,    31.42,    27.04,    20.41,    25.28
      119.0,      25.92,    31.30,    26.93,    20.30,    25.16
      120.0,      25.81,    31.18,    26.82,    20.20,    25.03
      121.0,      25.69,    31.05,    26.71,    20.10,    24.91
      122.0,      25.58,    30.93,    26.60,    20.00,    24.79
      123.0,      25.47,    30.81,    26.50,    19.90,    24.67
      124.0,      25.36,    30.69,    26.39,    19.81,    24.55
      125.0,      25.25,    30.57,    26.29,    19.71,    24.43
      126.0,      25.15,    30.46,    26.19,    19.62,    24.32
      127.0,      25.04,    30.34,    26.08,    19.53,    24.21
      128.0,      24.93,    30.22,    25.98,    19.44,    24.09
      129.0,      24.83,    30.11,    25.88,    19.35,    23.98
      130.0,      24.73,    29.99,    25.78,    19.27,    23.87
      131.0,      24.63,    29.88,    25.68,    19.18,    23.76
      132.0,      24.53,    29.77,    25.59,    19.10,    23.66
      133.0,      24.43,    29.65,    25.49,    19.02,    23.55
      134.0,      24.33,    29.54,    25.39,    18.94,    23.44
      135.0,      24.23,    29.43,    25.30,    18.86,    23.34
      136.0,      24.14,    29.32,    25.20,    18.78,    23.24
      137.0,      24.04,    29.21,    25.11,    18.71,    23.14
      138.0,      23.95,    29.10,    25.02,    18.63,    23.04
      139.0,      23.85,    29.00,    24.92,    18.56,    22.94
      140.0,      23.76,    28.89,    24.83,    18.49,    22.84
      141.0,      23.67,    28.78,    24.74,    18.42,    22.74
      142.0,      23.58,    28.68,    24.65,    18.35,    22.64
      143.0,      23.49,    28.57,    24.56,    18.28,    22.55
      144.0,      23.40,    28.47,    24.47,    18.21,    22.46
      145.0,      23.32,    28.37,    24.39,    18.15,    22.36
      146.0,      23.23,    28.26,    24.30,    18.08,    22.27
      147.0,      23.14,    28.16,    24.21,    18.02,    22.18
      148.0,      23.06,    28.06,    24.13,    17.96,    22.09
      149.0,      22.98,    27.96,    24.04,    17.90,    22.00
      150.0,      22.89,    27.86,    23.96,    17.84,    21.92
      151.0,      22.81,    27.76,    23.88,    17.78,    21.83
      152.0,      22.73,    27.66,    23.79,    17.72,    21.74
      153.0,      22.65,    27.57,    23.71,    17.66,    21.66
      154.0,      22.57,    27.47,    23.63,    17.61,    21.57
      155.0,      22.49,    27.37,    23.55,    17.55,    21.49
      156.0,      22.41,    27.28,    23.47,    17.50,    21.41
      157.0,      22.34,    27.18,    23.39,    17.44,    21.33
      158.0,      22.26,    27.09,    23.31,    17.39,    21.25
      159.0,      22.18,    26.99,    23.23,    17.34,    21.17
      160.0,      22.11,    26.90,    23.16,    17.29,    21.09
      161.0,      22.03,    26.81,    23.08,    17.24,    21.01
      162.0,      21.96,    26.71,    23.00,    17.19,    20.93
      163.0,      21.89,    26.62,    22.93,    17.14,    20.86
      164.0,      21.81,    26.53,    22.85,    17.09,    20.78
      165.0,      21.74,    26.44,    22.78,    17.04,    20.71
      166.0,      21.67,    26.35,    22.71,    17.00,    20.64
      167.0,      21.60,    26.26,    22.63,    16.95,    20.56
      168.0,      21.53,    26.17,    22.56,    16.91,    20.49
      169.0,      21.46,    26.09,    22.49,    16.86,    20.42
      170.0,      21.40,    26.00,    22.42,    16.82,    20.35
      171.0,      21.33,    25.91,    22.35,    16.77,    20.28
      172.0,      21.26,    25.83,    22.28,    16.73,    20.21
      173.0,      21.19,    25.74,    22.21,    16.69,    20.14
      174.0,      21.13,    25.66,    22.14,    16.65,    20.07
      175.0,      21.06,    25.57,    22.07,    16.61,    20.01
      176.0,      21.00,    25.49,    22.00,    16.57,    19.94
      177.0,      20.94,    25.40,    21.93,    16.53,    19.87
      178.0,      20.87,    25.32,    21.87,    16.49,    19.81
      179.0,      20.81,    25.24,    21.80,    16.45,    19.75
      180.0,      20.75,    25.16,    21.73,    16.41,    19.68
      181.0,      20.68,    25.08,    21.67,    16.38,    19.62
      182.0,      20.62,    25.00,    21.60,    16.34,    19.56
      183.0,      20.56,    24.92,    21.54,    16.30,    19.50
      184.0,      20.50,    24.84,    21.47,    16.27,    19.43
      185.0,      20.44,    24.76,    21.41,    16.23,    19.37
      186.0,      20.38,    24.68,    21.35,    16.20,    19.31
      187.0,      20.33,    24.60,    21.29,    16.16,    19.25
      188.0,      20.27,    24.52,    21.22,    16.13,    19.20
      189.0,      20.21,    24.45,    21.16,    16.09,    19.14
      190.0,      20.15,    24.37,    21.10,    16.06,    19.08
      191.0,      20.10,    24.29,    21.04,    16.03,    19.02
      192.0,      20.04,    24.22,    20.98,    15.99,    18.97
      193.0,      19.98,    24.14,    20.92,    15.96,    18.91
      194.0,      19.93,    24.07,    20.86,    15.93,    18.86
      195.0,      19.87,    23.99,    20.80,    15.90,    18.80
      196.0,      19.82,    23.92,    20.74,    15.87,    18.75
      197.0,      19.77,    23.85,    20.69,    15.84,    18.69
      198.0,      19.71,    23.77,    20.63,    15.81,    18.64
      199.0,      19.66,    23.70,    20.57,    15.78,    18.59
      200.0,      19.61,    23.63,    20.52,    15.75,    18.54
      201.0,      19.56,    23.56,    20.46,    15.72,    18.49
      202.0,      19.50,    23.49,    20.40,    15.69,    18.43
      203.0,      19.45,    23.42,    20.35,    15.66,    18.38
      204.0,      19.40,    23.35,    20.29,    15.63,    18.33
      205.0,      19.35,    23.28,    20.24,    15.61,    18.28
      206.0,      19.30,    23.21,    20.18,    15.58,    18.23
      207.0,      19.25,    23.14,    20.13,    15.55,    18.19
      208.0,      19.20,    23.07,    20.08,    15.53,    18.14
      209.0,      19.15,    23.00,    20.02,    15.50,    18.09
      210.0,      19.11,    22.94,    19.97,    15.47,    18.04
      211.0,      19.06,    22.87,    19.92,    15.45,    18.00
      212.0,      19.01,    22.80,    19.87,    15.42,    17.95
      213.0,      18.96,    22.74,    19.81,    15.39,    17.90
      214.0,      18.92,    22.67,    19.76,    15.37,    17.86
      215.0,      18.87,    22.60,    19.71,    15.34,    17.81
      216.0,      18.82,    22.54,    19.66,    15.32,    17.77
      217.0,      18.78,    22.48,    19.61,    15.29,    17.72
      218.0,      18.73,    22.41,    19.56,    15.27,    17.68
      219.0,      18.69,    22.35,    19.51,    15.25,    17.64
      220.0,      18.64,    22.28,    19.46,    15.22,    17.59
      221.0,      18.60,    22.22,    19.41,    15.20,    17.55
      222.0,      18.55,    22.16,    19.37,    15.17,    17.51
      223.0,      18.51,    22.10,    19.32,    15.15,    17.46
      224.0,      18.46,    22.03,    19.27,    15.13,    17.42
      225.0,      18.42,    21.97,    19.22,    15.11,    17.38
      226.0,      18.38,    21.91,    19.18,    15.08,    17.34
      227.0,      18.33,    21.85,    19.13,    15.06,    17.30
      228.0,      18.29,    21.79,    19.08,    15.04,    17.26
      229.0,      18.25,    21.73,    19.04,    15.02,    17.22
      230.0,      18.21,    21.67,    18.99,    14.99,    17.18
      231.0,      18.17,    21.61,    18.95,    14.97,    17.14
      232.0,      18.13,    21.55,    18.90,    14.95,    17.10
      233.0,      18.09,    21.49,    18.85,    14.93,    17.06
      234.0,      18.04,    21.43,    18.81,    14.91,    17.03
      235.0,      18.00,    21.38,    18.77,    14.89,    16.99
      236.0,      17.96,    21.32,    18.72,    14.87,    16.95
      237.0,      17.92,    21.26,    18.68,    14.85,    16.91
      238.0,      17.88,    21.20,    18.63,    14.82,    16.88
      239.0,      17.85,    21.15,    18.59,    14.80,    16.84
      240.0,      17.81,    21.09,    18.55,    14.78,    16.80
      241.0,      17.77,    21.04,    18.51,    14.76,    16.77
      242.0,      17.73,    20.98,    18.46,    14.74,    16.73
      243.0,      17.69,    20.92,    18.42,    14.72,    16.70
      244.0,      17.65,    20.87,    18.38,    14.70,    16.66
      245.0,      17.62,    20.81,    18.34,    14.68,    16.63
      246.0,      17.58,    20.76,    18.30,    14.66,    16.59
      247.0,      17.54,    20.71,    18.26,    14.65,    16.56
      248.0,      17.50,    20.65,    18.22,    14.63,    16.52
      249.0,      17.47,    20.60,    18.17,    14.61,    16.49
      250.0,      17.43,    20.55,    18.13,    14.59,    16.45
      251.0,      17.39,    20.49,    18.09,    14.57,    16.42
      252.0,      17.36,    20.44,    18.05,    14.55,    16.39
      253.0,      17.32,    20.39,    18.02,    14.53,    16.36
      254.0,      17.29,    20.34,    17.98,    14.51,    16.32
      255.0,      17.25,    20.28,    17.94,    14.49,    16.29
      256.0,      17.22,    20.23,    17.90,    14.48,    16.26
      257.0,      17.18,    20.18,    17.86,    14.46,    16.23
      258.0,      17.15,    20.13,    17.82,    14.44,    16.20
      259.0,      17.11,    20.08,    17.78,    14.42,    16.16
      260.0,      17.08,    20.03,    17.75,    14.40,    16.13
      261.0,      17.04,    19.98,    17.71,    14.39,    16.10
      262.0,      17.01,    19.93,    17.67,    14.37,    16.07
      263.0,      16.98,    19.88,    17.63,    14.35,    16.04
      264.0,      16.94,    19.83,    17.60,    14.33,    16.01
      265.0,      16.91,    19.78,    17.56,    14.32,    15.98
      266.0,      16.88,    19.74,    17.52,    14.30,    15.95
      267.0,      16.84,    19.69,    17.49,    14.28,    15.92
      268.0,      16.81,    19.64,    17.45,    14.26,    15.89
      269.0,      16.78,    19.59,    17.41,    14.25,    15.86
      270.0,      16.75,    19.54,    17.38,    14.23,    15.83
      271.0,      16.71,    19.50,    17.34,    14.21,    15.81
      272.0,      16.68,    19.45,    17.31,    14.20,    15.78
      273.0,      16.65,    19.40,    17.27,    14.18,    15.75
      274.0,      16.62,    19.36,    17.24,    14.16,    15.72
      275.0,      16.59,    19.31,    17.20,    14.15,    15.69
      276.0,      16.56,    19.26,    17.17,    14.13,    15.66
      277.0,      16.53,    19.22,    17.14,    14.11,    15.64
      278.0,      16.49,    19.17,    17.10,    14.10,    15.61
      279.0,      16.46,    19.13,    17.07,    14.08,    15.58
      280.0,      16.43,    19.08,    17.03,    14.06,    15.56
      281.0,      16.40,    19.04,    17.00,    14.05,    15.53
      282.0,      16.37,    18.99,    16.97,    14.03,    15.50
      283.0,      16.34,    18.95,    16.93,    14.01,    15.48
      284.0,      16.31,    18.91,    16.90,    14.00,    15.45
      285.0,      16.28,    18.86,    16.87,    13.98,    15.42
      286.0,      16.25,    18.82,    16.84,    13.97,    15.40
      287.0,      16.22,    18.77,    16.80,    13.95,    15.37
      288.0,      16.20,    18.73,    16.77,    13.93,    15.35
      289.0,      16.17,    18.69,    16.74,    13.92,    15.32
      290.0,      16.14,    18.65,    16.71,    13.90,    15.29
      291.0,      16.11,    18.60,    16.68,    13.89,    15.27
      292.0,      16.08,    18.56,    16.64,    13.87,    15.24
      293.0,      16.05,    18.52,    16.61,    13.86,    15.22
      294.0,      16.02,    18.48,    16.58,    13.84,    15.19
      295.0,      16.00,    18.44,    16.55,    13.83,    15.17
      296.0,      15.97,    18.39,    16.52,    13.81,    15.15
      297.0,      15.94,    18.35,    16.49,    13.80,    15.12
      298.0,      15.91,    18.31,    16.46,    13.78,    15.10
      299.0,      15.88,    18.27,    16.43,    13.76,    15.07
      300.0,      15.86,    18.23,    16.40,    13.75,    15.05
      301.0,      15.83,    18.19,    16.37,    13.73,    15.03
      302.0,      15.80,    18.15,    16.34,    13.72,    15.00
      303.0,      15.78,    18.11,    16.31,    13.70,    14.98
      304.0,      15.75,    18.07,    16.28,    13.69,    14.96
      305.0,      15.72,    18.03,    16.25,    13.67,    14.93
      306.0,      15.70,    17.99,    16.22,    13.66,    14.91
      307.0,      15.67,    17.95,    16.19,    13.64,    14.89
      308.0,      15.64,    17.91,    16.16,    13.63,    14.86
      309.0,      15.62,    17.87,    16.13,    13.61,    14.84
      310.0,      15.59,    17.84,    16.10,    13.60,    14.82
