Radius (km), Mean (m/s), NE (m/s), SE (m/s), SW (m/s), NW (m/s)
        0.0,       0.00,     0.00,     0.00,     0.00,     0.00
        1.0,       1.62,     1.42,     1.67,     1.97,     1.42
        2.0,       2.84,     2.69,     2.95,     3.04,     2.69
        3.0,       3.96,     3.90,     4.12,     3.91,     3.90
        4.0,       5.01,     5.08,     5.22,     4.69,     5.08
        5.0,       6.03,     6.23,     6.27,     5.39,     6.23
        6.0,       7.01,     7.37,     7.28,     6.04,     7.37
        7.0,       7.97,     8.49,     8.26,     6.65,     8.49
        8.0,       8.91,     9.59,     9.21,     7.23,     9.59
        9.0,       9.83,    10.69,    10.15,     7.78,    10.69
       10.0,      10.73,    11.77,    11.06,     8.31,    11.77
       11.0,      11.62,    12.85,    11.96,     8.82,    12.85
       12.0,      12.50,    13.92,    12.85,     9.31,    13.92
       13.0,      13.37,    14.98,    13.72,     9.79,    14.98
       14.0,      14.22,    16.03,    14.58,    10.26,    16.03
       15.0,      15.07,    17.08,    15.43,    10.71,    17.08
       16.0,      15.91,    18.12,    16.27,    11.15,    18.12
       17.0,      16.75,    19.16,    17.09,    11.58,    19.16
       18.0,      17.57,    20.19,    17.92,    12.00,    20.19
       19.0,      18.39,    21.22,    18.73,    12.41,    21.22
       20.0,      19.21,    22.24,    19.53,    12.82,    22.24
       21.0,      20.02,    23.27,    20.34,    13.22,    23.27
       22.0,      20.87,    24.33,    21.16,    13.62,    24.35
       23.0,      21.78,    25.49,    22.04,    14.05,    25.52
       24.0,      22.80,    26.80,    23.03,    14.52,    26.85
       25.0,      23.96,    28.28,    24.14,    15.04,    28.36
       26.0,      25.24,    29.93,    25.38,    15.62,    30.03
       27.0,      26.63,    31.71,    26.72,    16.24,    31.83
       28.0,      28.05,    33.54,    28.10,    16.87,    33.67
       29.0,      29.42,    35.31,    29.44,    17.49,    35.44
       30.0,      30.67,    36.92,    30.67,    18.05,    37.04
       31.0,      31.71,    38.27,    31.70,    18.51,    38.37
       32.0,      32.49,    39.28,    32.48,    18.87,    39.35
       33.0,      32.99,    39.91,    32.97,    19.09,    39.96
       34.0,      33.18,    40.17,    33.17,    19.19,    40.20
       35.0,      33.12,    40.09,    33.11,    19.17,    40.10
       36.0,      32.84,    39.73,    32.84,    19.04,    39.73
       37.0,      32.40,    39.17,    32.40,    18.85,    39.17
       38.0,      31.87,    38.49,    31.87,    18.62,    38.50
       39.0,      31.30,    37.77,    31.30,    18.37,    37.78
       40.0,      30.74,    37.05,    30.72,    18.11,    37.08
       41.0,      30.20,    36.35,    30.17,    17.87,    36.40
       42.0,      29.69,    35.70,    29.66,    17.64,    35.75
       43.0,      29.20,    35.08,    29.16,    17.42,    35.14
       44.0,      28.74,    34.48,    28.69,    17.21,    34.56
       45.0,      28.29,    33.91,    28.24,    17.01,    33.99
       46.0,      27.86,    33.36,    27.80,    16.82,    33.45
       47.0,      27.44,    32.83,    27.38,    16.63,    32.93
       48.0,      27.04,    32.32,    26.98,    16.45,    32.43
       49.0,      26.66,    31.83,    26.59,    16.28,    31.94
       50.0,      26.29,    31.36,    26.22,    16.11,    31.48
       51.0,      25.93,    30.90,    25.86,    15.95,    31.03
       52.0,      25.59,    30.46,    25.51,    15.80,    30.60
       53.0,      25.26,    30.04,    25.17,    15.65,    30.19
       54.0,      24.94,    29.63,    24.85,    15.50,    29.79
       55.0,      24.64,    29.24,    24.54,    15.36,    29.40
       56.0,      24.34,    28.87,    24.24,    15.23,    29.03
       57.0,      24.06,    28.50,    23.96,    15.10,    28.68
       58.0,      23.79,    28.16,    23.68,    14.98,    28.33
       59.0,      23.52,    27.82,    23.41,    14.86,    28.00
       60.0,      23.27,    27.50,    23.16,    14.74,    27.68
       61.0,      23.02,    27.18,    22.91,    14.63,    27.38
       62.0,      22.79,    26.88,    22.67,    14.52,    27.08
       63.0,      22.56,    26.59,    22.44,    14.42,    26.80
       64.0,      22.34,    26.31,    22.22,    14.32,    26.52
       65.0,      22.13,    26.05,    22.00,    14.22,    26.26
       66.0,      21.93,    25.79,    21.80,    14.13,    26.00
       67.0,      21.73,    25.54,    21.60,    14.04,    25.76
       68.0,      21.54,    25.30,    21.41,    13.95,    25.52
       69.0,      21.36,    25.06,    21.22,    13.86,    25.29
       70.0,      21.19,    24.84,    21.05,    13.78,    25.07
       71.0,      21.02,    24.62,    20.87,    13.70,    24.86
       72.0,      20.85,    24.42,    20.71,    13.63,    24.66
       73.0,      20.69,    24.21,    20.55,    13.55,    24.46
       74.0,      20.54,    24.02,    20.39,    13.48,    24.27
       75.0,      20.39,    23.83,    20.24,    13.41,    24.09
       76.0,      20.25,    23.65,    20.10,    13.35,    23.91
       77.0,      20.12,    23.48,    19.96,    13.28,    23.74
       78.0,      19.98,    23.31,    19.83,    13.22,    23.57
       79.0,      19.85,    23.15,    19.70,    13.16,    23.41
       80.0,      19.73,    22.99,    19.57,    13.10,    23.26
       81.0,      19.61,    22.84,    19.45,    13.05,    23.11
       82.0,      19.50,    22.69,    19.33,    12.99,    22.97
       83.0,      19.38,    22.55,    19.22,    12.94,    22.83
       84.0,      19.28,    22.42,    19.11,    12.89,    22.70
       85.0,      19.17,    22.28,    19.00,    12.84,    22.57
       86.0,      19.07,    22.16,    18.90,    12.79,    22.44
       87.0,      18.97,    22.03,    18.80,    12.74,    22.32
       88.0,      18.88,    21.91,    18.71,    12.69,    22.20
       89.0,      18.79,    21.80,    18.61,    12.65,    22.09
       90.0,      18.70,    21.69,    18.52,    12.61,    21.98
       91.0,      18.61,    21.58,    18.44,    12.57,    21.87
       92.0,      18.53,    21.47,    18.35,    12.52,    21.77
       93.0,      18.45,    21.37,    18.27,    12.49,    21.67
       94.0,      18.37,    21.27,    18.19,    12.45,    21.58
       95.0,      18.30,    21.18,    18.11,    12.41,    21.48
       96.0,      18.22,    21.09,    18.04,    12.37,    21.39
       97.0,      18.15,    21.00,    17.97,    12.34,    21.30
       98.0,      18.08,    20.91,    17.90,    12.30,    21.22
       99.0,      18.02,    20.83,    17.83,    12.27,    21.14
      100.0,      17.95,    20.74,    17.76,    12.24,    21.06
      101.0,      17.89,    20.66,    17.70,    12.21,    20.98
      102.0,      17.83,    20.59,    17.63,    12.17,    20.91
      103.0,      17.77,    20.51,    17.57,    12.14,    20.83
      104.0,      17.71,    20.44,    17.52,    12.11,    20.76
      105.0,      17.65,    20.37,    17.46,    12.09,    20.69
      106.0,      17.60,    20.30,    17.40,    12.06,    20.63
      107.0,      17.54,    20.24,    17.35,    12.03,    20.56
      108.0,      17.49,    20.17,    17.29,    12.00,    20.50
      109.0,      17.44,    20.11,    17.24,    11.98,    20.44
      110.0,      17.39,    20.05,    17.19,    11.95,    20.38
      111.0,      17.34,    19.99,    17.14,    11.93,    20.32
      112.0,      17.30,    19.93,    17.10,    11.90,    20.26
      113.0,      17.25,    19.87,    17.05,    11.88,    20.21
      114.0,      17.21,    19.82,    17.01,    11.85,    20.15
      115.0,      17.16,    19.76,    16.96,    11.83,    20.10
      116.0,      17.12,    19.71,    16.92,    11.81,    20.05
      117.0,      17.08,    19.66,    16.88,    11.79,    20.00
      118.0,      17.04,    19.61,    16.83,    11.77,    19.95
      119.0,      17.00,    19.56,    16.79,    11.74,    19.90
      120.0,      16.96,    19.51,    16.76,    11.72,    19.86
      121.0,      16.93,    19.47,    16.72,    11.70,    19.81
      122.0,      16.89,    19.42,    16.68,    11.68,    19.77
      123.0,      16.85,    19.38,    16.64,    11.66,    19.73
      124.0,      16.82,    19.33,    16.61,    11.64,    19.68
      125.0,      16.78,    19.29,    16.57,    11.62,    19.64
      126.0,      16.75,    19.25,    16.54,    11.61,    19.60
      127.0,      16.72,    19.21,    16.50,    11.59,    19.56
      128.0,      16.68,    19.17,    16.47,    11.57,    19.52
      129.0,      16.65,    19.13,    16.44,    11.55,    19.49
      130.0,      16.62,    19.09,    16.41,    11.53,    19.45
      131.0,      16.59,    19.06,    16.37,    11.52,    19.41
      132.0,      16.56,    19.02,    16.34,    11.50,    19.38
      133.0,      16.53,    18.98,    16.31,    11.48,    19.34
      134.0,      16.50,    18.95,    16.28,    11.46,    19.31
      135.0,      16.47,    18.91,    16.25,    11.45,    19.27
      136.0,      16.44,    18.88,    16.23,    11.43,    19.24
      137.0,      16.42,    18.84,    16.20,    11.42,    19.21
      138.0,      16.39,    18.81,    16.17,    11.40,    19.18
      139.0,      16.36,    18.78,    16.14,    11.38,    19.14
      140.0,      16.34,    18.75,    16.11,    11.37,    19.11
      141.0,      16.31,    18.71,    16.09,    11.35,    19.08
      142.0,      16.28,    18.68,    16.06,    11.34,    19.05
      143.0,      16.26,    18.65,    16.04,    11.32,    19.02
      144.0,      16.23,    18.62,    16.01,    11.31,    18.99
      145.0,      16.21,    18.59,    15.99,    11.29,    18.97
      146.0,      16.19,    18.56,    15.96,    11.28,    18.94
      147.0,      16.16,    18.54,    15.94,    11.26,    18.91
      148.0,      16.14,    18.51,    15.91,    11.25,    18.88
      149.0,      16.11,    18.48,    15.89,    11.24,    18.85
      150.0,      16.09,    18.45,    15.86,    11.22,    18.83
      151.0,      16.07,    18.42,    15.84,    11.21,    18.80
      152.0,      16.05,    18.40,    15.82,    11.19,    18.78
      153.0,      16.02,    18.37,    15.80,    11.18,    18.75
      154.0,      16.00,    18.34,    15.77,    11.17,    18.72
      155.0,      15.98,    18.32,    15.75,    11.15,    18.70
      156.0,      15.96,    18.29,    15.73,    11.14,    18.67
      157.0,      15.94,    18.27,    15.71,    11.13,    18.65
      158.0,      15.92,    18.24,    15.68,    11.11,    18.63
      159.0,      15.90,    18.22,    15.66,    11.10,    18.60
      160.0,      15.87,    18.19,    15.64,    11.09,    18.58
      161.0,      15.85,    18.17,    15.62,    11.08,    18.55
      162.0,      15.83,    18.14,    15.60,    11.06,    18.53
      163.0,      15.81,    18.12,    15.58,    11.05,    18.51
      164.0,      15.79,    18.09,    15.56,    11.04,    18.48
      165.0,      15.77,    18.07,    15.54,    11.03,    18.46
      166.0,      15.75,    18.05,    15.52,    11.01,    18.44
      167.0,      15.73,    18.02,    15.50,    11.00,    18.42
      168.0,      15.72,    18.00,    15.48,    10.99,    18.39
      169.0,      15.70,    17.98,    15.46,    10.98,    18.37
      170.0,      15.68,    17.95,    15.44,    10.96,    18.35
      171.0,      15.66,    17.93,    15.42,    10.95,    18.33
      172.0,      15.64,    17.91,    15.40,    10.94,    18.31
      173.0,      15.62,    17.89,    15.38,    10.93,    18.28
      174.0,      15.60,    17.87,    15.36,    10.92,    18.26
      175.0,      15.58,    17.84,    15.34,    10.90,    18.24
      176.0,      15.56,    17.82,    15.32,    10.89,    18.22
      177.0,      15.55,    17.80,    15.30,    10.88,    18.20
      178.0,      15.53,    17.78,    15.29,    10.87,    18.18
      179.0,      15.51,    17.76,    15.27,    10.86,    18.16
      180.0,      15.49,    17.74,    15.25,    10.84,    18.14
      181.0,      15.47,    17.71,    15.23,    10.83,    18.12
      182.0,      15.46,    17.69,    15.21,    10.82,    18.10
      183.0,      15.44,    17.67,    15.19,    10.81,    18.08
      184.0,      15.42,    17.65,    15.18,    10.80,    18.06
      185.0,      15.40,    17.63,    15.16,    10.79,    18.04
      186.0,      15.39,    17.61,    15.14,    10.78,    18.02
      187.0,      15.37,    17.59,    15.12,    10.76,    18.00
      188.0,      15.35,    17.57,    15.10,    10.75,    17.98
      189.0,      15.33,    17.55,    15.09,    10.74,    17.96
      190.0,      15.32,    17.53,    15.07,    10.73,    17.94
      191.0,      15.30,    17.51,    15.05,    10.72,    17.92
      192.0,      15.28,    17.49,    15.03,    10.71,    17.90
      193.0,      15.26,    17.47,    15.02,    10.70,    17.88
      194.0,      15.25,    17.45,    15.00,    10.69,    17.86
      195.0,      15.23,    17.43,    14.98,    10.67,    17.84
      196.0,      15.21,    17.41,    14.96,    10.66,    17.82
      197.0,      15.20,    17.39,    14.95,    10.65,    17.80
      198.0,      15.18,    17.37,    14.93,    10.64,    17.78
      199.0,      15.16,    17.35,    14.91,    10.63,    17.77
      200.0,      15.15,    17.33,    14.90,    10.62,    17.75
      201.0,      15.13,    17.31,    14.88,    10.61,    17.73
      202.0,      15.11,    17.29,    14.86,    10.60,    17.71
      203.0,      15.10,    17.27,    14.84,    10.59,    17.69
      204.0,      15.08,    17.25,    14.83,    10.57,    17.67
      205.0,      15.07,    17.23,    14.81,    10.56,    17.65
      206.0,      15.05,    17.21,    14.79,    10.55,    17.64
      207.0,      15.03,    17.19,    14.78,    10.54,    17.62
      208.0,      15.02,    17.17,    14.76,    10.53,    17.60
      209.0,      15.00,    17.16,    14.74,    10.52,    17.58
      210.0,      14.98,    17.14,    14.73,    10.51,    17.56
      211.0,      14.97,    17.12,    14.71,    10.50,    17.54
      212.0,      14.95,    17.10,    14.69,    10.49,    17.53
      213.0,      14.94,    17.08,    14.68,    10.48,    17.51
      214.0,      14.92,    17.06,    14.66,    10.47,    17.49
      215.0,      14.90,    17.04,    14.64,    10.46,    17.47
      216.0,      14.89,    17.02,    14.63,    10.45,    17.45
      217.0,      14.87,    17.01,    14.61,    10.44,    17.44
      218.0,      14.86,    16.99,    14.60,    10.42,    17.42
      219.0,      14.84,    16.97,    14.58,    10.41,    17.40
      220.0,      14.82,    16.95,    14.56,    10.40,    17.38
      221.0,      14.81,    16.93,    14.55,    10.39,    17.36
      222.0,      14.79,    16.91,    14.53,    10.38,    17.35
      223.0,      14.78,    16.89,    14.51,    10.37,    17.33
      224.0,      14.76,    16.88,    14.50,    10.36,    17.31
      225.0,      14.75,    16.86,    14.48,    10.35,    17.29
      226.0,      14.73,    16.84,    14.47,    10.34,    17.27
      227.0,      14.71,    16.82,    14.45,    10.33,    17.26
      228.0,      14.70,    16.80,    14.43,    10.32,    17.24
      229.0,      14.68,    16.78,    14.42,    10.31,    17.22
      230.0,      14.67,    16.77,    14.40,    10.30,    17.20
      231.0,      14.65,    16.75,    14.39,    10.29,    17.19
      232.0,      14.64,    16.73,    14.37,    10.28,    17.17
      233.0,      14.62,    16.71,    14.35,    10.27,    17.15
      234.0,      14.61,    16.69,    14.34,    10.26,    17.13
      235.0,      14.59,    16.68,    14.32,    10.25,    17.12
      236.0,      14.58,    16.66,    14.31,    10.24,    17.10
      237.0,      14.56,    16.64,    14.29,    10.23,    17.08
      238.0,      14.54,    16.62,    14.28,    10.22,    17.07
      239.0,      14.53,    16.60,    14.26,    10.21,    17.05
      240.0,      14.51,    16.59,    14.24,    10.20,    17.03
      241.0,      14.50,    16.57,    14.23,    10.18,    17.01
      242.0,      14.48,    16.55,    14.21,    10.17,    17.00
      243.0,      14.47,    16.53,    14.20,    10.16,    16.98
      244.0,      14.45,    16.51,    14.18,    10.15,    16.96
      245.0,      14.44,    16.50,    14.17,    10.14,    16.94
      246.0,      14.42,    16.48,    14.15,    10.13,    16.93
      247.0,      14.41,    16.46,    14.14,    10.12,    16.91
      248.0,      14.39,    16.44,    14.12,    10.11,    16.89
      249.0,      14.38,    16.43,    14.10,    10.10,    16.88
      250.0,      14.36,    16.41,    14.09,    10.09,    16.86
      251.0,      14.35,    16.39,    14.07,    10.08,    16.84
      252.0,      14.33,    16.37,    14.06,    10.07,    16.83
      253.0,      14.32,    16.35,    14.04,    10.06,    16.81
      254.0,      14.30,    16.34,    14.03,    10.05,    16.79
      255.0,      14.29,    16.32,    14.01,    10.04,    16.77
      256.0,      14.27,    16.30,    14.00,    10.03,    16.76
      257.0,      14.26,    16.28,    13.98,    10.02,    16.74
      258.0,      14.24,    16.27,    13.97,    10.01,    16.72
      259.0,      14.23,    16.25,    13.95,    10.00,    16.71
      260.0,      14.21,    16.23,    13.94,     9.99,    16.69
      261.0,      14.20,    16.22,    13.92,     9.98,    16.67
      262.0,      14.18,    16.20,    13.91,     9.97,    16.66
      263.0,      14.17,    16.18,    13.89,     9.96,    16.64
      264.0,      14.15,    16.16,    13.87,     9.95,    16.62
      265.0,      14.14,    16.15,    13.86,     9.94,    16.61
      266.0,      14.12,    16.13,    13.84,     9.93,    16.59
      267.0,      14.11,    16.11,    13.83,     9.92,    16.57
      268.0,      14.09,    16.09,    13.81,     9.91,    16.56
      269.0,      14.08,    16.08,    13.80,     9.90,    16.54
      270.0,      14.07,    16.06,    13.78,     9.89,    16.52
      271.0,      14.05,    16.04,    13.77,     9.88,    16.51
      272.0,      14.04,    16.03,    13.75,     9.87,    16.49
      273.0,      14.02,    16.01,    13.74,     9.86,    16.47
      274.0,      14.01,    15.99,    13.72,     9.85,    16.46
      275.0,      13.99,    15.97,    13.71,     9.84,    16.44
      276.0,      13.98,    15.96,    13.69,     9.83,    16.42
      277.0,      13.96,    15.94,    13.68,     9.82,    16.41
      278.0,      13.95,    15.92,    13.66,     9.81,    16.39
      279.0,      13.93,    15.91,    13.65,     9.80,    16.38
      280.0,      13.92,    15.89,    13.63,     9.79,    16.36
      281.0,      13.90,    15.87,    13.62,     9.78,    16.34
      282.0,      13.89,    15.86,    13.60,     9.77,    16.33
      283.0,      13.88,    15.84,    13.59,     9.76,    16.31
      284.0,      13.86,    15.82,    13.58,     9.75,    16.29
      285.0,      13.85,    15.80,    13.56,     9.75,    16.28
      286.0,      13.83,    15.79,    13.55,     9.74,    16.26
      287.0,      13.82,    15.77,    13.53,     9.73,    16.24
      288.0,      13.80,    15.75,    13.52,     9.72,    16.23
      289.0,      13.79,    15.74,    13.50,     9.71,    16.21
      290.0,      13.77,    15.72,    13.49,     9.70,    16.20
      291.0,      13.76,    15.70,    13.47,     9.69,    16.18
      292.0,      13.75,    15.69,    13.46,     9.68,    16.16
      293.0,      13.73,    15.67,    13.44,     9.67,    16.15
      294.0,      13.72,    15.65,    13.43,     9.66,    16.13
      295.0,      13.70,    15.64,    13.41,     9.65,    16.11
      296.0,      13.69,    15.62,    13.40,     9.64,    16.10
      297.0,      13.67,    15.60,    13.38,     9.63,    16.08
      298.0,      13.66,    15.59,    13.37,     9.62,    16.07
      299.0,      13.65,    15.57,    13.36,     9.61,    16.05
      300.0,      13.63,    15.55,    13.34,     9.60,    16.03
      301.0,      13.62,    15.54,    13.33,     9.59,    16.02
      302.0,      13.60,    15.52,    13.31,     9.58,    16.00
      303.0,      13.59,    15.50,    13.30,     9.57,    15.99
      304.0,      13.58,    15.49,    13.28,     9.56,    15.97
      305.0,      13.56,    15.47,    13.27,     9.55,    15.95
      306.0,      13.55,    15.45,    13.25,     9.54,    15.94
      307.0,      13.53,    15.44,    13.24,     9.53,    15.92
      308.0,      13.52,    15.42,    13.22,     9.52,    15.91
      309.0,      13.50,    15.40,    13.21,     9.51,    15.89
      310.0,      13.49,    15.39,    13.20,     9.50,    15.87
