Radius (km), Mean (m/s), NE (m/s), SE (m/s), SW (m/s), NW (m/s)
        0.0,       0.00,     0.00,     0.00,     0.00,     0.00
        1.0,       1.54,     1.27,     1.75,     1.86,     1.27
        2.0,       2.79,     2.51,     3.03,     3.11,     2.51
        3.0,       3.96,     3.73,     4.18,     4.21,     3.73
        4.0,       5.09,     4.94,     5.26,     5.21,     4.94
        5.0,       6.18,     6.15,     6.28,     6.15,     6.15
        6.0,       7.25,     7.35,     7.26,     7.05,     7.35
        7.0,       8.30,     8.54,     8.20,     7.90,     8.54
        8.0,       9.33,     9.73,     9.12,     8.73,     9.73
        9.0,      10.35,    10.92,    10.02,     9.53,    10.92
       10.0,      11.35,    12.10,    10.89,    10.30,    12.10
       11.0,      12.34,    13.29,    11.75,    11.06,    13.29
       12.0,      13.33,    14.47,    12.59,    11.80,    14.47
       13.0,      14.31,    15.64,    13.41,    12.52,    15.64
       14.0,      15.27,    16.82,    14.23,    13.23,    16.82
       15.0,      16.24,    17.99,    15.03,    13.92,    17.99
       16.0,      17.19,    19.17,    15.82,    14.61,    19.17
       17.0,      18.14,    20.34,    16.60,    15.28,    20.34
       18.0,      19.08,    21.51,    17.37,    15.95,    21.51
       19.0,      20.02,    22.67,    18.13,    16.60,    22.67
       20.0,      20.95,    23.84,    18.89,    17.24,    23.84
       21.0,      21.89,    25.02,    19.64,    17.89,    25.01
       22.0,      22.85,    26.25,    20.41,    18.54,    26.20
       23.0,      23.88,    27.59,    21.23,    19.23,    27.45
       24.0,      25.01,    29.10,    22.13,    20.00,    28.82
       25.0,      26.28,    30.80,    23.12,    20.84,    30.36
       26.0,      27.68,    32.69,    24.21,    21.77,    32.06
       27.0,      29.19,    34.73,    25.36,    22.77,    33.91
       28.0,      30.74,    36.81,    26.53,    23.79,    35.85
       29.0,      32.26,    38.82,    27.67,    24.78,    37.78
       30.0,      33.66,    40.66,    28.72,    25.69,    39.59
       31.0,      34.86,    42.20,    29.61,    26.46,    41.18
       32.0,      35.80,    43.37,    30.31,    27.05,    42.47
       33.0,      36.44,    44.13,    30.79,    27.45,    43.39
       34.0,      36.78,    44.48,    31.06,    27.65,    43.93
       35.0,      36.83,    44.45,    31.13,    27.66,    44.10
       36.0,      36.66,    44.12,    31.04,    27.52,    43.95
       37.0,      36.31,    43.57,    30.83,    27.27,    43.57
       38.0,      35.85,    42.90,    30.54,    26.96,    43.02
       39.0,      35.35,    42.16,    30.22,    26.61,    42.40
       40.0,      34.83,    41.43,    29.90,    26.26,    41.75
       41.0,      34.34,    40.72,    29.59,    25.91,    41.12
       42.0,      33.86,    40.05,    29.29,    25.59,    40.53
       43.0,      33.41,    39.41,    29.00,    25.28,    39.96
       44.0,      32.98,    38.80,    28.72,    24.98,    39.42
       45.0,      32.55,    38.20,    28.44,    24.69,    38.89
       46.0,      32.14,    37.62,    28.18,    24.41,    38.37
       47.0,      31.75,    37.06,    27.92,    24.13,    37.87
       48.0,      31.36,    36.52,    27.66,    23.86,    37.39
       49.0,      30.98,    35.99,    27.41,    23.60,    36.92
       50.0,      30.62,    35.48,    27.17,    23.35,    36.46
       51.0,      30.26,    34.99,    26.93,    23.11,    36.01
       52.0,      29.92,    34.52,    26.70,    22.87,    35.58
       53.0,      29.58,    34.06,    26.47,    22.64,    35.16
       54.0,      29.26,    33.61,    26.25,    22.41,    34.75
       55.0,      28.94,    33.18,    26.03,    22.20,    34.35
       56.0,      28.63,    32.76,    25.82,    21.98,    33.96
       57.0,      28.33,    32.36,    25.61,    21.78,    33.59
       58.0,      28.04,    31.96,    25.41,    21.58,    33.22
       59.0,      27.76,    31.59,    25.21,    21.38,    32.86
       60.0,      27.49,    31.22,    25.02,    21.19,    32.52
       61.0,      27.22,    30.86,    24.83,    21.01,    32.18
       62.0,      26.96,    30.52,    24.65,    20.83,    31.85
       63.0,      26.71,    30.18,    24.47,    20.66,    31.53
       64.0,      26.47,    29.86,    24.29,    20.49,    31.22
       65.0,      26.23,    29.55,    24.12,    20.33,    30.92
       66.0,      26.00,    29.24,    23.95,    20.17,    30.63
       67.0,      25.77,    28.95,    23.79,    20.01,    30.34
       68.0,      25.55,    28.66,    23.62,    19.86,    30.06
       69.0,      25.34,    28.39,    23.47,    19.71,    29.79
       70.0,      25.13,    28.12,    23.31,    19.57,    29.53
       71.0,      24.93,    27.86,    23.16,    19.43,    29.27
       72.0,      24.73,    27.61,    23.02,    19.29,    29.02
       73.0,      24.54,    27.37,    22.87,    19.16,    28.78
       74.0,      24.36,    27.13,    22.73,    19.04,    28.54
       75.0,      24.18,    26.90,    22.59,    18.91,    28.31
       76.0,      24.00,    26.68,    22.46,    18.79,    28.08
       77.0,      23.83,    26.46,    22.33,    18.67,    27.86
       78.0,      23.66,    26.25,    22.20,    18.56,    27.65
       79.0,      23.50,    26.05,    22.07,    18.44,    27.44
       80.0,      23.34,    25.86,    21.95,    18.34,    27.24
       81.0,      23.19,    25.66,    21.83,    18.23,    27.04
       82.0,      23.04,    25.48,    21.71,    18.13,    26.85
       83.0,      22.89,    25.30,    21.59,    18.03,    26.66
       84.0,      22.75,    25.13,    21.48,    17.93,    26.48
       85.0,      22.61,    24.96,    21.37,    17.83,    26.30
       86.0,      22.48,    24.79,    21.26,    17.74,    26.12
       87.0,      22.35,    24.63,    21.15,    17.65,    25.95
       88.0,      22.22,    24.48,    21.05,    17.56,    25.79
       89.0,      22.09,    24.33,    20.95,    17.47,    25.63
       90.0,      21.97,    24.18,    20.85,    17.39,    25.47
       91.0,      21.85,    24.04,    20.75,    17.31,    25.31
       92.0,      21.74,    23.91,    20.66,    17.23,    25.16
       93.0,      21.63,    23.77,    20.56,    17.15,    25.02
       94.0,      21.51,    23.64,    20.47,    17.07,    24.87
       95.0,      21.41,    23.52,    20.38,    17.00,    24.73
       96.0,      21.30,    23.39,    20.29,    16.93,    24.60
       97.0,      21.20,    23.28,    20.21,    16.86,    24.46
       98.0,      21.10,    23.16,    20.12,    16.79,    24.33
       99.0,      21.00,    23.05,    20.04,    16.72,    24.21
      100.0,      20.91,    22.94,    19.96,    16.66,    24.08
      101.0,      20.81,    22.83,    19.88,    16.59,    23.96
      102.0,      20.72,    22.73,    19.80,    16.53,    23.84
      103.0,      20.64,    22.63,    19.72,    16.47,    23.72
      104.0,      20.55,    22.53,    19.65,    16.41,    23.61
      105.0,      20.46,    22.43,    19.57,    16.35,    23.50
      106.0,      20.38,    22.34,    19.50,    16.29,    23.39
      107.0,      20.30,    22.25,    19.43,    16.24,    23.28
      108.0,      20.22,    22.16,    19.36,    16.18,    23.18
      109.0,      20.14,    22.08,    19.29,    16.13,    23.08
      110.0,      20.07,    21.99,    19.23,    16.08,    22.98
      111.0,      19.99,    21.91,    19.16,    16.03,    22.88
      112.0,      19.92,    21.83,    19.10,    15.98,    22.78
      113.0,      19.85,    21.75,    19.03,    15.93,    22.69
      114.0,      19.78,    21.68,    18.97,    15.88,    22.60
      115.0,      19.71,    21.61,    18.91,    15.83,    22.51
      116.0,      19.65,    21.53,    18.85,    15.79,    22.42
      117.0,      19.58,    21.46,    18.79,    15.74,    22.33
      118.0,      19.52,    21.40,    18.73,    15.70,    22.25
      119.0,      19.46,    21.33,    18.68,    15.66,    22.17
      120.0,      19.40,    21.26,    18.62,    15.61,    22.09
      121.0,      19.34,    21.20,    18.57,    15.57,    22.01
      122.0,      19.28,    21.14,    18.51,    15.53,    21.93
      123.0,      19.22,    21.08,    18.46,    15.49,    21.85
      124.0,      19.16,    21.02,    18.41,    15.45,    21.77
      125.0,      19.11,    20.96,    18.36,    15.42,    21.70
      126.0,      19.05,    20.90,    18.31,    15.38,    21.63
      127.0,      19.00,    20.85,    18.26,    15.34,    21.56
      128.0,      18.95,    20.79,    18.21,    15.31,    21.49
      129.0,      18.90,    20.74,    18.16,    15.27,    21.42
      130.0,      18.85,    20.69,    18.12,    15.24,    21.35
      131.0,      18.80,    20.64,    18.07,    15.20,    21.28
      132.0,      18.75,    20.59,    18.02,    15.17,    21.22
      133.0,      18.70,    20.54,    17.98,    15.14,    21.15
      134.0,      18.66,    20.49,    17.94,    15.10,    21.09
      135.0,      18.61,    20.44,    17.89,    15.07,    21.03
      136.0,      18.56,    20.40,    17.85,    15.04,    20.96
      137.0,      18.52,    20.35,    17.81,    15.01,    20.90
      138.0,      18.48,    20.31,    17.77,    14.98,    20.84
      139.0,      18.43,    20.27,    17.73,    14.95,    20.79
      140.0,      18.39,    20.22,    17.69,    14.92,    20.73
      141.0,      18.35,    20.18,    17.65,    14.89,    20.67
      142.0,      18.31,    20.14,    17.61,    14.87,    20.62
      143.0,      18.27,    20.10,    17.57,    14.84,    20.56
      144.0,      18.23,    20.06,    17.53,    14.81,    20.51
      145.0,      18.19,    20.02,    17.49,    14.78,    20.45
      146.0,      18.15,    19.98,    17.46,    14.76,    20.40
      147.0,      18.11,    19.95,    17.42,    14.73,    20.35
      148.0,      18.07,    19.91,    17.39,    14.70,    20.30
      149.0,      18.04,    19.87,    17.35,    14.68,    20.25
      150.0,      18.00,    19.84,    17.32,    14.65,    20.20
      151.0,      17.97,    19.80,    17.28,    14.63,    20.15
      152.0,      17.93,    19.77,    17.25,    14.60,    20.10
      153.0,      17.89,    19.73,    17.22,    14.58,    20.05
      154.0,      17.86,    19.70,    17.18,    14.56,    20.00
      155.0,      17.83,    19.67,    17.15,    14.53,    19.95
      156.0,      17.79,    19.64,    17.12,    14.51,    19.91
      157.0,      17.76,    19.60,    17.09,    14.49,    19.86
      158.0,      17.73,    19.57,    17.05,    14.46,    19.82
      159.0,      17.69,    19.54,    17.02,    14.44,    19.77
      160.0,      17.66,    19.51,    16.99,    14.42,    19.73
      161.0,      17.63,    19.48,    16.96,    14.40,    19.68
      162.0,      17.60,    19.45,    16.93,    14.38,    19.64
      163.0,      17.57,    19.42,    16.90,    14.35,    19.60
      164.0,      17.54,    19.39,    16.88,    14.33,    19.55
      165.0,      17.51,    19.36,    16.85,    14.31,    19.51
      166.0,      17.48,    19.33,    16.82,    14.29,    19.47
      167.0,      17.45,    19.30,    16.79,    14.27,    19.43
      168.0,      17.42,    19.28,    16.76,    14.25,    19.39
      169.0,      17.39,    19.25,    16.73,    14.23,    19.35
      170.0,      17.36,    19.22,    16.71,    14.21,    19.31
      171.0,      17.33,    19.20,    16.68,    14.19,    19.27
      172.0,      17.31,    19.17,    16.65,    14.17,    19.23
      173.0,      17.28,    19.14,    16.63,    14.15,    19.19
      174.0,      17.25,    19.12,    16.60,    14.13,    19.15
      175.0,      17.22,    19.09,    16.58,    14.11,    19.11
      176.0,      17.20,    19.06,    16.55,    14.10,    19.08
      177.0,      17.17,    19.04,    16.52,    14.08,    19.04
      178.0,      17.14,    19.01,    16.50,    14.06,    19.00
      179.0,      17.12,    18.99,    16.47,    14.04,    18.96
      180.0,      17.09,    18.96,    16.45,    14.02,    18.93
      181.0,      17.07,    18.94,    16.43,    14.00,    18.89
      182.0,      17.04,    18.92,    16.40,    13.99,    18.85
      183.0,      17.01,    18.89,    16.38,    13.97,    18.82
      184.0,      16.99,    18.87,    16.35,    13.95,    18.78
      185.0,      16.96,    18.84,    16.33,    13.93,    18.75
      186.0,      16.94,    18.82,    16.31,    13.92,    18.71
      187.0,      16.91,    18.80,    16.28,    13.90,    18.68
      188.0,      16.89,    18.77,    16.26,    13.88,    18.64
      189.0,      16.87,    18.75,    16.24,    13.86,    18.61
      190.0,      16.84,    18.73,    16.22,    13.85,    18.57
      191.0,      16.82,    18.71,    16.19,    13.83,    18.54
      192.0,      16.79,    18.68,    16.17,    13.81,    18.51
      193.0,      16.77,    18.66,    16.15,    13.80,    18.47
      194.0,      16.75,    18.64,    16.13,    13.78,    18.44
      195.0,      16.72,    18.62,    16.11,    13.76,    18.41
      196.0,      16.70,    18.59,    16.08,    13.75,    18.37
      197.0,      16.68,    18.57,    16.06,    13.73,    18.34
      198.0,      16.65,    18.55,    16.04,    13.72,    18.31
      199.0,      16.63,    18.53,    16.02,    13.70,    18.28
      200.0,      16.61,    18.51,    16.00,    13.68,    18.24
      201.0,      16.59,    18.49,    15.98,    13.67,    18.21
      202.0,      16.56,    18.47,    15.96,    13.65,    18.18
      203.0,      16.54,    18.44,    15.94,    13.64,    18.15
      204.0,      16.52,    18.42,    15.92,    13.62,    18.12
      205.0,      16.50,    18.40,    15.90,    13.61,    18.08
      206.0,      16.48,    18.38,    15.88,    13.59,    18.05
      207.0,      16.45,    18.36,    15.86,    13.58,    18.02
      208.0,      16.43,    18.34,    15.84,    13.56,    17.99
      209.0,      16.41,    18.32,    15.82,    13.54,    17.96
      210.0,      16.39,    18.30,    15.80,    13.53,    17.93
      211.0,      16.37,    18.28,    15.78,    13.51,    17.90
      212.0,      16.35,    18.26,    15.76,    13.50,    17.87
      213.0,      16.33,    18.24,    15.74,    13.48,    17.84
      214.0,      16.30,    18.22,    15.72,    13.47,    17.81
      215.0,      16.28,    18.20,    15.70,    13.45,    17.78
      216.0,      16.26,    18.18,    15.68,    13.44,    17.75
      217.0,      16.24,    18.16,    15.66,    13.42,    17.72
      218.0,      16.22,    18.14,    15.64,    13.41,    17.69
      219.0,      16.20,    18.12,    15.63,    13.40,    17.66
      220.0,      16.18,    18.10,    15.61,    13.38,    17.63
      221.0,      16.16,    18.08,    15.59,    13.37,    17.60
      222.0,      16.14,    18.06,    15.57,    13.35,    17.57
      223.0,      16.12,    18.04,    15.55,    13.34,    17.54
      224.0,      16.10,    18.02,    15.53,    13.32,    17.51
      225.0,      16.08,    18.00,    15.52,    13.31,    17.49
      226.0,      16.06,    17.98,    15.50,    13.29,    17.46
      227.0,      16.04,    17.97,    15.48,    13.28,    17.43
      228.0,      16.02,    17.95,    15.46,    13.27,    17.40
      229.0,      16.00,    17.93,    15.44,    13.25,    17.37
      230.0,      15.98,    17.91,    15.43,    13.24,    17.34
      231.0,      15.96,    17.89,    15.41,    13.22,    17.31
      232.0,      15.94,    17.87,    15.39,    13.21,    17.29
      233.0,      15.92,    17.85,    15.37,    13.20,    17.26
      234.0,      15.90,    17.83,    15.36,    13.18,    17.23
      235.0,      15.88,    17.81,    15.34,    13.17,    17.20
      236.0,      15.86,    17.80,    15.32,    13.15,    17.17
      237.0,      15.84,    17.78,    15.30,    13.14,    17.15
      238.0,      15.82,    17.76,    15.29,    13.13,    17.12
      239.0,      15.80,    17.74,    15.27,    13.11,    17.09
      240.0,      15.78,    17.72,    15.25,    13.10,    17.06
      241.0,      15.77,    17.70,    15.24,    13.08,    17.04
      242.0,      15.75,    17.68,    15.22,    13.07,    17.01
      243.0,      15.73,    17.67,    15.20,    13.06,    16.98
      244.0,      15.71,    17.65,    15.19,    13.04,    16.96
      245.0,      15.69,    17.63,    15.17,    13.03,    16.93
      246.0,      15.67,    17.61,    15.15,    13.02,    16.90
      247.0,      15.65,    17.59,    15.14,    13.00,    16.87
      248.0,      15.63,    17.58,    15.12,    12.99,    16.85
      249.0,      15.61,    17.56,    15.10,    12.98,    16.82
      250.0,      15.60,    17.54,    15.09,    12.96,    16.79
      251.0,      15.58,    17.52,    15.07,    12.95,    16.77
      252.0,      15.56,    17.50,    15.05,    12.94,    16.74
      253.0,      15.54,    17.48,    15.04,    12.92,    16.71
      254.0,      15.52,    17.47,    15.02,    12.91,    16.69
      255.0,      15.50,    17.45,    15.00,    12.90,    16.66
      256.0,      15.48,    17.43,    14.99,    12.88,    16.63
      257.0,      15.47,    17.41,    14.97,    12.87,    16.61
      258.0,      15.45,    17.40,    14.96,    12.86,    16.58
      259.0,      15.43,    17.38,    14.94,    12.84,    16.56
      260.0,      15.41,    17.36,    14.92,    12.83,    16.53
      261.0,      15.39,    17.34,    14.91,    12.82,    16.50
      262.0,      15.37,    17.32,    14.89,    12.80,    16.48
      263.0,      15.36,    17.31,    14.88,    12.79,    16.45
      264.0,      15.34,    17.29,    14.86,    12.78,    16.43
      265.0,      15.32,    17.27,    14.84,    12.76,    16.40
      266.0,      15.30,    17.25,    14.83,    12.75,    16.37
      267.0,      15.28,    17.24,    14.81,    12.74,    16.35
      268.0,      15.27,    17.22,    14.80,    12.72,    16.32
      269.0,      15.25,    17.20,    14.78,    12.71,    16.30
      270.0,      15.23,    17.18,    14.77,    12.70,    16.27
      271.0,      15.21,    17.17,    14.75,    12.69,    16.25
      272.0,      15.19,    17.15,    14.73,    12.67,    16.22
      273.0,      15.18,    17.13,    14.72,    12.66,    16.20
      274.0,      15.16,    17.11,    14.70,    12.65,    16.17
      275.0,      15.14,    17.10,    14.69,    12.63,    16.14
      276.0,      15.12,    17.08,    14.67,    12.62,    16.12
      277.0,      15.11,    17.06,    14.66,    12.61,    16.09
      278.0,      15.09,    17.05,    14.64,    12.60,    16.07
      279.0,      15.07,    17.03,    14.63,    12.58,    16.04
      280.0,      15.05,    17.01,    14.61,    12.57,    16.02
      281.0,      15.04,    16.99,    14.60,    12.56,    15.99
      282.0,      15.02,    16.98,    14.58,    12.54,    15.97
      283.0,      15.00,    16.96,    14.57,    12.53,    15.94
      284.0,      14.98,    16.94,    14.55,    12.52,    15.92
      285.0,      14.97,    16.93,    14.54,    12.51,    15.89
      286.0,      14.95,    16.91,    14.52,    12.49,    15.87
      287.0,      14.93,    16.89,    14.51,    12.48,    15.85
      288.0,      14.91,    16.87,    14.49,    12.47,    15.82
      289.0,      14.90,    16.86,    14.48,    12.46,    15.80
      290.0,      14.88,    16.84,    14.46,    12.44,    15.77
      291.0,      14.86,    16.82,    14.45,    12.43,    15.75
      292.0,      14.84,    16.81,    14.43,    12.42,    15.72
      293.0,      14.83,    16.79,    14.42,    12.41,    15.70
      294.0,      14.81,    16.77,    14.40,    12.39,    15.67
      295.0,      14.79,    16.76,    14.39,    12.38,    15.65
      296.0,      14.78,    16.74,    14.37,    12.37,    15.63
      297.0,      14.76,    16.72,    14.36,    12.36,    15.60
      298.0,      14.74,    16.71,    14.34,    12.34,    15.58
      299.0,      14.72,    16.69,    14.33,    12.33,    15.55
      300.0,      14.71,    16.67,    14.31,    12.32,    15.53
      301.0,      14.69,    16.65,    14.30,    12.31,    15.50
      302.0,      14.67,    16.64,    14.28,    12.29,    15.48
      303.0,      14.66,    16.62,    14.27,    12.28,    15.46
      304.0,      14.64,    16.60,    14.25,    12.27,    15.43
      305.0,      14.62,    16.59,    14.24,    12.26,    15.41
      306.0,      14.61,    16.57,    14.22,    12.24,    15.38
      307.0,      14.59,    16.55,    14.21,    12.23,    15.36
      308.0,      14.57,    16.54,    14.20,    12.22,    15.34
      309.0,      14.56,    16.52,    14.18,    12.21,    15.31
      310.0,      14.54,    16.50,    14.17,    12.20,    15.29
