Radius (km), Mean (m/s), NE (m/s), SE (m/s), SW (m/s), NW (m/s)
        0.0,       0.00,     0.00,     0.00,     0.00,     0.00
        1.0,       1.44,     1.34,     1.54,     1.44,     1.44
        2.0,       2.75,     2.63,     2.88,     2.75,     2.75
        3.0,       4.03,     3.90,     4.15,     4.03,     4.03
        4.0,       5.27,     5.16,     5.38,     5.28,     5.28
        5.0,       6.50,     6.41,     6.58,     6.51,     6.51
        6.0,       7.72,     7.66,     7.76,     7.72,     7.72
        7.0,       8.92,     8.90,     8.92,     8.93,     8.93
        8.0,      10.11,    10.14,    10.07,    10.12,    10.12
        9.0,      11.30,    11.37,    11.20,    11.30,    11.30
       10.0,      12.47,    12.60,    12.32,    12.48,    12.48
       11.0,      13.64,    13.83,    13.43,    13.65,    13.65
       12.0,      14.80,    15.05,    14.53,    14.81,    14.81
       13.0,      15.96,    16.27,    15.62,    15.97,    15.97
       14.0,      17.11,    17.49,    16.70,    17.12,    17.12
       15.0,      18.25,    18.71,    17.78,    18.27,    18.27
       16.0,      19.40,    19.92,    18.85,    19.41,    19.41
       17.0,      20.53,    21.13,    19.91,    20.54,    20.54
       18.0,      21.67,    22.34,    20.96,    21.68,    21.68
       19.0,      22.80,    23.55,    22.01,    22.81,    22.81
       20.0,      23.92,    24.76,    23.06,    23.93,    23.93
       21.0,      25.05,    25.98,    24.10,    25.06,    25.07
       22.0,      26.20,    27.23,    25.17,    26.19,    26.23
       23.0,      27.42,    28.56,    26.30,    27.35,    27.47
       24.0,      28.74,    30.01,    27.52,    28.59,    28.83
       25.0,      30.19,    31.61,    28.86,    29.95,    30.32
       26.0,      31.77,    33.35,    30.33,    31.45,    31.95
       27.0,      33.46,    35.20,    31.89,    33.08,    33.68
       28.0,      35.21,    37.10,    33.49,    34.79,    35.45
       29.0,      36.93,    38.95,    35.06,    36.53,    37.19
       30.0,      38.55,    40.68,    36.53,    38.20,    38.79
       31.0,      39.98,    42.19,    37.82,    39.71,    40.19
       32.0,      41.15,    43.42,    38.87,    40.98,    41.32
       33.0,      42.02,    44.34,    39.65,    41.95,    42.14
       34.0,      42.58,    44.93,    40.15,    42.59,    42.66
       35.0,      42.85,    45.23,    40.39,    42.90,    42.89
       36.0,      42.87,    45.28,    40.41,    42.92,    42.89
       37.0,      42.71,    45.15,    40.26,    42.71,    42.71
       38.0,      42.42,    44.90,    40.01,    42.33,    42.42
       39.0,      42.06,    44.59,    39.71,    41.86,    42.08
       40.0,      41.68,    44.27,    39.39,    41.36,    41.72
       41.0,      41.31,    43.95,    39.07,    40.85,    41.38
       42.0,      40.96,    43.65,    38.77,    40.38,    41.04
       43.0,      40.62,    43.36,    38.48,    39.92,    40.72
       44.0,      40.29,    43.07,    38.19,    39.48,    40.41
       45.0,      39.96,    42.78,    37.91,    39.06,    40.10
       46.0,      39.64,    42.50,    37.63,    38.64,    39.79
       47.0,      39.32,    42.22,    37.36,    38.23,    39.49
       48.0,      39.01,    41.95,    37.09,    37.83,    39.19
       49.0,      38.71,    41.67,    36.82,    37.43,    38.89
       50.0,      38.40,    41.41,    36.55,    37.05,    38.60
       51.0,      38.10,    41.14,    36.29,    36.67,    38.32
       52.0,      37.81,    40.88,    36.03,    36.30,    38.04
       53.0,      37.52,    40.61,    35.78,    35.93,    37.76
       54.0,      37.24,    40.36,    35.53,    35.58,    37.48
       55.0,      36.96,    40.10,    35.28,    35.23,    37.21
       56.0,      36.68,    39.85,    35.03,    34.88,    36.95
       57.0,      36.41,    39.60,    34.79,    34.55,    36.69
       58.0,      36.14,    39.35,    34.55,    34.22,    36.43
       59.0,      35.87,    39.11,    34.31,    33.89,    36.17
       60.0,      35.61,    38.87,    34.08,    33.58,    35.92
       61.0,      35.35,    38.63,    33.85,    33.26,    35.67
       62.0,      35.10,    38.40,    33.62,    32.96,    35.43
       63.0,      34.85,    38.16,    33.39,    32.66,    35.18
       64.0,      34.60,    37.93,    33.17,    32.36,    34.95
       65.0,      34.36,    37.70,    32.95,    32.08,    34.71
       66.0,      34.12,    37.48,    32.73,    31.79,    34.48
       67.0,      33.89,    37.25,    32.52,    31.52,    34.25
       68.0,      33.65,    37.03,    32.31,    31.24,    34.03
       69.0,      33.42,    36.82,    32.10,    30.98,    33.80
       70.0,      33.20,    36.60,    31.89,    30.71,    33.58
       71.0,      32.97,    36.39,    31.69,    30.45,    33.37
       72.0,      32.75,    36.17,    31.49,    30.20,    33.16
       73.0,      32.54,    35.97,    31.29,    29.95,    32.94
       74.0,      32.32,    35.76,    31.09,    29.71,    32.74
       75.0,      32.11,    35.55,    30.90,    29.47,    32.53
       76.0,      31.91,    35.35,    30.70,    29.24,    32.33
       77.0,      31.70,    35.15,    30.51,    29.01,    32.13
       78.0,      31.50,    34.95,    30.33,    28.78,    31.94
       79.0,      31.30,    34.76,    30.14,    28.56,    31.74
       80.0,      31.10,    34.56,    29.96,    28.34,    31.55
       81.0,      30.91,    34.37,    29.78,    28.13,    31.36
       82.0,      30.72,    34.18,    29.60,    27.92,    31.18
       83.0,      30.53,    34.00,    29.42,    27.71,    30.99
       84.0,      30.34,    33.81,    29.25,    27.51,    30.81
       85.0,      30.16,    33.63,    29.08,    27.31,    30.63
       86.0,      29.98,    33.45,    28.91,    27.11,    30.46
       87.0,      29.80,    33.27,    28.74,    26.92,    30.28
       88.0,      29.63,    33.09,    28.57,    26.73,    30.11
       89.0,      29.45,    32.91,    28.41,    26.55,    29.94
       90.0,      29.28,    32.74,    28.25,    26.37,    29.78
       91.0,      29.11,    32.57,    28.08,    26.19,    29.61
       92.0,      28.95,    32.40,    27.93,    26.01,    29.45
       93.0,      28.78,    32.23,    27.77,    25.84,    29.29
       94.0,      28.62,    32.06,    27.62,    25.67,    29.13
       95.0,      28.46,    31.90,    27.46,    25.50,    28.97
       96.0,      28.30,    31.73,    27.31,    25.34,    28.82
       97.0,      28.15,    31.57,    27.16,    25.18,    28.67
       98.0,      27.99,    31.41,    27.02,    25.02,    28.52
       99.0,      27.84,    31.26,    26.87,    24.86,    28.37
      100.0,      27.69,    31.10,    26.73,    24.71,    28.22
      101.0,      27.54,    30.95,    26.58,    24.56,    28.08
      102.0,      27.40,    30.79,    26.44,    24.41,    27.94
      103.0,      27.25,    30.64,    26.30,    24.27,    27.80
      104.0,      27.11,    30.49,    26.17,    24.13,    27.66
      105.0,      26.97,    30.34,    26.03,    23.99,    27.52
      106.0,      26.83,    30.20,    25.90,    23.85,    27.39
      107.0,      26.70,    30.05,    25.76,    23.71,    27.25
      108.0,      26.56,    29.91,    25.63,    23.58,    27.12
      109.0,      26.43,    29.77,    25.50,    23.45,    26.99
      110.0,      26.30,    29.63,    25.38,    23.32,    26.86
      111.0,      26.17,    29.49,    25.25,    23.19,    26.74
      112.0,      26.04,    29.35,    25.12,    23.07,    26.61
      113.0,      25.91,    29.21,    25.00,    22.94,    26.49
      114.0,      25.79,    29.08,    24.88,    22.82,    26.37
      115.0,      25.66,    28.94,    24.76,    22.70,    26.25
      116.0,      25.54,    28.81,    24.64,    22.58,    26.13
      117.0,      25.42,    28.68,    24.52,    22.47,    26.01
      118.0,      25.30,    28.55,    24.40,    22.36,    25.90
      119.0,      25.18,    28.42,    24.29,    22.24,    25.78
      120.0,      25.07,    28.30,    24.17,    22.13,    25.67
      121.0,      24.95,    28.17,    24.06,    22.02,    25.56
      122.0,      24.84,    28.05,    23.95,    21.92,    25.45
      123.0,      24.73,    27.92,    23.84,    21.81,    25.34
      124.0,      24.62,    27.80,    23.73,    21.71,    25.23
      125.0,      24.51,    27.68,    23.62,    21.61,    25.13
      126.0,      24.40,    27.56,    23.52,    21.51,    25.02
      127.0,      24.30,    27.45,    23.41,    21.41,    24.92
      128.0,      24.19,    27.33,    23.31,    21.31,    24.82
      129.0,      24.09,    27.21,    23.20,    21.21,    24.72
      130.0,      23.98,    27.10,    23.10,    21.12,    24.62
      131.0,      23.88,    26.99,    23.00,    21.03,    24.52
      132.0,      23.78,    26.87,    22.90,    20.93,    24.42
      133.0,      23.68,    26.76,    22.80,    20.84,    24.33
      134.0,      23.59,    26.65,    22.71,    20.75,    24.23
      135.0,      23.49,    26.54,    22.61,    20.66,    24.14
      136.0,      23.39,    26.44,    22.52,    20.58,    24.04
      137.0,      23.30,    26.33,    22.42,    20.49,    23.95
      138.0,      23.21,    26.22,    22.33,    20.41,    23.86
      139.0,      23.11,    26.12,    22.24,    20.32,    23.77
      140.0,      23.02,    26.02,    22.15,    20.24,    23.69
      141.0,      22.93,    25.91,    22.06,    20.16,    23.60
      142.0,      22.84,    25.81,    21.97,    20.08,    23.51
      143.0,      22.76,    25.71,    21.88,    20.00,    23.43
      144.0,      22.67,    25.61,    21.79,    19.92,    23.34
      145.0,      22.58,    25.51,    21.71,    19.85,    23.26
      146.0,      22.50,    25.42,    21.62,    19.77,    23.18
      147.0,      22.41,    25.32,    21.54,    19.70,    23.10
      148.0,      22.33,    25.23,    21.45,    19.62,    23.02
      149.0,      22.25,    25.13,    21.37,    19.55,    22.94
      150.0,      22.17,    25.04,    21.29,    19.48,    22.86
      151.0,      22.09,    24.94,    21.21,    19.41,    22.78
      152.0,      22.01,    24.85,    21.13,    19.34,    22.71
      153.0,      21.93,    24.76,    21.05,    19.27,    22.63
      154.0,      21.85,    24.67,    20.97,    19.20,    22.56
      155.0,      21.77,    24.58,    20.89,    19.13,    22.48
      156.0,      21.70,    24.49,    20.82,    19.07,    22.41
      157.0,      21.62,    24.41,    20.74,    19.00,    22.34
      158.0,      21.55,    24.32,    20.67,    18.93,    22.27
      159.0,      21.47,    24.23,    20.59,    18.87,    22.20
      160.0,      21.40,    24.15,    20.52,    18.81,    22.13
      161.0,      21.33,    24.06,    20.45,    18.74,    22.06
      162.0,      21.26,    23.98,    20.38,    18.68,    21.99
      163.0,      21.19,    23.90,    20.30,    18.62,    21.92
      164.0,      21.12,    23.82,    20.23,    18.56,    21.86
      165.0,      21.05,    23.74,    20.17,    18.50,    21.79
      166.0,      20.98,    23.65,    20.10,    18.44,    21.73
      167.0,      20.91,    23.58,    20.03,    18.38,    21.66
      168.0,      20.84,    23.50,    19.96,    18.32,    21.60
      169.0,      20.78,    23.42,    19.89,    18.26,    21.53
      170.0,      20.71,    23.34,    19.83,    18.21,    21.47
      171.0,      20.65,    23.26,    19.76,    18.15,    21.41
      172.0,      20.58,    23.19,    19.70,    18.10,    21.35
      173.0,      20.52,    23.11,    19.63,    18.04,    21.29
      174.0,      20.46,    23.04,    19.57,    17.99,    21.23
      175.0,      20.39,    22.97,    19.51,    17.93,    21.17
      176.0,      20.33,    22.89,    19.45,    17.88,    21.11
      177.0,      20.27,    22.82,    19.38,    17.83,    21.05
      178.0,      20.21,    22.75,    19.32,    17.77,    21.00
      179.0,      20.15,    22.68,    19.26,    17.72,    20.94
      180.0,      20.09,    22.61,    19.20,    17.67,    20.88
      181.0,      20.03,    22.54,    19.15,    17.62,    20.83
      182.0,      19.97,    22.47,    19.09,    17.57,    20.77
      183.0,      19.92,    22.40,    19.03,    17.52,    20.72
      184.0,      19.86,    22.33,    18.97,    17.47,    20.67
      185.0,      19.80,    22.26,    18.91,    17.42,    20.61
      186.0,      19.75,    22.20,    18.86,    17.37,    20.56
      187.0,      19.69,    22.13,    18.80,    17.33,    20.51
      188.0,      19.64,    22.06,    18.75,    17.28,    20.46
      189.0,      19.58,    22.00,    18.69,    17.23,    20.41
      190.0,      19.53,    21.94,    18.64,    17.18,    20.36
      191.0,      19.48,    21.87,    18.59,    17.14,    20.31
      192.0,      19.42,    21.81,    18.53,    17.09,    20.26
      193.0,      19.37,    21.75,    18.48,    17.05,    20.21
      194.0,      19.32,    21.68,    18.43,    17.00,    20.16
      195.0,      19.27,    21.62,    18.38,    16.96,    20.11
      196.0,      19.22,    21.56,    18.33,    16.91,    20.06
      197.0,      19.17,    21.50,    18.28,    16.87,    20.02
      198.0,      19.12,    21.44,    18.23,    16.83,    19.97
      199.0,      19.07,    21.38,    18.18,    16.78,    19.92
      200.0,      19.02,    21.32,    18.13,    16.74,    19.88
      201.0,      18.97,    21.26,    18.08,    16.70,    19.83
      202.0,      18.92,    21.20,    18.03,    16.65,    19.79
      203.0,      18.87,    21.15,    17.98,    16.61,    19.74
      204.0,      18.82,    21.09,    17.94,    16.57,    19.70
      205.0,      18.78,    21.03,    17.89,    16.53,    19.65
      206.0,      18.73,    20.98,    17.84,    16.49,    19.61
      207.0,      18.68,    20.92,    17.80,    16.45,    19.57
      208.0,      18.64,    20.87,    17.75,    16.41,    19.53
      209.0,      18.59,    20.81,    17.71,    16.37,    19.48
      210.0,      18.55,    20.76,    17.66,    16.33,    19.44
      211.0,      18.50,    20.70,    17.62,    16.29,    19.40
      212.0,      18.46,    20.65,    17.57,    16.25,    19.36
      213.0,      18.41,    20.60,    17.53,    16.21,    19.32
      214.0,      18.37,    20.55,    17.49,    16.17,    19.28
      215.0,      18.33,    20.49,    17.44,    16.13,    19.24
      216.0,      18.28,    20.44,    17.40,    16.10,    19.20
      217.0,      18.24,    20.39,    17.36,    16.06,    19.16
      218.0,      18.20,    20.34,    17.32,    16.02,    19.12
      219.0,      18.16,    20.29,    17.28,    15.98,    19.08
      220.0,      18.12,    20.24,    17.23,    15.95,    19.04
      221.0,      18.08,    20.19,    17.19,    15.91,    19.01
      222.0,      18.03,    20.14,    17.15,    15.87,    18.97
      223.0,      17.99,    20.09,    17.11,    15.84,    18.93
      224.0,      17.95,    20.05,    17.07,    15.80,    18.89
      225.0,      17.91,    20.00,    17.03,    15.76,    18.86
      226.0,      17.87,    19.95,    17.00,    15.73,    18.82
      227.0,      17.83,    19.90,    16.96,    15.69,    18.79
      228.0,      17.80,    19.86,    16.92,    15.66,    18.75
      229.0,      17.76,    19.81,    16.88,    15.62,    18.71
      230.0,      17.72,    19.76,    16.84,    15.59,    18.68
      231.0,      17.68,    19.72,    16.81,    15.55,    18.64
      232.0,      17.64,    19.67,    16.77,    15.52,    18.61
      233.0,      17.61,    19.63,    16.73,    15.48,    18.58
      234.0,      17.57,    19.58,    16.70,    15.45,    18.54
      235.0,      17.53,    19.54,    16.66,    15.42,    18.51
      236.0,      17.49,    19.49,    16.62,    15.38,    18.47
      237.0,      17.46,    19.45,    16.59,    15.35,    18.44
      238.0,      17.42,    19.41,    16.55,    15.32,    18.41
      239.0,      17.39,    19.36,    16.52,    15.28,    18.38
      240.0,      17.35,    19.32,    16.48,    15.25,    18.34
      241.0,      17.31,    19.28,    16.45,    15.22,    18.31
      242.0,      17.28,    19.24,    16.42,    15.18,    18.28
      243.0,      17.24,    19.20,    16.38,    15.15,    18.25
      244.0,      17.21,    19.15,    16.35,    15.12,    18.21
      245.0,      17.17,    19.11,    16.32,    15.09,    18.18
      246.0,      17.14,    19.07,    16.28,    15.06,    18.15
      247.0,      17.11,    19.03,    16.25,    15.02,    18.12
      248.0,      17.07,    18.99,    16.22,    14.99,    18.09
      249.0,      17.04,    18.95,    16.18,    14.96,    18.06
      250.0,      17.01,    18.91,    16.15,    14.93,    18.03
      251.0,      16.97,    18.87,    16.12,    14.90,    18.00
      252.0,      16.94,    18.83,    16.09,    14.87,    17.97
      253.0,      16.91,    18.80,    16.06,    14.84,    17.94
      254.0,      16.88,    18.76,    16.03,    14.80,    17.91
      255.0,      16.84,    18.72,    16.00,    14.77,    17.88
      256.0,      16.81,    18.68,    15.96,    14.74,    17.85
      257.0,      16.78,    18.64,    15.93,    14.71,    17.82
      258.0,      16.75,    18.61,    15.90,    14.68,    17.80
      259.0,      16.72,    18.57,    15.87,    14.65,    17.77
      260.0,      16.68,    18.53,    15.84,    14.62,    17.74
      261.0,      16.65,    18.50,    15.81,    14.59,    17.71
      262.0,      16.62,    18.46,    15.79,    14.56,    17.68
      263.0,      16.59,    18.42,    15.76,    14.53,    17.66
      264.0,      16.56,    18.39,    15.73,    14.50,    17.63
      265.0,      16.53,    18.35,    15.70,    14.47,    17.60
      266.0,      16.50,    18.32,    15.67,    14.45,    17.57
      267.0,      16.47,    18.28,    15.64,    14.42,    17.55
      268.0,      16.44,    18.25,    15.61,    14.39,    17.52
      269.0,      16.41,    18.21,    15.59,    14.36,    17.49
      270.0,      16.38,    18.18,    15.56,    14.33,    17.47
      271.0,      16.35,    18.14,    15.53,    14.30,    17.44
      272.0,      16.32,    18.11,    15.50,    14.27,    17.41
      273.0,      16.30,    18.08,    15.48,    14.24,    17.39
      274.0,      16.27,    18.04,    15.45,    14.21,    17.36
      275.0,      16.24,    18.01,    15.42,    14.19,    17.34
      276.0,      16.21,    17.98,    15.40,    14.16,    17.31
      277.0,      16.18,    17.94,    15.37,    14.13,    17.29
      278.0,      16.15,    17.91,    15.34,    14.10,    17.26
      279.0,      16.13,    17.88,    15.32,    14.07,    17.24
      280.0,      16.10,    17.84,    15.29,    14.05,    17.21
      281.0,      16.07,    17.81,    15.26,    14.02,    17.19
      282.0,      16.04,    17.78,    15.24,    13.99,    17.16
      283.0,      16.02,    17.75,    15.21,    13.96,    17.14
      284.0,      15.99,    17.72,    15.19,    13.94,    17.11
      285.0,      15.96,    17.69,    15.16,    13.91,    17.09
      286.0,      15.93,    17.66,    15.14,    13.88,    17.06
      287.0,      15.91,    17.62,    15.11,    13.85,    17.04
      288.0,      15.88,    17.59,    15.09,    13.83,    17.02
      289.0,      15.86,    17.56,    15.06,    13.80,    16.99
      290.0,      15.83,    17.53,    15.04,    13.77,    16.97
      291.0,      15.80,    17.50,    15.02,    13.75,    16.95
      292.0,      15.78,    17.47,    14.99,    13.72,    16.92
      293.0,      15.75,    17.44,    14.97,    13.69,    16.90
      294.0,      15.73,    17.41,    14.94,    13.67,    16.88
      295.0,      15.70,    17.38,    14.92,    13.64,    16.85
      296.0,      15.67,    17.35,    14.90,    13.61,    16.83
      297.0,      15.65,    17.33,    14.87,    13.59,    16.81
      298.0,      15.62,    17.30,    14.85,    13.56,    16.78
      299.0,      15.60,    17.27,    14.83,    13.54,    16.76
      300.0,      15.57,    17.24,    14.80,    13.51,    16.74
      301.0,      15.55,    17.21,    14.78,    13.48,    16.72
      302.0,      15.52,    17.18,    14.76,    13.46,    16.70
      303.0,      15.50,    17.15,    14.74,    13.43,    16.67
      304.0,      15.47,    17.13,    14.71,    13.41,    16.65
      305.0,      15.45,    17.10,    14.69,    13.38,    16.63
      306.0,      15.43,    17.07,    14.67,    13.35,    16.61
      307.0,      15.40,    17.04,    14.65,    13.33,    16.59
      308.0,      15.38,    17.02,    14.62,    13.30,    16.56
      309.0,      15.35,    16.99,    14.60,    13.28,    16.54
      310.0,      15.33,    16.96,    14.58,    13.25,    16.52
