Radius (km), Mean (m/s), NE (m/s), SE (m/s), SW (m/s), NW (m/s)
        0.0,       0.00,     0.00,     0.00,     0.00,     0.00
        1.0,       1.16,     0.98,     1.46,     1.72,     0.48
        2.0,       2.28,     2.10,     2.75,     3.02,     1.26
        3.0,       3.42,     3.28,     3.98,     4.20,     2.21
        4.0,       4.57,     4.51,     5.17,     5.31,     3.30
        5.0,       5.74,     5.77,     6.33,     6.36,     4.50
        6.0,       6.92,     7.06,     7.47,     7.38,     5.79
        7.0,       8.12,     8.36,     8.60,     8.37,     7.17
        8.0,       9.34,     9.69,     9.71,     9.33,     8.63
        9.0,      10.57,    11.04,    10.80,    10.26,    10.16
       10.0,      11.81,    12.40,    11.89,    11.18,    11.76
       11.0,      13.06,    13.77,    12.97,    12.08,    13.42
       12.0,      14.33,    15.16,    14.04,    12.97,    15.14
       13.0,      15.60,    16.56,    15.10,    13.84,    16.92
       14.0,      16.89,    17.97,    16.15,    14.70,    18.75
       15.0,      18.19,    19.39,    17.20,    15.55,    20.63
       16.0,      19.50,    20.82,    18.24,    16.39,    22.56
       17.0,      20.82,    22.27,    19.27,    17.22,    24.54
       18.0,      22.15,    23.71,    20.30,    18.04,    26.56
       19.0,      23.49,    25.17,    21.33,    18.85,    28.63
       20.0,      24.84,    26.64,    22.35,    19.65,    30.74
       21.0,      26.21,    28.12,    23.37,    20.45,    32.89
       22.0,      27.62,    29.66,    24.42,    21.26,    35.13
       23.0,      29.13,    31.33,    25.55,    22.11,    37.55
       24.0,      30.82,    33.19,    26.79,    23.03,    40.27
       25.0,      32.73,    35.30,    28.18,    24.04,    43.41
       26.0,      34.89,    37.66,    29.72,    25.16,    47.01
       27.0,      37.24,    40.22,    31.37,    26.36,    51.01
       28.0,      39.71,    42.88,    33.06,    27.60,    55.29
       29.0,      42.17,    45.50,    34.72,    28.82,    59.61
       30.0,      44.47,    47.94,    36.24,    29.96,    63.73
       31.0,      46.48,    50.04,    37.55,    30.96,    67.38
       32.0,      48.08,    51.69,    38.57,    31.75,    70.33
       33.0,      49.21,    52.82,    39.27,    32.32,    72.42
       34.0,      49.83,    53.42,    39.64,    32.65,    73.59
       35.0,      49.97,    53.53,    39.71,    32.76,    73.88
       36.0,      49.71,    53.23,    39.53,    32.68,    73.39
       37.0,      49.13,    52.61,    39.17,    32.45,    72.29
       38.0,      48.36,    51.80,    38.69,    32.13,    70.80
       39.0,      47.48,    50.91,    38.16,    31.75,    69.11
       40.0,      46.59,    49.99,    37.62,    31.37,    67.37
       41.0,      45.72,    49.11,    37.10,    30.99,    65.68
       42.0,      44.90,    48.28,    36.60,    30.63,    64.09
       43.0,      44.12,    47.48,    36.12,    30.29,    62.60
       44.0,      43.37,    46.71,    35.65,    29.95,    61.18
       45.0,      42.65,    45.97,    35.20,    29.62,    59.81
       46.0,      41.95,    45.24,    34.75,    29.30,    58.50
       47.0,      41.27,    44.54,    34.32,    28.98,    57.23
       48.0,      40.61,    43.86,    33.90,    28.67,    56.02
       49.0,      39.98,    43.20,    33.49,    28.37,    54.84
       50.0,      39.36,    42.56,    33.09,    28.07,    53.71
       51.0,      38.76,    41.94,    32.70,    27.78,    52.62
       52.0,      38.18,    41.34,    32.32,    27.49,    51.57
       53.0,      37.62,    40.76,    31.95,    27.21,    50.56
       54.0,      37.08,    40.19,    31.59,    26.93,    49.59
       55.0,      36.55,    39.64,    31.24,    26.66,    48.65
       56.0,      36.04,    39.11,    30.89,    26.40,    47.74
       57.0,      35.54,    38.59,    30.56,    26.14,    46.87
       58.0,      35.06,    38.09,    30.23,    25.88,    46.03
       59.0,      34.59,    37.60,    29.91,    25.63,    45.22
       60.0,      34.14,    37.13,    29.60,    25.39,    44.44
       61.0,      33.70,    36.67,    29.30,    25.15,    43.69
       62.0,      33.28,    36.22,    29.00,    24.91,    42.96
       63.0,      32.86,    35.79,    28.71,    24.68,    42.27
       64.0,      32.46,    35.37,    28.43,    24.46,    41.59
       65.0,      32.07,    34.97,    28.16,    24.24,    40.94
       66.0,      31.70,    34.57,    27.89,    24.02,    40.31
       67.0,      31.33,    34.19,    27.63,    23.80,    39.71
       68.0,      30.98,    33.81,    27.37,    23.60,    39.13
       69.0,      30.63,    33.45,    27.12,    23.39,    38.56
       70.0,      30.30,    33.10,    26.88,    23.19,    38.02
       71.0,      29.97,    32.76,    26.64,    22.99,    37.50
       72.0,      29.66,    32.43,    26.41,    22.80,    36.99
       73.0,      29.35,    32.11,    26.19,    22.61,    36.51
       74.0,      29.05,    31.79,    25.97,    22.42,    36.04
       75.0,      28.77,    31.49,    25.75,    22.24,    35.58
       76.0,      28.48,    31.19,    25.54,    22.06,    35.14
       77.0,      28.21,    30.91,    25.34,    21.88,    34.72
       78.0,      27.95,    30.63,    25.14,    21.71,    34.31
       79.0,      27.69,    30.36,    24.94,    21.54,    33.92
       80.0,      27.44,    30.10,    24.75,    21.38,    33.53
       81.0,      27.20,    29.84,    24.56,    21.21,    33.17
       82.0,      26.96,    29.59,    24.38,    21.05,    32.81
       83.0,      26.73,    29.35,    24.21,    20.90,    32.47
       84.0,      26.51,    29.11,    24.03,    20.74,    32.13
       85.0,      26.29,    28.89,    23.86,    20.59,    31.81
       86.0,      26.08,    28.66,    23.70,    20.45,    31.50
       87.0,      25.87,    28.45,    23.54,    20.30,    31.20
       88.0,      25.67,    28.24,    23.38,    20.16,    30.91
       89.0,      25.48,    28.03,    23.23,    20.02,    30.63
       90.0,      25.29,    27.84,    23.08,    19.88,    30.36
       91.0,      25.10,    27.64,    22.93,    19.75,    30.10
       92.0,      24.92,    27.45,    22.79,    19.61,    29.84
       93.0,      24.75,    27.27,    22.64,    19.48,    29.60
       94.0,      24.58,    27.09,    22.51,    19.36,    29.36
       95.0,      24.41,    26.92,    22.37,    19.23,    29.13
       96.0,      24.25,    26.75,    22.24,    19.11,    28.90
       97.0,      24.09,    26.59,    22.12,    18.99,    28.69
       98.0,      23.94,    26.43,    21.99,    18.87,    28.48
       99.0,      23.79,    26.27,    21.87,    18.75,    28.27
      100.0,      23.65,    26.12,    21.75,    18.64,    28.08
      101.0,      23.50,    25.97,    21.63,    18.53,    27.89
      102.0,      23.37,    25.83,    21.52,    18.42,    27.70
      103.0,      23.23,    25.69,    21.41,    18.31,    27.52
      104.0,      23.10,    25.55,    21.30,    18.21,    27.35
      105.0,      22.97,    25.42,    21.19,    18.10,    27.18
      106.0,      22.85,    25.29,    21.09,    18.00,    27.01
      107.0,      22.72,    25.16,    20.98,    17.90,    26.85
      108.0,      22.60,    25.04,    20.88,    17.80,    26.70
      109.0,      22.49,    24.92,    20.79,    17.70,    26.55
      110.0,      22.37,    24.80,    20.69,    17.61,    26.40
      111.0,      22.26,    24.68,    20.60,    17.52,    26.26
      112.0,      22.16,    24.57,    20.51,    17.43,    26.12
      113.0,      22.05,    24.46,    20.42,    17.34,    25.99
      114.0,      21.95,    24.36,    20.33,    17.25,    25.85
      115.0,      21.84,    24.25,    20.24,    17.16,    25.73
      116.0,      21.75,    24.15,    20.16,    17.07,    25.60
      117.0,      21.65,    24.05,    20.08,    16.99,    25.48
      118.0,      21.56,    23.95,    19.99,    16.91,    25.36
      119.0,      21.46,    23.86,    19.92,    16.83,    25.25
      120.0,      21.37,    23.77,    19.84,    16.75,    25.14
      121.0,      21.28,    23.67,    19.76,    16.67,    25.03
      122.0,      21.20,    23.59,    19.69,    16.59,    24.92
      123.0,      21.11,    23.50,    19.61,    16.52,    24.82
      124.0,      21.03,    23.42,    19.54,    16.44,    24.72
      125.0,      20.95,    23.33,    19.47,    16.37,    24.62
      126.0,      20.87,    23.25,    19.41,    16.30,    24.52
      127.0,      20.79,    23.17,    19.34,    16.23,    24.43
      128.0,      20.72,    23.09,    19.27,    16.16,    24.34
      129.0,      20.64,    23.02,    19.21,    16.09,    24.25
      130.0,      20.57,    22.94,    19.14,    16.02,    24.16
      131.0,      20.50,    22.87,    19.08,    15.96,    24.07
      132.0,      20.43,    22.80,    19.02,    15.89,    23.99
      133.0,      20.36,    22.73,    18.96,    15.83,    23.90
      134.0,      20.29,    22.66,    18.90,    15.77,    23.82
      135.0,      20.22,    22.59,    18.84,    15.71,    23.74
      136.0,      20.16,    22.53,    18.79,    15.65,    23.67
      137.0,      20.09,    22.46,    18.73,    15.59,    23.59
      138.0,      20.03,    22.40,    18.68,    15.53,    23.52
      139.0,      19.97,    22.34,    18.62,    15.47,    23.44
      140.0,      19.91,    22.28,    18.57,    15.41,    23.37
      141.0,      19.85,    22.22,    18.52,    15.36,    23.30
      142.0,      19.79,    22.16,    18.47,    15.30,    23.23
      143.0,      19.73,    22.10,    18.42,    15.25,    23.16
      144.0,      19.68,    22.04,    18.37,    15.19,    23.10
      145.0,      19.62,    21.99,    18.32,    15.14,    23.03
      146.0,      19.57,    21.93,    18.28,    15.09,    22.97
      147.0,      19.51,    21.88,    18.23,    15.04,    22.90
      148.0,      19.46,    21.83,    18.18,    14.99,    22.84
      149.0,      19.41,    21.77,    18.14,    14.94,    22.78
      150.0,      19.36,    21.72,    18.09,    14.89,    22.72
      151.0,      19.31,    21.67,    18.05,    14.84,    22.66
      152.0,      19.26,    21.62,    18.01,    14.80,    22.60
      153.0,      19.21,    21.57,    17.97,    14.75,    22.54
      154.0,      19.16,    21.52,    17.92,    14.71,    22.48
      155.0,      19.11,    21.48,    17.88,    14.66,    22.43
      156.0,      19.07,    21.43,    17.84,    14.62,    22.37
      157.0,      19.02,    21.38,    17.80,    14.57,    22.32
      158.0,      18.97,    21.34,    17.77,    14.53,    22.26
      159.0,      18.93,    21.29,    17.73,    14.49,    22.21
      160.0,      18.89,    21.25,    17.69,    14.45,    22.16
      161.0,      18.84,    21.21,    17.65,    14.40,    22.10
      162.0,      18.80,    21.16,    17.62,    14.36,    22.05
      163.0,      18.76,    21.12,    17.58,    14.32,    22.00
      164.0,      18.71,    21.08,    17.54,    14.28,    21.95
      165.0,      18.67,    21.04,    17.51,    14.25,    21.90
      166.0,      18.63,    21.00,    17.47,    14.21,    21.85
      167.0,      18.59,    20.96,    17.44,    14.17,    21.80
      168.0,      18.55,    20.92,    17.41,    14.13,    21.75
      169.0,      18.51,    20.88,    17.37,    14.10,    21.71
      170.0,      18.47,    20.84,    17.34,    14.06,    21.66
      171.0,      18.44,    20.80,    17.31,    14.02,    21.61
      172.0,      18.40,    20.76,    17.28,    13.99,    21.57
      173.0,      18.36,    20.73,    17.24,    13.95,    21.52
      174.0,      18.32,    20.69,    17.21,    13.92,    21.47
      175.0,      18.29,    20.65,    17.18,    13.89,    21.43
      176.0,      18.25,    20.62,    17.15,    13.85,    21.38
      177.0,      18.22,    20.58,    17.12,    13.82,    21.34
      178.0,      18.18,    20.55,    17.09,    13.79,    21.30
      179.0,      18.14,    20.51,    17.06,    13.75,    21.25
      180.0,      18.11,    20.48,    17.03,    13.72,    21.21
      181.0,      18.08,    20.44,    17.01,    13.69,    21.17
      182.0,      18.04,    20.41,    16.98,    13.66,    21.12
      183.0,      18.01,    20.37,    16.95,    13.63,    21.08
      184.0,      17.97,    20.34,    16.92,    13.60,    21.04
      185.0,      17.94,    20.31,    16.89,    13.57,    21.00
      186.0,      17.91,    20.27,    16.87,    13.54,    20.95
      187.0,      17.88,    20.24,    16.84,    13.51,    20.91
      188.0,      17.84,    20.21,    16.81,    13.48,    20.87
      189.0,      17.81,    20.18,    16.79,    13.45,    20.83
      190.0,      17.78,    20.14,    16.76,    13.43,    20.79
      191.0,      17.75,    20.11,    16.74,    13.40,    20.75
      192.0,      17.72,    20.08,    16.71,    13.37,    20.71
      193.0,      17.69,    20.05,    16.69,    13.34,    20.67
      194.0,      17.66,    20.02,    16.66,    13.32,    20.63
      195.0,      17.63,    19.99,    16.64,    13.29,    20.59
      196.0,      17.60,    19.96,    16.61,    13.26,    20.55
      197.0,      17.57,    19.93,    16.59,    13.24,    20.51
      198.0,      17.54,    19.90,    16.56,    13.21,    20.47
      199.0,      17.51,    19.87,    16.54,    13.19,    20.44
      200.0,      17.48,    19.84,    16.52,    13.16,    20.40
      201.0,      17.45,    19.81,    16.49,    13.14,    20.36
      202.0,      17.42,    19.78,    16.47,    13.11,    20.32
      203.0,      17.39,    19.75,    16.45,    13.09,    20.28
      204.0,      17.36,    19.72,    16.42,    13.07,    20.25
      205.0,      17.34,    19.69,    16.40,    13.04,    20.21
      206.0,      17.31,    19.66,    16.38,    13.02,    20.17
      207.0,      17.28,    19.64,    16.36,    12.99,    20.13
      208.0,      17.25,    19.61,    16.33,    12.97,    20.10
      209.0,      17.23,    19.58,    16.31,    12.95,    20.06
      210.0,      17.20,    19.55,    16.29,    12.93,    20.02
      211.0,      17.17,    19.52,    16.27,    12.90,    19.99
      212.0,      17.14,    19.50,    16.25,    12.88,    19.95
      213.0,      17.12,    19.47,    16.23,    12.86,    19.91
      214.0,      17.09,    19.44,    16.21,    12.84,    19.88
      215.0,      17.06,    19.41,    16.18,    12.82,    19.84
      216.0,      17.04,    19.39,    16.16,    12.80,    19.80
      217.0,      17.01,    19.36,    16.14,    12.77,    19.77
      218.0,      16.99,    19.33,    16.12,    12.75,    19.73
      219.0,      16.96,    19.31,    16.10,    12.73,    19.70
      220.0,      16.93,    19.28,    16.08,    12.71,    19.66
      221.0,      16.91,    19.25,    16.06,    12.69,    19.63
      222.0,      16.88,    19.23,    16.04,    12.67,    19.59
      223.0,      16.86,    19.20,    16.02,    12.65,    19.56
      224.0,      16.83,    19.17,    16.00,    12.63,    19.52
      225.0,      16.81,    19.15,    15.98,    12.61,    19.49
      226.0,      16.78,    19.12,    15.96,    12.59,    19.45
      227.0,      16.76,    19.10,    15.94,    12.57,    19.42
      228.0,      16.73,    19.07,    15.92,    12.55,    19.38
      229.0,      16.71,    19.05,    15.90,    12.53,    19.35
      230.0,      16.68,    19.02,    15.88,    12.52,    19.31
      231.0,      16.66,    18.99,    15.87,    12.50,    19.28
      232.0,      16.63,    18.97,    15.85,    12.48,    19.24
      233.0,      16.61,    18.94,    15.83,    12.46,    19.21
      234.0,      16.59,    18.92,    15.81,    12.44,    19.18
      235.0,      16.56,    18.89,    15.79,    12.42,    19.14
      236.0,      16.54,    18.87,    15.77,    12.41,    19.11
      237.0,      16.51,    18.84,    15.75,    12.39,    19.07
      238.0,      16.49,    18.82,    15.73,    12.37,    19.04
      239.0,      16.47,    18.79,    15.72,    12.35,    19.01
      240.0,      16.44,    18.77,    15.70,    12.33,    18.97
      241.0,      16.42,    18.74,    15.68,    12.32,    18.94
      242.0,      16.40,    18.72,    15.66,    12.30,    18.91
      243.0,      16.37,    18.70,    15.64,    12.28,    18.87
      244.0,      16.35,    18.67,    15.63,    12.27,    18.84
      245.0,      16.33,    18.65,    15.61,    12.25,    18.81
      246.0,      16.30,    18.62,    15.59,    12.23,    18.77
      247.0,      16.28,    18.60,    15.57,    12.21,    18.74
      248.0,      16.26,    18.57,    15.56,    12.20,    18.71
      249.0,      16.24,    18.55,    15.54,    12.18,    18.68
      250.0,      16.21,    18.53,    15.52,    12.17,    18.64
      251.0,      16.19,    18.50,    15.50,    12.15,    18.61
      252.0,      16.17,    18.48,    15.49,    12.13,    18.58
      253.0,      16.15,    18.45,    15.47,    12.12,    18.54
      254.0,      16.12,    18.43,    15.45,    12.10,    18.51
      255.0,      16.10,    18.41,    15.43,    12.08,    18.48
      256.0,      16.08,    18.38,    15.42,    12.07,    18.45
      257.0,      16.06,    18.36,    15.40,    12.05,    18.41
      258.0,      16.03,    18.34,    15.38,    12.04,    18.38
      259.0,      16.01,    18.31,    15.37,    12.02,    18.35
      260.0,      15.99,    18.29,    15.35,    12.01,    18.32
      261.0,      15.97,    18.26,    15.33,    11.99,    18.29
      262.0,      15.95,    18.24,    15.31,    11.98,    18.25
      263.0,      15.92,    18.22,    15.30,    11.96,    18.22
      264.0,      15.90,    18.19,    15.28,    11.95,    18.19
      265.0,      15.88,    18.17,    15.26,    11.93,    18.16
      266.0,      15.86,    18.15,    15.25,    11.92,    18.13
      267.0,      15.84,    18.13,    15.23,    11.90,    18.10
      268.0,      15.82,    18.10,    15.21,    11.89,    18.06
      269.0,      15.80,    18.08,    15.20,    11.87,    18.03
      270.0,      15.77,    18.06,    15.18,    11.86,    18.00
      271.0,      15.75,    18.03,    15.17,    11.84,    17.97
      272.0,      15.73,    18.01,    15.15,    11.83,    17.94
      273.0,      15.71,    17.99,    15.13,    11.81,    17.91
      274.0,      15.69,    17.96,    15.12,    11.80,    17.88
      275.0,      15.67,    17.94,    15.10,    11.78,    17.85
      276.0,      15.65,    17.92,    15.08,    11.77,    17.81
      277.0,      15.63,    17.90,    15.07,    11.76,    17.78
      278.0,      15.60,    17.87,    15.05,    11.74,    17.75
      279.0,      15.58,    17.85,    15.04,    11.73,    17.72
      280.0,      15.56,    17.83,    15.02,    11.71,    17.69
      281.0,      15.54,    17.81,    15.00,    11.70,    17.66
      282.0,      15.52,    17.78,    14.99,    11.69,    17.63
      283.0,      15.50,    17.76,    14.97,    11.67,    17.60
      284.0,      15.48,    17.74,    14.96,    11.66,    17.57
      285.0,      15.46,    17.72,    14.94,    11.64,    17.54
      286.0,      15.44,    17.69,    14.92,    11.63,    17.51
      287.0,      15.42,    17.67,    14.91,    11.62,    17.48
      288.0,      15.40,    17.65,    14.89,    11.60,    17.45
      289.0,      15.38,    17.63,    14.88,    11.59,    17.42
      290.0,      15.36,    17.60,    14.86,    11.58,    17.39
      291.0,      15.34,    17.58,    14.85,    11.56,    17.36
      292.0,      15.32,    17.56,    14.83,    11.55,    17.32
      293.0,      15.30,    17.54,    14.81,    11.54,    17.29
      294.0,      15.28,    17.52,    14.80,    11.52,    17.26
      295.0,      15.26,    17.49,    14.78,    11.51,    17.23
      296.0,      15.24,    17.47,    14.77,    11.50,    17.20
      297.0,      15.22,    17.45,    14.75,    11.48,    17.17
      298.0,      15.20,    17.43,    14.74,    11.47,    17.15
      299.0,      15.18,    17.41,    14.72,    11.46,    17.12
      300.0,      15.16,    17.38,    14.71,    11.44,    17.09
      301.0,      15.14,    17.36,    14.69,    11.43,    17.06
      302.0,      15.12,    17.34,    14.68,    11.42,    17.03
      303.0,      15.10,    17.32,    14.66,    11.41,    17.00
      304.0,      15.08,    17.30,    14.65,    11.39,    16.97
      305.0,      15.06,    17.28,    14.63,    11.38,    16.94
      306.0,      15.04,    17.25,    14.62,    11.37,    16.91
      307.0,      15.02,    17.23,    14.60,    11.35,    16.88
      308.0,      15.00,    17.21,    14.59,    11.34,    16.85
      309.0,      14.98,    17.19,    14.57,    11.33,    16.82
      310.0,      14.96,    17.17,    14.55,    11.32,    16.79
