Radius (km), Mean (m/s), NE (m/s), SE (m/s), SW (m/s), NW (m/s)
        0.0,       0.00,     0.00,     0.00,     0.00,     0.00
        1.0,       1.38,     1.36,     1.41,     1.41,     1.36
        2.0,       2.54,     2.50,     2.58,     2.58,     2.50
        3.0,       3.62,     3.59,     3.66,     3.66,     3.59
        4.0,       4.66,     4.63,     4.69,     4.69,     4.63
        5.0,       5.67,     5.64,     5.70,     5.70,     5.64
        6.0,       6.65,     6.63,     6.67,     6.67,     6.63
        7.0,       7.61,     7.60,     7.62,     7.62,     7.60
        8.0,       8.56,     8.56,     8.56,     8.56,     8.56
        9.0,       9.49,     9.50,     9.48,     9.48,     9.50
       10.0,      10.40,    10.43,    10.38,    10.38,    10.43
       11.0,      11.31,    11.34,    11.28,    11.28,    11.34
       12.0,      12.21,    12.25,    12.16,    12.16,    12.25
       13.0,      13.09,    13.15,    13.03,    13.03,    13.15
       14.0,      13.97,    14.05,    13.90,    13.90,    14.05
       15.0,      14.84,    14.93,    14.75,    14.75,    14.93
       16.0,      15.71,    15.81,    15.60,    15.60,    15.81
       17.0,      16.56,    16.69,    16.44,    16.44,    16.69
       18.0,      17.41,    17.55,    17.27,    17.27,    17.55
       19.0,      18.26,    18.41,    18.10,    18.10,    18.41
       20.0,      19.10,    19.27,    18.93,    18.93,    19.27
       21.0,      19.93,    20.12,    19.74,    19.74,    20.12
       22.0,      20.76,    20.97,    20.55,    20.55,    20.97
       23.0,      21.59,    21.81,    21.36,    21.36,    21.81
       24.0,      22.41,    22.65,    22.16,    22.16,    22.65
       25.0,      23.22,    23.48,    22.96,    22.96,    23.48
       26.0,      24.03,    24.31,    23.75,    23.75,    24.31
       27.0,      24.84,    25.14,    24.54,    24.54,    25.14
       28.0,      25.65,    25.96,    25.33,    25.33,    25.96
       29.0,      26.45,    26.78,    26.11,    26.11,    26.78
       30.0,      27.25,    27.60,    26.89,    26.89,    27.60
       31.0,      28.04,    28.42,    27.67,    27.67,    28.42
       32.0,      28.85,    29.25,    28.47,    28.45,    29.24
       33.0,      29.70,    30.13,    29.32,    29.26,    30.10
       34.0,      30.62,    31.08,    30.24,    30.14,    31.01
       35.0,      31.62,    32.12,    31.25,    31.11,    31.99
       36.0,      32.71,    33.24,    32.34,    32.19,    33.05
       37.0,      33.86,    34.43,    33.50,    33.34,    34.18
       38.0,      35.05,    35.65,    34.67,    34.55,    35.33
       39.0,      36.21,    36.83,    35.81,    35.74,    36.46
       40.0,      37.29,    37.92,    36.85,    36.85,    37.53
       41.0,      38.22,    38.87,    37.74,    37.82,    38.47
       42.0,      38.97,    39.63,    38.43,    38.58,    39.25
       43.0,      39.51,    40.17,    38.92,    39.10,    39.85
       44.0,      39.83,    40.50,    39.19,    39.38,    40.26
       45.0,      39.95,    40.62,    39.28,    39.41,    40.48
       46.0,      39.89,    40.58,    39.20,    39.24,    40.55
       47.0,      39.72,    40.42,    39.02,    38.92,    40.50
       48.0,      39.46,    40.19,    38.78,    38.50,    40.38
       49.0,      39.17,    39.92,    38.50,    38.04,    40.22
       50.0,      38.87,    39.65,    38.23,    37.57,    40.04
       51.0,      38.59,    39.39,    37.97,    37.13,    39.88
       52.0,      38.33,    39.14,    37.73,    36.71,    39.73
       53.0,      38.08,    38.91,    37.50,    36.32,    39.58
       54.0,      37.84,    38.68,    37.28,    35.94,    39.44
       55.0,      37.60,    38.45,    37.07,    35.58,    39.30
       56.0,      37.37,    38.23,    36.86,    35.23,    39.16
       57.0,      37.15,    38.01,    36.66,    34.90,    39.02
       58.0,      36.93,    37.80,    36.46,    34.57,    38.88
       59.0,      36.71,    37.59,    36.27,    34.25,    38.75
       60.0,      36.50,    37.38,    36.08,    33.95,    38.61
       61.0,      36.30,    37.18,    35.90,    33.65,    38.47
       62.0,      36.10,    36.98,    35.72,    33.36,    38.34
       63.0,      35.90,    36.78,    35.55,    33.08,    38.20
       64.0,      35.71,    36.59,    35.38,    32.81,    38.07
       65.0,      35.52,    36.40,    35.22,    32.55,    37.93
       66.0,      35.34,    36.21,    35.06,    32.29,    37.80
       67.0,      35.16,    36.03,    34.90,    32.05,    37.67
       68.0,      34.98,    35.85,    34.75,    31.80,    37.54
       69.0,      34.81,    35.67,    34.60,    31.57,    37.41
       70.0,      34.64,    35.49,    34.45,    31.34,    37.28
       71.0,      34.47,    35.32,    34.31,    31.12,    37.15
       72.0,      34.31,    35.15,    34.17,    30.91,    37.02
       73.0,      34.15,    34.98,    34.04,    30.70,    36.89
       74.0,      33.99,    34.81,    33.90,    30.50,    36.76
       75.0,      33.84,    34.65,    33.77,    30.30,    36.63
       76.0,      33.69,    34.49,    33.64,    30.11,    36.51
       77.0,      33.54,    34.33,    33.52,    29.92,    36.38
       78.0,      33.39,    34.18,    33.40,    29.74,    36.26
       79.0,      33.25,    34.02,    33.28,    29.56,    36.13
       80.0,      33.11,    33.87,    33.16,    29.39,    36.01
       81.0,      32.97,    33.72,    33.05,    29.22,    35.88
       82.0,      32.83,    33.58,    32.93,    29.06,    35.76
       83.0,      32.70,    33.43,    32.82,    28.90,    35.64
       84.0,      32.57,    33.29,    32.71,    28.74,    35.52
       85.0,      32.44,    33.15,    32.61,    28.59,    35.39
       86.0,      32.31,    33.01,    32.50,    28.44,    35.27
       87.0,      32.18,    32.87,    32.40,    28.30,    35.15
       88.0,      32.06,    32.74,    32.30,    28.15,    35.03
       89.0,      31.93,    32.60,    32.20,    28.02,    34.91
       90.0,      31.81,    32.47,    32.10,    27.88,    34.80
       91.0,      31.69,    32.34,    32.00,    27.75,    34.68
       92.0,      31.58,    32.22,    31.91,    27.62,    34.56
       93.0,      31.46,    32.09,    31.81,    27.49,    34.44
       94.0,      31.35,    31.97,    31.72,    27.37,    34.33
       95.0,      31.23,    31.84,    31.63,    27.24,    34.21
       96.0,      31.12,    31.72,    31.54,    27.12,    34.10
       97.0,      31.01,    31.60,    31.45,    27.01,    33.98
       98.0,      30.90,    31.48,    31.37,    26.89,    33.87
       99.0,      30.80,    31.37,    31.28,    26.78,    33.76
      100.0,      30.69,    31.25,    31.20,    26.67,    33.64
      101.0,      30.58,    31.14,    31.11,    26.56,    33.53
      102.0,      30.48,    31.03,    31.03,    26.45,    33.42
      103.0,      30.38,    30.91,    30.95,    26.35,    33.31
      104.0,      30.28,    30.80,    30.87,    26.25,    33.20
      105.0,      30.18,    30.70,    30.79,    26.14,    33.08
      106.0,      30.08,    30.59,    30.71,    26.04,    32.97
      107.0,      29.98,    30.48,    30.63,    25.95,    32.87
      108.0,      29.89,    30.38,    30.55,    25.85,    32.76
      109.0,      29.79,    30.28,    30.48,    25.76,    32.65
      110.0,      29.69,    30.17,    30.40,    25.66,    32.54
      111.0,      29.60,    30.07,    30.33,    25.57,    32.43
      112.0,      29.51,    29.97,    30.25,    25.48,    32.33
      113.0,      29.42,    29.87,    30.18,    25.39,    32.22
      114.0,      29.32,    29.78,    30.11,    25.30,    32.11
      115.0,      29.23,    29.68,    30.04,    25.22,    32.01
      116.0,      29.15,    29.58,    29.96,    25.13,    31.90
      117.0,      29.06,    29.49,    29.89,    25.05,    31.80
      118.0,      28.97,    29.39,    29.82,    24.96,    31.69
      119.0,      28.88,    29.30,    29.75,    24.88,    31.59
      120.0,      28.80,    29.21,    29.69,    24.80,    31.49
      121.0,      28.71,    29.12,    29.62,    24.72,    31.39
      122.0,      28.63,    29.03,    29.55,    24.64,    31.28
      123.0,      28.54,    28.94,    29.48,    24.56,    31.18
      124.0,      28.46,    28.85,    29.41,    24.48,    31.08
      125.0,      28.38,    28.77,    29.35,    24.41,    30.98
      126.0,      28.29,    28.68,    29.28,    24.33,    30.88
      127.0,      28.21,    28.59,    29.22,    24.26,    30.78
      128.0,      28.13,    28.51,    29.15,    24.18,    30.68
      129.0,      28.05,    28.43,    29.09,    24.11,    30.58
      130.0,      27.97,    28.34,    29.02,    24.04,    30.48
      131.0,      27.89,    28.26,    28.96,    23.97,    30.38
      132.0,      27.81,    28.18,    28.90,    23.89,    30.29
      133.0,      27.74,    28.10,    28.83,    23.82,    30.19
      134.0,      27.66,    28.02,    28.77,    23.75,    30.09
      135.0,      27.58,    27.94,    28.71,    23.68,    30.00
      136.0,      27.51,    27.86,    28.65,    23.62,    29.90
      137.0,      27.43,    27.78,    28.58,    23.55,    29.80
      138.0,      27.35,    27.70,    28.52,    23.48,    29.71
      139.0,      27.28,    27.63,    28.46,    23.41,    29.61
      140.0,      27.20,    27.55,    28.40,    23.35,    29.52
      141.0,      27.13,    27.48,    28.34,    23.28,    29.43
      142.0,      27.06,    27.40,    28.28,    23.21,    29.33
      143.0,      26.98,    27.33,    28.22,    23.15,    29.24
      144.0,      26.91,    27.25,    28.16,    23.09,    29.15
      145.0,      26.84,    27.18,    28.10,    23.02,    29.05
      146.0,      26.77,    27.11,    28.04,    22.96,    28.96
      147.0,      26.70,    27.04,    27.99,    22.89,    28.87
      148.0,      26.63,    26.96,    27.93,    22.83,    28.78
      149.0,      26.56,    26.89,    27.87,    22.77,    28.69
      150.0,      26.49,    26.82,    27.81,    22.71,    28.60
      151.0,      26.42,    26.75,    27.75,    22.65,    28.51
      152.0,      26.35,    26.68,    27.70,    22.59,    28.42
      153.0,      26.28,    26.62,    27.64,    22.52,    28.33
      154.0,      26.21,    26.55,    27.58,    22.46,    28.24
      155.0,      26.14,    26.48,    27.53,    22.40,    28.15
      156.0,      26.07,    26.41,    27.47,    22.34,    28.07
      157.0,      26.01,    26.35,    27.41,    22.28,    27.98
      158.0,      25.94,    26.28,    27.36,    22.23,    27.89
      159.0,      25.87,    26.21,    27.30,    22.17,    27.80
      160.0,      25.80,    26.15,    27.24,    22.11,    27.72
      161.0,      25.74,    26.08,    27.19,    22.05,    27.63
      162.0,      25.67,    26.02,    27.13,    21.99,    27.55
      163.0,      25.61,    25.95,    27.08,    21.94,    27.46
      164.0,      25.54,    25.89,    27.02,    21.88,    27.38
      165.0,      25.48,    25.83,    26.97,    21.82,    27.29
      166.0,      25.41,    25.76,    26.91,    21.76,    27.21
      167.0,      25.35,    25.70,    26.86,    21.71,    27.12
      168.0,      25.28,    25.64,    26.81,    21.65,    27.04
      169.0,      25.22,    25.58,    26.75,    21.60,    26.96
      170.0,      25.16,    25.52,    26.70,    21.54,    26.87
      171.0,      25.09,    25.45,    26.64,    21.48,    26.79
      172.0,      25.03,    25.39,    26.59,    21.43,    26.71
      173.0,      24.97,    25.33,    26.54,    21.37,    26.63
      174.0,      24.91,    25.27,    26.48,    21.32,    26.55
      175.0,      24.84,    25.21,    26.43,    21.27,    26.46
      176.0,      24.78,    25.15,    26.38,    21.21,    26.38
      177.0,      24.72,    25.10,    26.32,    21.16,    26.30
      178.0,      24.66,    25.04,    26.27,    21.10,    26.22
      179.0,      24.60,    24.98,    26.22,    21.05,    26.14
      180.0,      24.54,    24.92,    26.17,    21.00,    26.06
      181.0,      24.48,    24.86,    26.11,    20.94,    25.98
      182.0,      24.42,    24.81,    26.06,    20.89,    25.91
      183.0,      24.36,    24.75,    26.01,    20.84,    25.83
      184.0,      24.30,    24.69,    25.96,    20.78,    25.75
      185.0,      24.24,    24.63,    25.91,    20.73,    25.67
      186.0,      24.18,    24.58,    25.85,    20.68,    25.59
      187.0,      24.12,    24.52,    25.80,    20.63,    25.52
      188.0,      24.06,    24.47,    25.75,    20.58,    25.44
      189.0,      24.00,    24.41,    25.70,    20.52,    25.36
      190.0,      23.94,    24.36,    25.65,    20.47,    25.29
      191.0,      23.88,    24.30,    25.60,    20.42,    25.21
      192.0,      23.82,    24.25,    25.55,    20.37,    25.13
      193.0,      23.77,    24.19,    25.50,    20.32,    25.06
      194.0,      23.71,    24.14,    25.45,    20.27,    24.98
      195.0,      23.65,    24.08,    25.40,    20.22,    24.91
      196.0,      23.59,    24.03,    25.34,    20.17,    24.84
      197.0,      23.54,    23.98,    25.29,    20.12,    24.76
      198.0,      23.48,    23.92,    25.24,    20.07,    24.69
      199.0,      23.42,    23.87,    25.19,    20.02,    24.61
      200.0,      23.37,    23.82,    25.14,    19.97,    24.54
      201.0,      23.31,    23.77,    25.09,    19.92,    24.47
      202.0,      23.26,    23.71,    25.05,    19.87,    24.40
      203.0,      23.20,    23.66,    25.00,    19.82,    24.32
      204.0,      23.14,    23.61,    24.95,    19.77,    24.25
      205.0,      23.09,    23.56,    24.90,    19.72,    24.18
      206.0,      23.03,    23.51,    24.85,    19.67,    24.11
      207.0,      22.98,    23.46,    24.80,    19.62,    24.04
      208.0,      22.92,    23.40,    24.75,    19.57,    23.97
      209.0,      22.87,    23.35,    24.70,    19.52,    23.89
      210.0,      22.81,    23.30,    24.65,    19.48,    23.82
      211.0,      22.76,    23.25,    24.60,    19.43,    23.75
      212.0,      22.71,    23.20,    24.55,    19.38,    23.68
      213.0,      22.65,    23.15,    24.51,    19.33,    23.61
      214.0,      22.60,    23.10,    24.46,    19.28,    23.55
      215.0,      22.54,    23.05,    24.41,    19.24,    23.48
      216.0,      22.49,    23.00,    24.36,    19.19,    23.41
      217.0,      22.44,    22.95,    24.31,    19.14,    23.34
      218.0,      22.38,    22.90,    24.26,    19.09,    23.27
      219.0,      22.33,    22.86,    24.22,    19.05,    23.20
      220.0,      22.28,    22.81,    24.17,    19.00,    23.14
      221.0,      22.23,    22.76,    24.12,    18.95,    23.07
      222.0,      22.17,    22.71,    24.07,    18.91,    23.00
      223.0,      22.12,    22.66,    24.03,    18.86,    22.93
      224.0,      22.07,    22.61,    23.98,    18.81,    22.87
      225.0,      22.02,    22.57,    23.93,    18.77,    22.80
      226.0,      21.96,    22.52,    23.88,    18.72,    22.74
      227.0,      21.91,    22.47,    23.84,    18.67,    22.67
      228.0,      21.86,    22.42,    23.79,    18.63,    22.60
      229.0,      21.81,    22.38,    23.74,    18.58,    22.54
      230.0,      21.76,    22.33,    23.70,    18.54,    22.47
      231.0,      21.71,    22.28,    23.65,    18.49,    22.41
      232.0,      21.66,    22.24,    23.60,    18.44,    22.34
      233.0,      21.61,    22.19,    23.56,    18.40,    22.28
      234.0,      21.56,    22.14,    23.51,    18.35,    22.22
      235.0,      21.51,    22.10,    23.46,    18.31,    22.15
      236.0,      21.46,    22.05,    23.42,    18.26,    22.09
      237.0,      21.40,    22.00,    23.37,    18.22,    22.03
      238.0,      21.36,    21.96,    23.33,    18.17,    21.96
      239.0,      21.31,    21.91,    23.28,    18.13,    21.90
      240.0,      21.26,    21.87,    23.23,    18.08,    21.84
      241.0,      21.21,    21.82,    23.19,    18.04,    21.77
      242.0,      21.16,    21.78,    23.14,    18.00,    21.71
      243.0,      21.11,    21.73,    23.10,    17.95,    21.65
      244.0,      21.06,    21.69,    23.05,    17.91,    21.59
      245.0,      21.01,    21.64,    23.01,    17.86,    21.53
      246.0,      20.96,    21.60,    22.96,    17.82,    21.47
      247.0,      20.91,    21.55,    22.92,    17.78,    21.41
      248.0,      20.86,    21.51,    22.87,    17.73,    21.34
      249.0,      20.82,    21.46,    22.83,    17.69,    21.28
      250.0,      20.77,    21.42,    22.78,    17.64,    21.22
      251.0,      20.72,    21.37,    22.74,    17.60,    21.16
      252.0,      20.67,    21.33,    22.69,    17.56,    21.10
      253.0,      20.62,    21.29,    22.65,    17.51,    21.04
      254.0,      20.58,    21.24,    22.60,    17.47,    20.98
      255.0,      20.53,    21.20,    22.56,    17.43,    20.93
      256.0,      20.48,    21.15,    22.51,    17.39,    20.87
      257.0,      20.43,    21.11,    22.47,    17.34,    20.81
      258.0,      20.39,    21.07,    22.43,    17.30,    20.75
      259.0,      20.34,    21.02,    22.38,    17.26,    20.69
      260.0,      20.29,    20.98,    22.34,    17.22,    20.63
      261.0,      20.25,    20.94,    22.29,    17.17,    20.57
      262.0,      20.20,    20.90,    22.25,    17.13,    20.52
      263.0,      20.15,    20.85,    22.21,    17.09,    20.46
      264.0,      20.11,    20.81,    22.16,    17.05,    20.40
      265.0,      20.06,    20.77,    22.12,    17.01,    20.35
      266.0,      20.01,    20.73,    22.08,    16.96,    20.29
      267.0,      19.97,    20.68,    22.03,    16.92,    20.23
      268.0,      19.92,    20.64,    21.99,    16.88,    20.18
      269.0,      19.88,    20.60,    21.95,    16.84,    20.12
      270.0,      19.83,    20.56,    21.90,    16.80,    20.06
      271.0,      19.78,    20.52,    21.86,    16.76,    20.01
      272.0,      19.74,    20.47,    21.82,    16.72,    19.95
      273.0,      19.69,    20.43,    21.77,    16.67,    19.90
      274.0,      19.65,    20.39,    21.73,    16.63,    19.84
      275.0,      19.60,    20.35,    21.69,    16.59,    19.79
      276.0,      19.56,    20.31,    21.65,    16.55,    19.73
      277.0,      19.51,    20.27,    21.60,    16.51,    19.68
      278.0,      19.47,    20.23,    21.56,    16.47,    19.62
      279.0,      19.43,    20.18,    21.52,    16.43,    19.57
      280.0,      19.38,    20.14,    21.48,    16.39,    19.51
      281.0,      19.34,    20.10,    21.43,    16.35,    19.46
      282.0,      19.29,    20.06,    21.39,    16.31,    19.41
      283.0,      19.25,    20.02,    21.35,    16.27,    19.35
      284.0,      19.20,    19.98,    21.31,    16.23,    19.30
      285.0,      19.16,    19.94,    21.27,    16.19,    19.25
      286.0,      19.12,    19.90,    21.22,    16.15,    19.19
      287.0,      19.07,    19.86,    21.18,    16.11,    19.14
      288.0,      19.03,    19.82,    21.14,    16.07,    19.09
      289.0,      18.99,    19.78,    21.10,    16.03,    19.04
      290.0,      18.94,    19.74,    21.06,    15.99,    18.98
      291.0,      18.90,    19.70,    21.02,    15.95,    18.93
      292.0,      18.86,    19.66,    20.98,    15.91,    18.88
      293.0,      18.82,    19.62,    20.93,    15.88,    18.83
      294.0,      18.77,    19.58,    20.89,    15.84,    18.78
      295.0,      18.73,    19.54,    20.85,    15.80,    18.73
      296.0,      18.69,    19.50,    20.81,    15.76,    18.68
      297.0,      18.64,    19.46,    20.77,    15.72,    18.62
      298.0,      18.60,    19.42,    20.73,    15.68,    18.57
      299.0,      18.56,    19.39,    20.69,    15.64,    18.52
      300.0,      18.52,    19.35,    20.65,    15.60,    18.47
      301.0,      18.48,    19.31,    20.61,    15.57,    18.42
      302.0,      18.43,    19.27,    20.57,    15.53,    18.37
      303.0,      18.39,    19.23,    20.53,    15.49,    18.32
      304.0,      18.35,    19.19,    20.49,    15.45,    18.27
      305.0,      18.31,    19.15,    20.45,    15.41,    18.22
      306.0,      18.27,    19.11,    20.41,    15.38,    18.18
      307.0,      18.23,    19.08,    20.37,    15.34,    18.13
      308.0,      18.19,    19.04,    20.33,    15.30,    18.08
      309.0,      18.14,    19.00,    20.29,    15.26,    18.03
      310.0,      18.10,    18.96,    20.25,    15.23,    17.98
