Radius (km), Mean (m/s), NE (m/s), SE (m/s), SW (m/s), NW (m/s)
        0.0,       0.00,     0.00,     0.00,     0.00,     0.00
        1.0,       1.36,     1.31,     1.40,     1.41,     1.31
        2.0,       2.53,     2.47,     2.58,     2.60,     2.47
        3.0,       3.64,     3.58,     3.69,     3.71,     3.58
        4.0,       4.71,     4.65,     4.76,     4.78,     4.65
        5.0,       5.76,     5.71,     5.80,     5.81,     5.71
        6.0,       6.78,     6.74,     6.82,     6.82,     6.74
        7.0,       7.79,     7.77,     7.81,     7.81,     7.77
        8.0,       8.78,     8.78,     8.79,     8.79,     8.78
        9.0,       9.76,     9.78,     9.75,     9.75,     9.78
       10.0,      10.73,    10.77,    10.70,    10.69,    10.77
       11.0,      11.69,    11.75,    11.65,    11.63,    11.75
       12.0,      12.64,    12.72,    12.58,    12.55,    12.72
       13.0,      13.59,    13.69,    13.50,    13.47,    13.69
       14.0,      14.52,    14.65,    14.41,    14.38,    14.65
       15.0,      15.45,    15.60,    15.32,    15.28,    15.60
       16.0,      16.37,    16.55,    16.22,    16.17,    16.55
       17.0,      17.29,    17.50,    17.11,    17.05,    17.50
       18.0,      18.20,    18.44,    18.00,    17.93,    18.44
       19.0,      19.11,    19.37,    18.88,    18.81,    19.37
       20.0,      20.01,    20.31,    19.75,    19.67,    20.31
       21.0,      20.91,    21.23,    20.62,    20.54,    21.23
       22.0,      21.80,    22.16,    21.49,    21.39,    22.16
       23.0,      22.69,    23.08,    22.35,    22.25,    23.08
       24.0,      23.57,    23.99,    23.20,    23.10,    23.99
       25.0,      24.45,    24.91,    24.06,    23.94,    24.91
       26.0,      25.33,    25.82,    24.91,    24.78,    25.82
       27.0,      26.20,    26.73,    25.75,    25.62,    26.73
       28.0,      27.08,    27.63,    26.59,    26.45,    27.63
       29.0,      27.95,    28.54,    27.43,    27.28,    28.53
       30.0,      28.83,    29.47,    28.28,    28.11,    29.44
       31.0,      29.75,    30.48,    29.17,    28.96,    30.39
       32.0,      30.75,    31.60,    30.14,    29.87,    31.41
       33.0,      31.87,    32.87,    31.22,    30.86,    32.55
       34.0,      33.12,    34.29,    32.41,    31.97,    33.81
       35.0,      34.48,    35.83,    33.70,    33.19,    35.19
       36.0,      35.90,    37.43,    35.05,    34.48,    36.65
       37.0,      37.32,    38.98,    36.38,    35.80,    38.11
       38.0,      38.64,    40.40,    37.62,    37.06,    39.49
       39.0,      39.80,    41.60,    38.71,    38.20,    40.71
       40.0,      40.72,    42.49,    39.57,    39.13,    41.69
       41.0,      41.36,    43.06,    40.18,    39.81,    42.38
       42.0,      41.69,    43.28,    40.52,    40.20,    42.77
       43.0,      41.74,    43.19,    40.60,    40.32,    42.87
       44.0,      41.55,    42.84,    40.46,    40.19,    42.71
       45.0,      41.17,    42.30,    40.16,    39.86,    42.34
       46.0,      40.66,    41.66,    39.76,    39.39,    41.85
       47.0,      40.10,    40.96,    39.30,    38.85,    41.28
       48.0,      39.52,    40.27,    38.84,    38.28,    40.70
       49.0,      38.97,    39.61,    38.39,    37.73,    40.14
       50.0,      38.44,    38.98,    37.97,    37.20,    39.62
       51.0,      37.95,    38.39,    37.57,    36.72,    39.12
       52.0,      37.48,    37.83,    37.19,    36.26,    38.65
       53.0,      37.03,    37.28,    36.83,    35.81,    38.20
       54.0,      36.60,    36.76,    36.48,    35.39,    37.76
       55.0,      36.18,    36.25,    36.14,    34.98,    37.34
       56.0,      35.77,    35.77,    35.81,    34.58,    36.94
       57.0,      35.38,    35.30,    35.49,    34.19,    36.54
       58.0,      35.00,    34.85,    35.18,    33.82,    36.16
       59.0,      34.64,    34.41,    34.88,    33.46,    35.79
       60.0,      34.28,    33.99,    34.59,    33.11,    35.44
       61.0,      33.94,    33.59,    34.32,    32.77,    35.10
       62.0,      33.61,    33.20,    34.05,    32.45,    34.76
       63.0,      33.30,    32.83,    33.78,    32.13,    34.44
       64.0,      32.99,    32.46,    33.53,    31.83,    34.13
       65.0,      32.69,    32.12,    33.29,    31.53,    33.83
       66.0,      32.40,    31.78,    33.05,    31.24,    33.54
       67.0,      32.12,    31.46,    32.82,    30.97,    33.26
       68.0,      31.85,    31.14,    32.59,    30.70,    32.98
       69.0,      31.59,    30.84,    32.38,    30.44,    32.72
       70.0,      31.34,    30.55,    32.17,    30.18,    32.46
       71.0,      31.10,    30.27,    31.96,    29.94,    32.21
       72.0,      30.86,    30.00,    31.77,    29.70,    31.97
       73.0,      30.63,    29.74,    31.57,    29.47,    31.74
       74.0,      30.41,    29.48,    31.39,    29.25,    31.51
       75.0,      30.19,    29.24,    31.21,    29.03,    31.29
       76.0,      29.98,    29.00,    31.03,    28.82,    31.07
       77.0,      29.78,    28.78,    30.86,    28.61,    30.87
       78.0,      29.58,    28.56,    30.69,    28.41,    30.67
       79.0,      29.39,    28.34,    30.53,    28.22,    30.47
       80.0,      29.21,    28.14,    30.37,    28.03,    30.28
       81.0,      29.03,    27.94,    30.22,    27.85,    30.09
       82.0,      28.85,    27.75,    30.07,    27.67,    29.91
       83.0,      28.68,    27.56,    29.93,    27.50,    29.74
       84.0,      28.52,    27.38,    29.78,    27.33,    29.57
       85.0,      28.36,    27.21,    29.65,    27.16,    29.40
       86.0,      28.20,    27.04,    29.51,    27.00,    29.24
       87.0,      28.05,    26.88,    29.38,    26.84,    29.09
       88.0,      27.90,    26.72,    29.25,    26.69,    28.93
       89.0,      27.76,    26.57,    29.13,    26.54,    28.78
       90.0,      27.62,    26.42,    29.01,    26.40,    28.64
       91.0,      27.48,    26.28,    28.89,    26.26,    28.50
       92.0,      27.35,    26.14,    28.77,    26.12,    28.36
       93.0,      27.22,    26.01,    28.66,    25.99,    28.22
       94.0,      27.09,    25.87,    28.55,    25.85,    28.09
       95.0,      26.97,    25.75,    28.44,    25.72,    27.96
       96.0,      26.85,    25.63,    28.33,    25.60,    27.84
       97.0,      26.73,    25.51,    28.23,    25.48,    27.72
       98.0,      26.62,    25.39,    28.13,    25.36,    27.60
       99.0,      26.51,    25.28,    28.03,    25.24,    27.48
      100.0,      26.40,    25.17,    27.93,    25.12,    27.36
      101.0,      26.29,    25.06,    27.83,    25.01,    27.25
      102.0,      26.19,    24.96,    27.74,    24.90,    27.14
      103.0,      26.08,    24.86,    27.65,    24.79,    27.03
      104.0,      25.98,    24.76,    27.56,    24.69,    26.93
      105.0,      25.89,    24.67,    27.47,    24.58,    26.82
      106.0,      25.79,    24.58,    27.38,    24.48,    26.72
      107.0,      25.70,    24.49,    27.30,    24.38,    26.62
      108.0,      25.61,    24.40,    27.21,    24.28,    26.53
      109.0,      25.52,    24.32,    27.13,    24.18,    26.43
      110.0,      25.43,    24.23,    27.05,    24.09,    26.34
      111.0,      25.34,    24.15,    26.97,    24.00,    26.24
      112.0,      25.26,    24.07,    26.89,    23.90,    26.15
      113.0,      25.17,    24.00,    26.82,    23.81,    26.07
      114.0,      25.09,    23.92,    26.74,    23.73,    25.98
      115.0,      25.01,    23.85,    26.67,    23.64,    25.89
      116.0,      24.93,    23.78,    26.59,    23.55,    25.81
      117.0,      24.85,    23.71,    26.52,    23.47,    25.72
      118.0,      24.78,    23.64,    26.45,    23.39,    25.64
      119.0,      24.70,    23.57,    26.38,    23.30,    25.56
      120.0,      24.63,    23.51,    26.31,    23.22,    25.48
      121.0,      24.56,    23.44,    26.24,    23.14,    25.40
      122.0,      24.49,    23.38,    26.17,    23.06,    25.32
      123.0,      24.41,    23.32,    26.10,    22.99,    25.25
      124.0,      24.35,    23.26,    26.04,    22.91,    25.17
      125.0,      24.28,    23.20,    25.97,    22.83,    25.10
      126.0,      24.21,    23.15,    25.91,    22.76,    25.03
      127.0,      24.14,    23.09,    25.84,    22.69,    24.95
      128.0,      24.08,    23.03,    25.78,    22.61,    24.88
      129.0,      24.01,    22.98,    25.72,    22.54,    24.81
      130.0,      23.95,    22.93,    25.66,    22.47,    24.74
      131.0,      23.89,    22.87,    25.60,    22.40,    24.67
      132.0,      23.82,    22.82,    25.53,    22.33,    24.61
      133.0,      23.76,    22.77,    25.48,    22.26,    24.54
      134.0,      23.70,    22.72,    25.42,    22.20,    24.47
      135.0,      23.64,    22.67,    25.36,    22.13,    24.41
      136.0,      23.58,    22.63,    25.30,    22.06,    24.34
      137.0,      23.52,    22.58,    25.24,    22.00,    24.28
      138.0,      23.46,    22.53,    25.18,    21.93,    24.21
      139.0,      23.41,    22.49,    25.13,    21.87,    24.15
      140.0,      23.35,    22.44,    25.07,    21.80,    24.09
      141.0,      23.29,    22.40,    25.02,    21.74,    24.02
      142.0,      23.24,    22.35,    24.96,    21.68,    23.96
      143.0,      23.18,    22.31,    24.91,    21.61,    23.90
      144.0,      23.13,    22.27,    24.85,    21.55,    23.84
      145.0,      23.07,    22.23,    24.80,    21.49,    23.78
      146.0,      23.02,    22.18,    24.74,    21.43,    23.72
      147.0,      22.97,    22.14,    24.69,    21.37,    23.66
      148.0,      22.91,    22.10,    24.64,    21.31,    23.60
      149.0,      22.86,    22.06,    24.58,    21.25,    23.55
      150.0,      22.81,    22.02,    24.53,    21.19,    23.49
      151.0,      22.76,    21.98,    24.48,    21.13,    23.43
      152.0,      22.71,    21.95,    24.43,    21.08,    23.37
      153.0,      22.66,    21.91,    24.38,    21.02,    23.32
      154.0,      22.60,    21.87,    24.33,    20.96,    23.26
      155.0,      22.55,    21.83,    24.28,    20.90,    23.21
      156.0,      22.50,    21.80,    24.23,    20.85,    23.15
      157.0,      22.46,    21.76,    24.18,    20.79,    23.10
      158.0,      22.41,    21.72,    24.13,    20.73,    23.04
      159.0,      22.36,    21.69,    24.08,    20.68,    22.99
      160.0,      22.31,    21.65,    24.03,    20.62,    22.93
      161.0,      22.26,    21.62,    23.98,    20.57,    22.88
      162.0,      22.21,    21.58,    23.93,    20.52,    22.83
      163.0,      22.17,    21.55,    23.88,    20.46,    22.77
      164.0,      22.12,    21.51,    23.83,    20.41,    22.72
      165.0,      22.07,    21.48,    23.79,    20.35,    22.67
      166.0,      22.02,    21.44,    23.74,    20.30,    22.62
      167.0,      21.98,    21.41,    23.69,    20.25,    22.56
      168.0,      21.93,    21.38,    23.64,    20.19,    22.51
      169.0,      21.89,    21.34,    23.60,    20.14,    22.46
      170.0,      21.84,    21.31,    23.55,    20.09,    22.41
      171.0,      21.79,    21.28,    23.50,    20.04,    22.36
      172.0,      21.75,    21.25,    23.46,    19.99,    22.31
      173.0,      21.70,    21.21,    23.41,    19.94,    22.26
      174.0,      21.66,    21.18,    23.36,    19.88,    22.21
      175.0,      21.61,    21.15,    23.32,    19.83,    22.16
      176.0,      21.57,    21.12,    23.27,    19.78,    22.11
      177.0,      21.53,    21.09,    23.23,    19.73,    22.06
      178.0,      21.48,    21.05,    23.18,    19.68,    22.01
      179.0,      21.44,    21.02,    23.13,    19.63,    21.96
      180.0,      21.39,    20.99,    23.09,    19.58,    21.91
      181.0,      21.35,    20.96,    23.04,    19.53,    21.86
      182.0,      21.31,    20.93,    23.00,    19.48,    21.81
      183.0,      21.26,    20.90,    22.96,    19.43,    21.77
      184.0,      21.22,    20.87,    22.91,    19.38,    21.72
      185.0,      21.18,    20.84,    22.87,    19.34,    21.67
      186.0,      21.13,    20.81,    22.82,    19.29,    21.62
      187.0,      21.09,    20.78,    22.78,    19.24,    21.57
      188.0,      21.05,    20.75,    22.73,    19.19,    21.53
      189.0,      21.01,    20.72,    22.69,    19.14,    21.48
      190.0,      20.97,    20.69,    22.65,    19.09,    21.43
      191.0,      20.92,    20.66,    22.60,    19.05,    21.38
      192.0,      20.88,    20.63,    22.56,    19.00,    21.34
      193.0,      20.84,    20.60,    22.52,    18.95,    21.29
      194.0,      20.80,    20.57,    22.47,    18.90,    21.24
      195.0,      20.76,    20.54,    22.43,    18.86,    21.20
      196.0,      20.72,    20.52,    22.39,    18.81,    21.15
      197.0,      20.67,    20.49,    22.34,    18.76,    21.11
      198.0,      20.63,    20.46,    22.30,    18.72,    21.06
      199.0,      20.59,    20.43,    22.26,    18.67,    21.01
      200.0,      20.55,    20.40,    22.22,    18.62,    20.97
      201.0,      20.51,    20.37,    22.17,    18.58,    20.92
      202.0,      20.47,    20.34,    22.13,    18.53,    20.88
      203.0,      20.43,    20.32,    22.09,    18.49,    20.83
      204.0,      20.39,    20.29,    22.05,    18.44,    20.79
      205.0,      20.35,    20.26,    22.00,    18.39,    20.74
      206.0,      20.31,    20.23,    21.96,    18.35,    20.70
      207.0,      20.27,    20.20,    21.92,    18.30,    20.65
      208.0,      20.23,    20.18,    21.88,    18.26,    20.61
      209.0,      20.19,    20.15,    21.84,    18.21,    20.56
      210.0,      20.15,    20.12,    21.80,    18.17,    20.52
      211.0,      20.11,    20.09,    21.75,    18.12,    20.47
      212.0,      20.07,    20.07,    21.71,    18.08,    20.43
      213.0,      20.03,    20.04,    21.67,    18.03,    20.39
      214.0,      19.99,    20.01,    21.63,    17.99,    20.34
      215.0,      19.95,    19.98,    21.59,    17.95,    20.30
      216.0,      19.92,    19.96,    21.55,    17.90,    20.26
      217.0,      19.88,    19.93,    21.51,    17.86,    20.21
      218.0,      19.84,    19.90,    21.47,    17.81,    20.17
      219.0,      19.80,    19.88,    21.43,    17.77,    20.13
      220.0,      19.76,    19.85,    21.39,    17.73,    20.08
      221.0,      19.72,    19.82,    21.35,    17.68,    20.04
      222.0,      19.68,    19.79,    21.31,    17.64,    20.00
      223.0,      19.65,    19.77,    21.27,    17.60,    19.95
      224.0,      19.61,    19.74,    21.23,    17.55,    19.91
      225.0,      19.57,    19.71,    21.19,    17.51,    19.87
      226.0,      19.53,    19.69,    21.15,    17.47,    19.83
      227.0,      19.49,    19.66,    21.11,    17.43,    19.78
      228.0,      19.46,    19.63,    21.07,    17.38,    19.74
      229.0,      19.42,    19.61,    21.03,    17.34,    19.70
      230.0,      19.38,    19.58,    20.99,    17.30,    19.66
      231.0,      19.34,    19.55,    20.95,    17.26,    19.61
      232.0,      19.31,    19.53,    20.91,    17.21,    19.57
      233.0,      19.27,    19.50,    20.87,    17.17,    19.53
      234.0,      19.23,    19.48,    20.83,    17.13,    19.49
      235.0,      19.19,    19.45,    20.79,    17.09,    19.45
      236.0,      19.16,    19.42,    20.75,    17.05,    19.41
      237.0,      19.12,    19.40,    20.71,    17.00,    19.36
      238.0,      19.08,    19.37,    20.67,    16.96,    19.32
      239.0,      19.05,    19.35,    20.63,    16.92,    19.28
      240.0,      19.01,    19.32,    20.59,    16.88,    19.24
      241.0,      18.97,    19.29,    20.56,    16.84,    19.20
      242.0,      18.94,    19.27,    20.52,    16.80,    19.16
      243.0,      18.90,    19.24,    20.48,    16.76,    19.12
      244.0,      18.86,    19.22,    20.44,    16.72,    19.08
      245.0,      18.83,    19.19,    20.40,    16.68,    19.04
      246.0,      18.79,    19.16,    20.36,    16.63,    19.00
      247.0,      18.75,    19.14,    20.32,    16.59,    18.95
      248.0,      18.72,    19.11,    20.29,    16.55,    18.91
      249.0,      18.68,    19.09,    20.25,    16.51,    18.87
      250.0,      18.64,    19.06,    20.21,    16.47,    18.83
      251.0,      18.61,    19.04,    20.17,    16.43,    18.79
      252.0,      18.57,    19.01,    20.13,    16.39,    18.75
      253.0,      18.54,    18.99,    20.10,    16.35,    18.71
      254.0,      18.50,    18.96,    20.06,    16.31,    18.67
      255.0,      18.47,    18.94,    20.02,    16.27,    18.63
      256.0,      18.43,    18.91,    19.98,    16.23,    18.59
      257.0,      18.39,    18.88,    19.95,    16.19,    18.55
      258.0,      18.36,    18.86,    19.91,    16.15,    18.52
      259.0,      18.32,    18.83,    19.87,    16.12,    18.48
      260.0,      18.29,    18.81,    19.83,    16.08,    18.44
      261.0,      18.25,    18.78,    19.80,    16.04,    18.40
      262.0,      18.22,    18.76,    19.76,    16.00,    18.36
      263.0,      18.18,    18.73,    19.72,    15.96,    18.32
      264.0,      18.15,    18.71,    19.69,    15.92,    18.28
      265.0,      18.11,    18.68,    19.65,    15.88,    18.24
      266.0,      18.08,    18.66,    19.61,    15.84,    18.20
      267.0,      18.04,    18.63,    19.58,    15.80,    18.16
      268.0,      18.01,    18.61,    19.54,    15.77,    18.12
      269.0,      17.98,    18.58,    19.50,    15.73,    18.09
      270.0,      17.94,    18.56,    19.47,    15.69,    18.05
      271.0,      17.91,    18.54,    19.43,    15.65,    18.01
      272.0,      17.87,    18.51,    19.39,    15.61,    17.97
      273.0,      17.84,    18.49,    19.36,    15.58,    17.93
      274.0,      17.80,    18.46,    19.32,    15.54,    17.89
      275.0,      17.77,    18.44,    19.28,    15.50,    17.86
      276.0,      17.74,    18.41,    19.25,    15.46,    17.82
      277.0,      17.70,    18.39,    19.21,    15.42,    17.78
      278.0,      17.67,    18.36,    19.17,    15.39,    17.74
      279.0,      17.63,    18.34,    19.14,    15.35,    17.71
      280.0,      17.60,    18.31,    19.10,    15.31,    17.67
      281.0,      17.57,    18.29,    19.07,    15.28,    17.63
      282.0,      17.53,    18.27,    19.03,    15.24,    17.59
      283.0,      17.50,    18.24,    19.00,    15.20,    17.56
      284.0,      17.46,    18.22,    18.96,    15.16,    17.52
      285.0,      17.43,    18.19,    18.92,    15.13,    17.48
      286.0,      17.40,    18.17,    18.89,    15.09,    17.44
      287.0,      17.36,    18.14,    18.85,    15.05,    17.41
      288.0,      17.33,    18.12,    18.82,    15.02,    17.37
      289.0,      17.30,    18.10,    18.78,    14.98,    17.33
      290.0,      17.27,    18.07,    18.75,    14.94,    17.30
      291.0,      17.23,    18.05,    18.71,    14.91,    17.26
      292.0,      17.20,    18.02,    18.68,    14.87,    17.22
      293.0,      17.17,    18.00,    18.64,    14.84,    17.19
      294.0,      17.13,    17.98,    18.61,    14.80,    17.15
      295.0,      17.10,    17.95,    18.57,    14.76,    17.11
      296.0,      17.07,    17.93,    18.54,    14.73,    17.08
      297.0,      17.04,    17.90,    18.50,    14.69,    17.04
      298.0,      17.00,    17.88,    18.47,    14.66,    17.00
      299.0,      16.97,    17.86,    18.43,    14.62,    16.97
      300.0,      16.94,    17.83,    18.40,    14.59,    16.93
      301.0,      16.91,    17.81,    18.36,    14.55,    16.90
      302.0,      16.87,    17.79,    18.33,    14.51,    16.86
      303.0,      16.84,    17.76,    18.30,    14.48,    16.82
      304.0,      16.81,    17.74,    18.26,    14.44,    16.79
      305.0,      16.78,    17.72,    18.23,    14.41,    16.75
      306.0,      16.74,    17.69,    18.19,    14.37,    16.72
      307.0,      16.71,    17.67,    18.16,    14.34,    16.68
      308.0,      16.68,    17.65,    18.13,    14.30,    16.65
      309.0,      16.65,    17.62,    18.09,    14.27,    16.61
      310.0,      16.62,    17.60,    18.06,    14.23,    16.58
