Radius (km), Mean (m/s), NE (m/s), SE (m/s), SW (m/s), NW (m/s)
        0.0,       0.00,     0.00,     0.00,     0.00,     0.00
        1.0,       1.31,     0.98,     1.59,     1.70,     0.98
        2.0,       2.55,     2.12,     2.93,     3.04,     2.12
        3.0,       3.78,     3.33,     4.18,     4.28,     3.33
        4.0,       5.00,     4.58,     5.39,     5.46,     4.58
        5.0,       6.22,     5.87,     6.56,     6.59,     5.87
        6.0,       7.44,     7.18,     7.70,     7.68,     7.18
        7.0,       8.65,     8.52,     8.82,     8.74,     8.52
        8.0,       9.87,     9.88,     9.92,     9.79,     9.88
        9.0,      11.08,    11.27,    11.00,    10.81,    11.27
       10.0,      12.30,    12.66,    12.07,    11.81,    12.66
       11.0,      13.52,    14.08,    13.13,    12.80,    14.08
       12.0,      14.74,    15.50,    14.17,    13.77,    15.50
       13.0,      15.96,    16.94,    15.21,    14.73,    16.94
       14.0,      17.18,    18.40,    16.23,    15.68,    18.40
       15.0,      18.40,    19.86,    17.25,    16.62,    19.86
       16.0,      19.62,    21.34,    18.26,    17.55,    21.34
       17.0,      20.84,    22.82,    19.26,    18.46,    22.82
       18.0,      22.07,    24.32,    20.25,    19.38,    24.32
       19.0,      23.29,    25.82,    21.24,    20.28,    25.82
       20.0,      24.52,    27.34,    22.22,    21.17,    27.34
       21.0,      25.75,    28.88,    23.20,    22.06,    28.86
       22.0,      27.01,    30.51,    24.19,    22.95,    30.40
       23.0,      28.35,    32.31,    25.22,    23.85,    32.01
       24.0,      29.82,    34.38,    26.34,    24.81,    33.76
       25.0,      31.47,    36.75,    27.59,    25.85,    35.71
       26.0,      33.32,    39.41,    28.98,    26.98,    37.89
       27.0,      35.33,    42.30,    30.50,    28.21,    40.30
       28.0,      37.43,    45.26,    32.10,    29.50,    42.86
       29.0,      39.53,    48.14,    33.70,    30.81,    45.47
       30.0,      41.50,    50.75,    35.20,    32.07,    47.97
       31.0,      43.22,    52.92,    36.53,    33.21,    50.23
       32.0,      44.60,    54.54,    37.59,    34.18,    52.11
       33.0,      45.58,    55.55,    38.33,    34.92,    53.51
       34.0,      46.12,    55.94,    38.74,    35.42,    54.39
       35.0,      46.26,    55.77,    38.84,    35.68,    54.76
       36.0,      46.05,    55.16,    38.65,    35.72,    54.66
       37.0,      45.57,    54.22,    38.26,    35.59,    54.20
       38.0,      44.91,    53.10,    37.72,    35.33,    53.49
       39.0,      44.17,    51.90,    37.11,    35.01,    52.64
       40.0,      43.40,    50.71,    36.48,    34.65,    51.75
       41.0,      42.66,    49.58,    35.88,    34.31,    50.87
       42.0,      41.96,    48.51,    35.31,    33.98,    50.05
       43.0,      41.30,    47.49,    34.77,    33.67,    49.28
       44.0,      40.67,    46.51,    34.26,    33.38,    48.55
       45.0,      40.07,    45.57,    33.76,    33.11,    47.85
       46.0,      39.49,    44.66,    33.29,    32.83,    47.17
       47.0,      38.93,    43.79,    32.83,    32.57,    46.52
       48.0,      38.39,    42.95,    32.39,    32.32,    45.89
       49.0,      37.87,    42.15,    31.97,    32.07,    45.28
       50.0,      37.36,    41.38,    31.56,    31.83,    44.70
       51.0,      36.88,    40.63,    31.16,    31.59,    44.13
       52.0,      36.41,    39.91,    30.78,    31.37,    43.58
       53.0,      35.96,    39.23,    30.41,    31.15,    43.05
       54.0,      35.52,    38.56,    30.06,    30.93,    42.54
       55.0,      35.10,    37.92,    29.72,    30.72,    42.04
       56.0,      34.70,    37.31,    29.39,    30.52,    41.57
       57.0,      34.30,    36.72,    29.07,    30.32,    41.10
       58.0,      33.92,    36.15,    28.76,    30.13,    40.66
       59.0,      33.56,    35.60,    28.46,    29.94,    40.22
       60.0,      33.20,    35.08,    28.18,    29.76,    39.80
       61.0,      32.86,    34.57,    27.90,    29.58,    39.40
       62.0,      32.53,    34.08,    27.63,    29.40,    39.00
       63.0,      32.21,    33.61,    27.37,    29.23,    38.62
       64.0,      31.90,    33.16,    27.12,    29.07,    38.26
       65.0,      31.60,    32.73,    26.88,    28.90,    37.90
       66.0,      31.31,    32.31,    26.65,    28.75,    37.55
       67.0,      31.03,    31.91,    26.42,    28.59,    37.22
       68.0,      30.76,    31.52,    26.21,    28.44,    36.89
       69.0,      30.50,    31.14,    25.99,    28.29,    36.58
       70.0,      30.25,    30.78,    25.79,    28.15,    36.27
       71.0,      30.00,    30.44,    25.59,    28.01,    35.97
       72.0,      29.76,    30.10,    25.40,    27.87,    35.69
       73.0,      29.53,    29.78,    25.22,    27.73,    35.41
       74.0,      29.31,    29.47,    25.04,    27.60,    35.13
       75.0,      29.09,    29.17,    24.86,    27.47,    34.87
       76.0,      28.88,    28.88,    24.69,    27.34,    34.61
       77.0,      28.68,    28.61,    24.53,    27.22,    34.37
       78.0,      28.48,    28.34,    24.37,    27.09,    34.12
       79.0,      28.29,    28.08,    24.22,    26.97,    33.89
       80.0,      28.10,    27.83,    24.07,    26.86,    33.66
       81.0,      27.92,    27.59,    23.93,    26.74,    33.43
       82.0,      27.75,    27.36,    23.79,    26.63,    33.22
       83.0,      27.58,    27.14,    23.65,    26.52,    33.01
       84.0,      27.41,    26.92,    23.52,    26.41,    32.80
       85.0,      27.25,    26.72,    23.39,    26.30,    32.60
       86.0,      27.09,    26.52,    23.27,    26.19,    32.40
       87.0,      26.94,    26.32,    23.14,    26.09,    32.21
       88.0,      26.79,    26.14,    23.03,    25.99,    32.03
       89.0,      26.65,    25.96,    22.91,    25.88,    31.84
       90.0,      26.51,    25.78,    22.80,    25.79,    31.67
       91.0,      26.37,    25.62,    22.69,    25.69,    31.49
       92.0,      26.24,    25.45,    22.59,    25.59,    31.32
       93.0,      26.11,    25.30,    22.48,    25.50,    31.16
       94.0,      25.98,    25.15,    22.38,    25.40,    31.00
       95.0,      25.86,    25.00,    22.29,    25.31,    30.84
       96.0,      25.74,    24.86,    22.19,    25.22,    30.69
       97.0,      25.62,    24.72,    22.10,    25.13,    30.53
       98.0,      25.51,    24.59,    22.01,    25.04,    30.39
       99.0,      25.39,    24.46,    21.92,    24.95,    30.24
      100.0,      25.28,    24.34,    21.83,    24.87,    30.10
      101.0,      25.18,    24.22,    21.75,    24.78,    29.96
      102.0,      25.07,    24.10,    21.67,    24.70,    29.82
      103.0,      24.97,    23.99,    21.59,    24.61,    29.69
      104.0,      24.87,    23.88,    21.51,    24.53,    29.56
      105.0,      24.77,    23.78,    21.43,    24.45,    29.43
      106.0,      24.68,    23.68,    21.36,    24.37,    29.31
      107.0,      24.58,    23.58,    21.28,    24.29,    29.18
      108.0,      24.49,    23.48,    21.21,    24.21,    29.06
      109.0,      24.40,    23.39,    21.14,    24.13,    28.94
      110.0,      24.31,    23.30,    21.07,    24.05,    28.82
      111.0,      24.23,    23.21,    21.01,    23.98,    28.71
      112.0,      24.14,    23.13,    20.94,    23.90,    28.59
      113.0,      24.06,    23.05,    20.87,    23.82,    28.48
      114.0,      23.97,    22.97,    20.81,    23.75,    28.37
      115.0,      23.89,    22.89,    20.75,    23.68,    28.26
      116.0,      23.82,    22.81,    20.69,    23.60,    28.16
      117.0,      23.74,    22.74,    20.63,    23.53,    28.05
      118.0,      23.66,    22.67,    20.57,    23.46,    27.95
      119.0,      23.59,    22.60,    20.51,    23.39,    27.85
      120.0,      23.51,    22.53,    20.45,    23.32,    27.75
      121.0,      23.44,    22.47,    20.40,    23.25,    27.65
      122.0,      23.37,    22.41,    20.34,    23.18,    27.55
      123.0,      23.30,    22.34,    20.29,    23.11,    27.45
      124.0,      23.23,    22.28,    20.23,    23.04,    27.36
      125.0,      23.16,    22.22,    20.18,    22.97,    27.26
      126.0,      23.09,    22.17,    20.13,    22.90,    27.17
      127.0,      23.03,    22.11,    20.08,    22.84,    27.08
      128.0,      22.96,    22.06,    20.03,    22.77,    26.99
      129.0,      22.89,    22.00,    19.98,    22.70,    26.90
      130.0,      22.83,    21.95,    19.93,    22.64,    26.81
      131.0,      22.77,    21.90,    19.88,    22.57,    26.72
      132.0,      22.71,    21.85,    19.83,    22.51,    26.63
      133.0,      22.64,    21.80,    19.78,    22.44,    26.55
      134.0,      22.58,    21.76,    19.74,    22.38,    26.46
      135.0,      22.52,    21.71,    19.69,    22.31,    26.38
      136.0,      22.46,    21.66,    19.64,    22.25,    26.29
      137.0,      22.40,    21.62,    19.60,    22.19,    26.21
      138.0,      22.35,    21.58,    19.56,    22.12,    26.13
      139.0,      22.29,    21.54,    19.51,    22.06,    26.05
      140.0,      22.23,    21.49,    19.47,    22.00,    25.97
      141.0,      22.18,    21.45,    19.42,    21.94,    25.89
      142.0,      22.12,    21.41,    19.38,    21.88,    25.81
      143.0,      22.07,    21.37,    19.34,    21.82,    25.73
      144.0,      22.01,    21.34,    19.30,    21.75,    25.65
      145.0,      21.96,    21.30,    19.26,    21.69,    25.58
      146.0,      21.90,    21.26,    19.21,    21.63,    25.50
      147.0,      21.85,    21.22,    19.17,    21.57,    25.43
      148.0,      21.80,    21.19,    19.13,    21.51,    25.35
      149.0,      21.74,    21.15,    19.09,    21.46,    25.28
      150.0,      21.69,    21.12,    19.05,    21.40,    25.20
      151.0,      21.64,    21.08,    19.01,    21.34,    25.13
      152.0,      21.59,    21.05,    18.98,    21.28,    25.06
      153.0,      21.54,    21.02,    18.94,    21.22,    24.98
      154.0,      21.49,    20.99,    18.90,    21.16,    24.91
      155.0,      21.44,    20.95,    18.86,    21.10,    24.84
      156.0,      21.39,    20.92,    18.82,    21.05,    24.77
      157.0,      21.34,    20.89,    18.78,    20.99,    24.70
      158.0,      21.29,    20.86,    18.75,    20.93,    24.63
      159.0,      21.24,    20.83,    18.71,    20.88,    24.56
      160.0,      21.20,    20.80,    18.67,    20.82,    24.49
      161.0,      21.15,    20.77,    18.64,    20.76,    24.42
      162.0,      21.10,    20.74,    18.60,    20.71,    24.35
      163.0,      21.05,    20.71,    18.56,    20.65,    24.28
      164.0,      21.01,    20.69,    18.53,    20.60,    24.22
      165.0,      20.96,    20.66,    18.49,    20.54,    24.15
      166.0,      20.91,    20.63,    18.46,    20.48,    24.08
      167.0,      20.87,    20.60,    18.42,    20.43,    24.01
      168.0,      20.82,    20.58,    18.39,    20.37,    23.95
      169.0,      20.78,    20.55,    18.35,    20.32,    23.88
      170.0,      20.73,    20.52,    18.32,    20.27,    23.82
      171.0,      20.68,    20.50,    18.28,    20.21,    23.75
      172.0,      20.64,    20.47,    18.25,    20.16,    23.69
      173.0,      20.60,    20.44,    18.21,    20.10,    23.62
      174.0,      20.55,    20.42,    18.18,    20.05,    23.56
      175.0,      20.51,    20.39,    18.14,    20.00,    23.49
      176.0,      20.46,    20.37,    18.11,    19.94,    23.43
      177.0,      20.42,    20.34,    18.08,    19.89,    23.37
      178.0,      20.37,    20.32,    18.04,    19.84,    23.30
      179.0,      20.33,    20.29,    18.01,    19.78,    23.24
      180.0,      20.29,    20.27,    17.98,    19.73,    23.18
      181.0,      20.24,    20.24,    17.94,    19.68,    23.11
      182.0,      20.20,    20.22,    17.91,    19.63,    23.05
      183.0,      20.16,    20.20,    17.88,    19.57,    22.99
      184.0,      20.12,    20.17,    17.84,    19.52,    22.93
      185.0,      20.07,    20.15,    17.81,    19.47,    22.87
      186.0,      20.03,    20.13,    17.78,    19.42,    22.81
      187.0,      19.99,    20.10,    17.75,    19.37,    22.74
      188.0,      19.95,    20.08,    17.71,    19.31,    22.68
      189.0,      19.91,    20.06,    17.68,    19.26,    22.62
      190.0,      19.87,    20.03,    17.65,    19.21,    22.56
      191.0,      19.82,    20.01,    17.62,    19.16,    22.50
      192.0,      19.78,    19.99,    17.59,    19.11,    22.44
      193.0,      19.74,    19.97,    17.56,    19.06,    22.38
      194.0,      19.70,    19.95,    17.52,    19.01,    22.32
      195.0,      19.66,    19.92,    17.49,    18.96,    22.26
      196.0,      19.62,    19.90,    17.46,    18.91,    22.21
      197.0,      19.58,    19.88,    17.43,    18.86,    22.15
      198.0,      19.54,    19.86,    17.40,    18.81,    22.09
      199.0,      19.50,    19.84,    17.37,    18.76,    22.03
      200.0,      19.46,    19.81,    17.34,    18.71,    21.97
      201.0,      19.42,    19.79,    17.30,    18.66,    21.91
      202.0,      19.38,    19.77,    17.27,    18.61,    21.86
      203.0,      19.34,    19.75,    17.24,    18.56,    21.80
      204.0,      19.30,    19.73,    17.21,    18.51,    21.74
      205.0,      19.26,    19.71,    17.18,    18.46,    21.68
      206.0,      19.22,    19.69,    17.15,    18.42,    21.63
      207.0,      19.18,    19.66,    17.12,    18.37,    21.57
      208.0,      19.14,    19.64,    17.09,    18.32,    21.51
      209.0,      19.10,    19.62,    17.06,    18.27,    21.46
      210.0,      19.06,    19.60,    17.03,    18.22,    21.40
      211.0,      19.02,    19.58,    17.00,    18.17,    21.34
      212.0,      18.99,    19.56,    16.97,    18.13,    21.29
      213.0,      18.95,    19.54,    16.94,    18.08,    21.23
      214.0,      18.91,    19.52,    16.91,    18.03,    21.18
      215.0,      18.87,    19.50,    16.88,    17.98,    21.12
      216.0,      18.83,    19.48,    16.85,    17.94,    21.07
      217.0,      18.79,    19.46,    16.82,    17.89,    21.01
      218.0,      18.76,    19.44,    16.79,    17.84,    20.96
      219.0,      18.72,    19.42,    16.76,    17.80,    20.90
      220.0,      18.68,    19.40,    16.73,    17.75,    20.85
      221.0,      18.64,    19.38,    16.70,    17.70,    20.79
      222.0,      18.61,    19.36,    16.67,    17.66,    20.74
      223.0,      18.57,    19.34,    16.64,    17.61,    20.68
      224.0,      18.53,    19.32,    16.61,    17.56,    20.63
      225.0,      18.49,    19.30,    16.58,    17.52,    20.58
      226.0,      18.46,    19.28,    16.55,    17.47,    20.52
      227.0,      18.42,    19.26,    16.53,    17.43,    20.47
      228.0,      18.38,    19.24,    16.50,    17.38,    20.42
      229.0,      18.35,    19.22,    16.47,    17.33,    20.36
      230.0,      18.31,    19.20,    16.44,    17.29,    20.31
      231.0,      18.27,    19.18,    16.41,    17.24,    20.26
      232.0,      18.24,    19.16,    16.38,    17.20,    20.20
      233.0,      18.20,    19.14,    16.35,    17.15,    20.15
      234.0,      18.16,    19.12,    16.32,    17.11,    20.10
      235.0,      18.13,    19.10,    16.30,    17.06,    20.05
      236.0,      18.09,    19.08,    16.27,    17.02,    19.99
      237.0,      18.05,    19.06,    16.24,    16.97,    19.94
      238.0,      18.02,    19.04,    16.21,    16.93,    19.89
      239.0,      17.98,    19.02,    16.18,    16.88,    19.84
      240.0,      17.95,    19.00,    16.15,    16.84,    19.79
      241.0,      17.91,    18.98,    16.12,    16.80,    19.74
      242.0,      17.87,    18.96,    16.10,    16.75,    19.68
      243.0,      17.84,    18.94,    16.07,    16.71,    19.63
      244.0,      17.80,    18.93,    16.04,    16.66,    19.58
      245.0,      17.77,    18.91,    16.01,    16.62,    19.53
      246.0,      17.73,    18.89,    15.98,    16.58,    19.48
      247.0,      17.70,    18.87,    15.96,    16.53,    19.43
      248.0,      17.66,    18.85,    15.93,    16.49,    19.38
      249.0,      17.63,    18.83,    15.90,    16.45,    19.33
      250.0,      17.59,    18.81,    15.87,    16.40,    19.28
      251.0,      17.56,    18.79,    15.84,    16.36,    19.23
      252.0,      17.52,    18.77,    15.82,    16.32,    19.18
      253.0,      17.49,    18.75,    15.79,    16.27,    19.13
      254.0,      17.45,    18.73,    15.76,    16.23,    19.08
      255.0,      17.42,    18.72,    15.73,    16.19,    19.03
      256.0,      17.38,    18.70,    15.71,    16.15,    18.98
      257.0,      17.35,    18.68,    15.68,    16.10,    18.93
      258.0,      17.31,    18.66,    15.65,    16.06,    18.88
      259.0,      17.28,    18.64,    15.63,    16.02,    18.83
      260.0,      17.25,    18.62,    15.60,    15.98,    18.79
      261.0,      17.21,    18.60,    15.57,    15.94,    18.74
      262.0,      17.18,    18.58,    15.54,    15.89,    18.69
      263.0,      17.14,    18.56,    15.52,    15.85,    18.64
      264.0,      17.11,    18.55,    15.49,    15.81,    18.59
      265.0,      17.08,    18.53,    15.46,    15.77,    18.54
      266.0,      17.04,    18.51,    15.44,    15.73,    18.49
      267.0,      17.01,    18.49,    15.41,    15.69,    18.45
      268.0,      16.97,    18.47,    15.38,    15.65,    18.40
      269.0,      16.94,    18.45,    15.35,    15.60,    18.35
      270.0,      16.91,    18.43,    15.33,    15.56,    18.30
      271.0,      16.87,    18.42,    15.30,    15.52,    18.26
      272.0,      16.84,    18.40,    15.27,    15.48,    18.21
      273.0,      16.81,    18.38,    15.25,    15.44,    18.16
      274.0,      16.77,    18.36,    15.22,    15.40,    18.11
      275.0,      16.74,    18.34,    15.19,    15.36,    18.07
      276.0,      16.71,    18.32,    15.17,    15.32,    18.02
      277.0,      16.68,    18.31,    15.14,    15.28,    17.97
      278.0,      16.64,    18.29,    15.12,    15.24,    17.93
      279.0,      16.61,    18.27,    15.09,    15.20,    17.88
      280.0,      16.58,    18.25,    15.06,    15.16,    17.84
      281.0,      16.54,    18.23,    15.04,    15.12,    17.79
      282.0,      16.51,    18.21,    15.01,    15.08,    17.74
      283.0,      16.48,    18.20,    14.98,    15.04,    17.70
      284.0,      16.45,    18.18,    14.96,    15.00,    17.65
      285.0,      16.41,    18.16,    14.93,    14.96,    17.61
      286.0,      16.38,    18.14,    14.91,    14.92,    17.56
      287.0,      16.35,    18.12,    14.88,    14.88,    17.51
      288.0,      16.32,    18.10,    14.85,    14.85,    17.47
      289.0,      16.29,    18.09,    14.83,    14.81,    17.42
      290.0,      16.25,    18.07,    14.80,    14.77,    17.38
      291.0,      16.22,    18.05,    14.78,    14.73,    17.33
      292.0,      16.19,    18.03,    14.75,    14.69,    17.29
      293.0,      16.16,    18.01,    14.73,    14.65,    17.24
      294.0,      16.13,    18.00,    14.70,    14.61,    17.20
      295.0,      16.10,    17.98,    14.67,    14.58,    17.15
      296.0,      16.06,    17.96,    14.65,    14.54,    17.11
      297.0,      16.03,    17.94,    14.62,    14.50,    17.07
      298.0,      16.00,    17.92,    14.60,    14.46,    17.02
      299.0,      15.97,    17.91,    14.57,    14.42,    16.98
      300.0,      15.94,    17.89,    14.55,    14.39,    16.93
      301.0,      15.91,    17.87,    14.52,    14.35,    16.89
      302.0,      15.88,    17.85,    14.50,    14.31,    16.85
      303.0,      15.85,    17.83,    14.47,    14.27,    16.80
      304.0,      15.81,    17.82,    14.45,    14.24,    16.76
      305.0,      15.78,    17.80,    14.42,    14.20,    16.72
      306.0,      15.75,    17.78,    14.40,    14.16,    16.67
      307.0,      15.72,    17.76,    14.37,    14.12,    16.63
      308.0,      15.69,    17.75,    14.35,    14.09,    16.59
      309.0,      15.66,    17.73,    14.32,    14.05,    16.54
      310.0,      15.63,    17.71,    14.30,    14.01,    16.50
