Radius (km), Mean (m/s), NE (m/s), SE (m/s), SW (m/s), NW (m/s)
        0.0,       0.00,     0.00,     0.00,     0.00,     0.00
        1.0,       1.04,     0.74,     1.20,     1.48,     0.74
        2.0,       2.17,     1.73,     2.43,     2.78,     1.73
        3.0,       3.34,     2.84,     3.66,     4.03,     2.84
        4.0,       4.56,     4.04,     4.91,     5.24,     4.04
        5.0,       5.80,     5.31,     6.16,     6.43,     5.31
        6.0,       7.07,     6.64,     7.42,     7.59,     6.64
        7.0,       8.36,     8.02,     8.68,     8.74,     8.02
        8.0,       9.67,     9.44,     9.94,     9.88,     9.44
        9.0,      11.00,    10.90,    11.21,    11.00,    10.90
       10.0,      12.35,    12.40,    12.47,    12.11,    12.40
       11.0,      13.71,    13.94,    13.74,    13.22,    13.94
       12.0,      15.09,    15.51,    15.02,    14.31,    15.51
       13.0,      16.47,    17.10,    16.29,    15.40,    17.10
       14.0,      17.87,    18.73,    17.57,    16.48,    18.73
       15.0,      19.29,    20.38,    18.84,    17.55,    20.38
       16.0,      20.71,    22.05,    20.12,    18.62,    22.05
       17.0,      22.15,    23.75,    21.40,    19.68,    23.75
       18.0,      23.59,    25.48,    22.69,    20.73,    25.48
       19.0,      25.05,    27.22,    23.97,    21.78,    27.22
       20.0,      26.51,    28.98,    25.25,    22.83,    28.98
       21.0,      27.99,    30.77,    26.54,    23.87,    30.77
       22.0,      29.49,    32.64,    27.83,    24.93,    32.58
       23.0,      31.08,    34.66,    29.14,    26.04,    34.47
       24.0,      32.80,    36.93,    30.52,    27.23,    36.51
       25.0,      34.71,    39.54,    32.01,    28.53,    38.78
       26.0,      36.85,    42.49,    33.64,    29.95,    41.33
       27.0,      39.20,    45.74,    35.43,    31.46,    44.16
       28.0,      41.68,    49.16,    37.35,    33.03,    47.19
       29.0,      44.19,    52.55,    39.33,    34.59,    50.30
       30.0,      46.60,    55.73,    41.28,    36.05,    53.33
       31.0,      48.76,    58.49,    43.09,    37.36,    56.11
       32.0,      50.56,    60.67,    44.66,    38.45,    58.46
       33.0,      51.91,    62.16,    45.91,    39.28,    60.28
       34.0,      52.76,    62.94,    46.79,    39.83,    61.48
       35.0,      53.13,    63.05,    47.30,    40.13,    62.06
       36.0,      53.08,    62.58,    47.44,    40.20,    62.09
       37.0,      52.68,    61.68,    47.29,    40.11,    61.66
       38.0,      52.05,    60.50,    46.92,    39.90,    60.90
       39.0,      51.30,    59.19,    46.41,    39.62,    59.96
       40.0,      50.49,    57.86,    45.84,    39.33,    58.95
       41.0,      49.71,    56.57,    45.27,    39.04,    57.95
       42.0,      48.96,    55.36,    44.72,    38.76,    57.01
       43.0,      48.27,    54.21,    44.22,    38.49,    56.14
       44.0,      47.60,    53.11,    43.75,    38.23,    55.32
       45.0,      46.96,    52.05,    43.30,    37.98,    54.53
       46.0,      46.34,    51.02,    42.86,    37.72,    53.77
       47.0,      45.74,    50.03,    42.44,    37.47,    53.03
       48.0,      45.16,    49.08,    42.02,    37.22,    52.32
       49.0,      44.59,    48.15,    41.62,    36.97,    51.63
       50.0,      44.04,    47.26,    41.23,    36.72,    50.96
       51.0,      43.51,    46.40,    40.85,    36.48,    50.32
       52.0,      43.00,    45.57,    40.48,    36.24,    49.69
       53.0,      42.49,    44.77,    40.12,    36.00,    49.09
       54.0,      42.01,    43.99,    39.77,    35.76,    48.50
       55.0,      41.53,    43.24,    39.43,    35.53,    47.94
       56.0,      41.08,    42.52,    39.10,    35.30,    47.39
       57.0,      40.63,    41.82,    38.77,    35.07,    46.86
       58.0,      40.20,    41.14,    38.46,    34.84,    46.34
       59.0,      39.78,    40.49,    38.15,    34.62,    45.85
       60.0,      39.37,    39.86,    37.85,    34.39,    45.36
       61.0,      38.97,    39.25,    37.55,    34.17,    44.89
       62.0,      38.58,    38.67,    37.27,    33.95,    44.44
       63.0,      38.20,    38.10,    36.98,    33.74,    44.00
       64.0,      37.84,    37.55,    36.71,    33.52,    43.57
       65.0,      37.48,    37.02,    36.44,    33.31,    43.15
       66.0,      37.13,    36.50,    36.18,    33.10,    42.75
       67.0,      36.80,    36.01,    35.93,    32.89,    42.36
       68.0,      36.47,    35.53,    35.68,    32.69,    41.98
       69.0,      36.15,    35.07,    35.43,    32.48,    41.61
       70.0,      35.83,    34.62,    35.19,    32.28,    41.25
       71.0,      35.53,    34.18,    34.96,    32.08,    40.90
       72.0,      35.23,    33.77,    34.73,    31.88,    40.56
       73.0,      34.94,    33.36,    34.50,    31.69,    40.23
       74.0,      34.66,    32.97,    34.28,    31.49,    39.91
       75.0,      34.39,    32.59,    34.06,    31.30,    39.59
       76.0,      34.12,    32.22,    33.85,    31.11,    39.29
       77.0,      33.86,    31.87,    33.64,    30.92,    38.99
       78.0,      33.60,    31.53,    33.44,    30.73,    38.70
       79.0,      33.35,    31.20,    33.24,    30.55,    38.42
       80.0,      33.11,    30.87,    33.04,    30.36,    38.14
       81.0,      32.87,    30.56,    32.85,    30.18,    37.88
       82.0,      32.63,    30.26,    32.66,    30.00,    37.61
       83.0,      32.41,    29.97,    32.47,    29.82,    37.36
       84.0,      32.18,    29.69,    32.29,    29.65,    37.11
       85.0,      31.96,    29.42,    32.11,    29.47,    36.86
       86.0,      31.75,    29.15,    31.93,    29.30,    36.63
       87.0,      31.54,    28.90,    31.75,    29.13,    36.39
       88.0,      31.34,    28.65,    31.58,    28.96,    36.16
       89.0,      31.14,    28.41,    31.41,    28.79,    35.94
       90.0,      30.94,    28.18,    31.24,    28.62,    35.72
       91.0,      30.75,    27.95,    31.08,    28.46,    35.51
       92.0,      30.56,    27.73,    30.92,    28.29,    35.30
       93.0,      30.38,    27.52,    30.76,    28.13,    35.10
       94.0,      30.20,    27.32,    30.60,    27.97,    34.90
       95.0,      30.02,    27.12,    30.44,    27.81,    34.70
       96.0,      29.84,    26.92,    30.29,    27.65,    34.51
       97.0,      29.67,    26.74,    30.14,    27.50,    34.32
       98.0,      29.51,    26.56,    29.99,    27.34,    34.14
       99.0,      29.34,    26.38,    29.84,    27.19,    33.95
      100.0,      29.18,    26.21,    29.69,    27.04,    33.78
      101.0,      29.02,    26.04,    29.55,    26.89,    33.60
      102.0,      28.86,    25.88,    29.41,    26.74,    33.43
      103.0,      28.71,    25.72,    29.27,    26.59,    33.26
      104.0,      28.56,    25.57,    29.13,    26.45,    33.09
      105.0,      28.41,    25.43,    28.99,    26.30,    32.93
      106.0,      28.27,    25.28,    28.86,    26.16,    32.77
      107.0,      28.12,    25.14,    28.72,    26.02,    32.61
      108.0,      27.98,    25.01,    28.59,    25.88,    32.46
      109.0,      27.84,    24.88,    28.46,    25.74,    32.31
      110.0,      27.71,    24.75,    28.33,    25.60,    32.15
      111.0,      27.57,    24.62,    28.20,    25.46,    32.01
      112.0,      27.44,    24.50,    28.07,    25.33,    31.86
      113.0,      27.31,    24.39,    27.94,    25.19,    31.72
      114.0,      27.18,    24.27,    27.82,    25.06,    31.57
      115.0,      27.05,    24.16,    27.69,    24.93,    31.43
      116.0,      26.93,    24.05,    27.57,    24.80,    31.30
      117.0,      26.81,    23.95,    27.45,    24.67,    31.16
      118.0,      26.68,    23.84,    27.33,    24.54,    31.03
      119.0,      26.57,    23.74,    27.21,    24.41,    30.89
      120.0,      26.45,    23.65,    27.09,    24.29,    30.76
      121.0,      26.33,    23.55,    26.97,    24.16,    30.63
      122.0,      26.22,    23.46,    26.86,    24.04,    30.50
      123.0,      26.10,    23.37,    26.74,    23.92,    30.38
      124.0,      25.99,    23.28,    26.63,    23.80,    30.25
      125.0,      25.88,    23.19,    26.51,    23.68,    30.13
      126.0,      25.77,    23.11,    26.40,    23.56,    30.01
      127.0,      25.66,    23.03,    26.29,    23.44,    29.89
      128.0,      25.55,    22.95,    26.18,    23.33,    29.77
      129.0,      25.45,    22.87,    26.07,    23.21,    29.65
      130.0,      25.34,    22.79,    25.96,    23.10,    29.53
      131.0,      25.24,    22.72,    25.85,    22.98,    29.42
      132.0,      25.14,    22.64,    25.74,    22.87,    29.30
      133.0,      25.04,    22.57,    25.63,    22.76,    29.19
      134.0,      24.94,    22.50,    25.53,    22.65,    29.08
      135.0,      24.84,    22.43,    25.42,    22.54,    28.96
      136.0,      24.74,    22.36,    25.32,    22.43,    28.85
      137.0,      24.65,    22.30,    25.21,    22.32,    28.74
      138.0,      24.55,    22.23,    25.11,    22.22,    28.64
      139.0,      24.45,    22.17,    25.01,    22.11,    28.53
      140.0,      24.36,    22.11,    24.90,    22.01,    28.42
      141.0,      24.27,    22.05,    24.80,    21.90,    28.32
      142.0,      24.18,    21.99,    24.70,    21.80,    28.21
      143.0,      24.08,    21.93,    24.60,    21.70,    28.11
      144.0,      23.99,    21.87,    24.50,    21.60,    28.00
      145.0,      23.91,    21.82,    24.40,    21.50,    27.90
      146.0,      23.82,    21.76,    24.30,    21.40,    27.80
      147.0,      23.73,    21.71,    24.21,    21.30,    27.70
      148.0,      23.64,    21.66,    24.11,    21.21,    27.60
      149.0,      23.56,    21.60,    24.01,    21.11,    27.50
      150.0,      23.47,    21.55,    23.92,    21.02,    27.40
      151.0,      23.39,    21.50,    23.82,    20.92,    27.30
      152.0,      23.30,    21.45,    23.72,    20.83,    27.20
      153.0,      23.22,    21.40,    23.63,    20.73,    27.11
      154.0,      23.14,    21.35,    23.53,    20.64,    27.01
      155.0,      23.05,    21.31,    23.44,    20.55,    26.92
      156.0,      22.97,    21.26,    23.35,    20.46,    26.82
      157.0,      22.89,    21.21,    23.25,    20.37,    26.73
      158.0,      22.81,    21.17,    23.16,    20.28,    26.63
      159.0,      22.73,    21.12,    23.07,    20.20,    26.54
      160.0,      22.65,    21.08,    22.98,    20.11,    26.45
      161.0,      22.58,    21.04,    22.89,    20.02,    26.35
      162.0,      22.50,    20.99,    22.80,    19.94,    26.26
      163.0,      22.42,    20.95,    22.71,    19.85,    26.17
      164.0,      22.34,    20.91,    22.62,    19.77,    26.08
      165.0,      22.27,    20.87,    22.53,    19.68,    25.99
      166.0,      22.19,    20.83,    22.44,    19.60,    25.90
      167.0,      22.12,    20.79,    22.35,    19.52,    25.81
      168.0,      22.04,    20.75,    22.26,    19.44,    25.72
      169.0,      21.97,    20.71,    22.18,    19.36,    25.63
      170.0,      21.90,    20.67,    22.09,    19.28,    25.55
      171.0,      21.82,    20.63,    22.00,    19.20,    25.46
      172.0,      21.75,    20.59,    21.92,    19.12,    25.37
      173.0,      21.68,    20.56,    21.83,    19.04,    25.29
      174.0,      21.61,    20.52,    21.75,    18.97,    25.20
      175.0,      21.54,    20.48,    21.66,    18.89,    25.12
      176.0,      21.47,    20.45,    21.58,    18.82,    25.03
      177.0,      21.40,    20.41,    21.49,    18.74,    24.95
      178.0,      21.33,    20.37,    21.41,    18.67,    24.86
      179.0,      21.26,    20.34,    21.32,    18.59,    24.78
      180.0,      21.19,    20.30,    21.24,    18.52,    24.69
      181.0,      21.12,    20.27,    21.16,    18.45,    24.61
      182.0,      21.05,    20.23,    21.08,    18.38,    24.53
      183.0,      20.99,    20.20,    20.99,    18.31,    24.44
      184.0,      20.92,    20.17,    20.91,    18.23,    24.36
      185.0,      20.85,    20.13,    20.83,    18.16,    24.28
      186.0,      20.79,    20.10,    20.75,    18.10,    24.20
      187.0,      20.72,    20.07,    20.67,    18.03,    24.12
      188.0,      20.65,    20.03,    20.59,    17.96,    24.04
      189.0,      20.59,    20.00,    20.51,    17.89,    23.96
      190.0,      20.53,    19.97,    20.43,    17.82,    23.88
      191.0,      20.46,    19.94,    20.35,    17.76,    23.80
      192.0,      20.40,    19.90,    20.27,    17.69,    23.72
      193.0,      20.33,    19.87,    20.19,    17.63,    23.64
      194.0,      20.27,    19.84,    20.12,    17.56,    23.56
      195.0,      20.21,    19.81,    20.04,    17.50,    23.48
      196.0,      20.14,    19.78,    19.96,    17.43,    23.40
      197.0,      20.08,    19.75,    19.88,    17.37,    23.33
      198.0,      20.02,    19.72,    19.81,    17.31,    23.25
      199.0,      19.96,    19.69,    19.73,    17.25,    23.17
      200.0,      19.90,    19.66,    19.65,    17.19,    23.10
      201.0,      19.84,    19.63,    19.58,    17.13,    23.02
      202.0,      19.78,    19.60,    19.50,    17.06,    22.94
      203.0,      19.72,    19.57,    19.43,    17.00,    22.87
      204.0,      19.66,    19.54,    19.35,    16.95,    22.79
      205.0,      19.60,    19.51,    19.28,    16.89,    22.72
      206.0,      19.54,    19.48,    19.20,    16.83,    22.64
      207.0,      19.48,    19.45,    19.13,    16.77,    22.57
      208.0,      19.42,    19.42,    19.05,    16.71,    22.49
      209.0,      19.36,    19.39,    18.98,    16.66,    22.42
      210.0,      19.30,    19.36,    18.91,    16.60,    22.34
      211.0,      19.24,    19.33,    18.83,    16.54,    22.27
      212.0,      19.19,    19.30,    18.76,    16.49,    22.20
      213.0,      19.13,    19.28,    18.69,    16.43,    22.12
      214.0,      19.07,    19.25,    18.62,    16.38,    22.05
      215.0,      19.02,    19.22,    18.54,    16.32,    21.98
      216.0,      18.96,    19.19,    18.47,    16.27,    21.91
      217.0,      18.90,    19.16,    18.40,    16.22,    21.83
      218.0,      18.85,    19.14,    18.33,    16.16,    21.76
      219.0,      18.79,    19.11,    18.26,    16.11,    21.69
      220.0,      18.74,    19.08,    18.19,    16.06,    21.62
      221.0,      18.68,    19.05,    18.12,    16.01,    21.55
      222.0,      18.63,    19.03,    18.05,    15.96,    21.48
      223.0,      18.57,    19.00,    17.98,    15.91,    21.41
      224.0,      18.52,    18.97,    17.91,    15.86,    21.34
      225.0,      18.46,    18.94,    17.84,    15.81,    21.27
      226.0,      18.41,    18.92,    17.77,    15.76,    21.20
      227.0,      18.36,    18.89,    17.71,    15.71,    21.13
      228.0,      18.30,    18.86,    17.64,    15.66,    21.06
      229.0,      18.25,    18.84,    17.57,    15.61,    20.99
      230.0,      18.20,    18.81,    17.50,    15.56,    20.92
      231.0,      18.15,    18.78,    17.43,    15.51,    20.85
      232.0,      18.09,    18.76,    17.37,    15.47,    20.78
      233.0,      18.04,    18.73,    17.30,    15.42,    20.71
      234.0,      17.99,    18.70,    17.23,    15.37,    20.65
      235.0,      17.94,    18.68,    17.17,    15.33,    20.58
      236.0,      17.89,    18.65,    17.10,    15.28,    20.51
      237.0,      17.83,    18.62,    17.04,    15.24,    20.44
      238.0,      17.78,    18.60,    16.97,    15.19,    20.38
      239.0,      17.73,    18.57,    16.91,    15.15,    20.31
      240.0,      17.68,    18.54,    16.84,    15.10,    20.24
      241.0,      17.63,    18.52,    16.78,    15.06,    20.18
      242.0,      17.58,    18.49,    16.71,    15.01,    20.11
      243.0,      17.53,    18.47,    16.65,    14.97,    20.05
      244.0,      17.48,    18.44,    16.58,    14.93,    19.98
      245.0,      17.43,    18.42,    16.52,    14.88,    19.91
      246.0,      17.38,    18.39,    16.46,    14.84,    19.85
      247.0,      17.34,    18.36,    16.39,    14.80,    19.78
      248.0,      17.29,    18.34,    16.33,    14.76,    19.72
      249.0,      17.24,    18.31,    16.27,    14.72,    19.66
      250.0,      17.19,    18.29,    16.20,    14.68,    19.59
      251.0,      17.14,    18.26,    16.14,    14.64,    19.53
      252.0,      17.09,    18.24,    16.08,    14.60,    19.46
      253.0,      17.05,    18.21,    16.02,    14.56,    19.40
      254.0,      17.00,    18.19,    15.96,    14.52,    19.34
      255.0,      16.95,    18.16,    15.90,    14.48,    19.27
      256.0,      16.90,    18.14,    15.83,    14.44,    19.21
      257.0,      16.86,    18.11,    15.77,    14.40,    19.15
      258.0,      16.81,    18.09,    15.71,    14.36,    19.08
      259.0,      16.76,    18.06,    15.65,    14.32,    19.02
      260.0,      16.72,    18.04,    15.59,    14.28,    18.96
      261.0,      16.67,    18.01,    15.53,    14.24,    18.90
      262.0,      16.63,    17.99,    15.47,    14.21,    18.84
      263.0,      16.58,    17.96,    15.41,    14.17,    18.77
      264.0,      16.53,    17.94,    15.35,    14.13,    18.71
      265.0,      16.49,    17.91,    15.29,    14.10,    18.65
      266.0,      16.44,    17.89,    15.24,    14.06,    18.59
      267.0,      16.40,    17.86,    15.18,    14.02,    18.53
      268.0,      16.35,    17.84,    15.12,    13.99,    18.47
      269.0,      16.31,    17.81,    15.06,    13.95,    18.41
      270.0,      16.26,    17.79,    15.00,    13.92,    18.35
      271.0,      16.22,    17.77,    14.95,    13.88,    18.29
      272.0,      16.18,    17.74,    14.89,    13.85,    18.23
      273.0,      16.13,    17.72,    14.83,    13.81,    18.17
      274.0,      16.09,    17.69,    14.77,    13.78,    18.11
      275.0,      16.05,    17.67,    14.72,    13.74,    18.05
      276.0,      16.00,    17.64,    14.66,    13.71,    17.99
      277.0,      15.96,    17.62,    14.60,    13.68,    17.93
      278.0,      15.92,    17.60,    14.55,    13.64,    17.88
      279.0,      15.87,    17.57,    14.49,    13.61,    17.82
      280.0,      15.83,    17.55,    14.44,    13.58,    17.76
      281.0,      15.79,    17.52,    14.38,    13.54,    17.70
      282.0,      15.75,    17.50,    14.33,    13.51,    17.64
      283.0,      15.70,    17.48,    14.27,    13.48,    17.59
      284.0,      15.66,    17.45,    14.22,    13.45,    17.53
      285.0,      15.62,    17.43,    14.16,    13.42,    17.47
      286.0,      15.58,    17.40,    14.11,    13.38,    17.41
      287.0,      15.54,    17.38,    14.05,    13.35,    17.36
      288.0,      15.49,    17.36,    14.00,    13.32,    17.30
      289.0,      15.45,    17.33,    13.95,    13.29,    17.24
      290.0,      15.41,    17.31,    13.89,    13.26,    17.19
      291.0,      15.37,    17.29,    13.84,    13.23,    17.13
      292.0,      15.33,    17.26,    13.79,    13.20,    17.08
      293.0,      15.29,    17.24,    13.73,    13.17,    17.02
      294.0,      15.25,    17.21,    13.68,    13.14,    16.96
      295.0,      15.21,    17.19,    13.63,    13.11,    16.91
      296.0,      15.17,    17.17,    13.58,    13.08,    16.85
      297.0,      15.13,    17.14,    13.52,    13.05,    16.80
      298.0,      15.09,    17.12,    13.47,    13.02,    16.74
      299.0,      15.05,    17.10,    13.42,    12.99,    16.69
      300.0,      15.01,    17.07,    13.37,    12.96,    16.63
      301.0,      14.97,    17.05,    13.32,    12.94,    16.58
      302.0,      14.93,    17.03,    13.27,    12.91,    16.53
      303.0,      14.89,    17.00,    13.21,    12.88,    16.47
      304.0,      14.85,    16.98,    13.16,    12.85,    16.42
      305.0,      14.82,    16.96,    13.11,    12.82,    16.37
      306.0,      14.78,    16.94,    13.06,    12.80,    16.31
      307.0,      14.74,    16.91,    13.01,    12.77,    16.26
      308.0,      14.70,    16.89,    12.96,    12.74,    16.21
      309.0,      14.66,    16.87,    12.91,    12.71,    16.15
      310.0,      14.62,    16.84,    12.86,    12.69,    16.10
