Radius (km), Mean (m/s), NE (m/s), SE (m/s), SW (m/s), NW (m/s)
        0.0,       0.00,     0.00,     0.00,     0.00,     0.00
        1.0,       1.26,     1.07,     1.34,     1.58,     1.07
        2.0,       2.54,     2.27,     2.65,     2.96,     2.27
        3.0,       3.82,     3.52,     3.95,     4.27,     3.52
        4.0,       5.10,     4.82,     5.25,     5.53,     4.82
        5.0,       6.40,     6.14,     6.54,     6.77,     6.14
        6.0,       7.69,     7.48,     7.83,     7.98,     7.48
        7.0,       8.99,     8.85,     9.11,     9.18,     8.85
        8.0,      10.30,    10.23,    10.39,    10.35,    10.23
        9.0,      11.61,    11.62,    11.67,    11.52,    11.62
       10.0,      12.92,    13.03,    12.94,    12.67,    13.03
       11.0,      14.23,    14.45,    14.22,    13.81,    14.45
       12.0,      15.55,    15.88,    15.49,    14.94,    15.88
       13.0,      16.87,    17.33,    16.76,    16.06,    17.33
       14.0,      18.19,    18.78,    18.03,    17.17,    18.78
       15.0,      19.51,    20.24,    19.29,    18.27,    20.24
       16.0,      20.84,    21.71,    20.56,    19.37,    21.71
       17.0,      22.17,    23.19,    21.83,    20.46,    23.19
       18.0,      23.50,    24.67,    23.09,    21.55,    24.67
       19.0,      24.83,    26.17,    24.35,    22.63,    26.17
       20.0,      26.16,    27.67,    25.61,    23.70,    27.67
       21.0,      27.50,    29.17,    26.89,    24.77,    29.17
       22.0,      28.86,    30.72,    28.20,    25.84,    30.69
       23.0,      30.28,    32.35,    29.60,    26.91,    32.27
       24.0,      31.81,    34.15,    31.12,    28.03,    33.95
       25.0,      33.50,    36.16,    32.80,    29.23,    35.79
       26.0,      35.34,    38.41,    34.63,    30.51,    37.82
       27.0,      37.34,    40.87,    36.57,    31.90,    40.04
       28.0,      39.44,    43.45,    38.55,    33.36,    42.39
       29.0,      41.54,    46.03,    40.48,    34.85,    44.78
       30.0,      43.54,    48.47,    42.28,    36.32,    47.11
       31.0,      45.35,    50.62,    43.85,    37.68,    49.25
       32.0,      46.87,    52.38,    45.14,    38.88,    51.07
       33.0,      48.03,    53.65,    46.09,    39.87,    52.51
       34.0,      48.81,    54.42,    46.72,    40.60,    53.50
       35.0,      49.22,    54.69,    47.04,    41.08,    54.05
       36.0,      49.30,    54.53,    47.12,    41.32,    54.21
       37.0,      49.11,    54.05,    47.00,    41.37,    54.04
       38.0,      48.75,    53.35,    46.77,    41.26,    53.64
       39.0,      48.29,    52.54,    46.48,    41.06,    53.10
       40.0,      47.79,    51.69,    46.17,    40.82,    52.50
       41.0,      47.30,    50.86,    45.87,    40.56,    51.90
       42.0,      46.83,    50.08,    45.58,    40.32,    51.34
       43.0,      46.39,    49.33,    45.31,    40.10,    50.80
       44.0,      45.96,    48.61,    45.03,    39.89,    50.29
       45.0,      45.54,    47.91,    44.76,    39.68,    49.79
       46.0,      45.13,    47.23,    44.50,    39.47,    49.31
       47.0,      44.72,    46.57,    44.23,    39.27,    48.83
       48.0,      44.33,    45.92,    43.97,    39.07,    48.36
       49.0,      43.94,    45.29,    43.71,    38.87,    47.90
       50.0,      43.56,    44.68,    43.45,    38.67,    47.44
       51.0,      43.19,    44.08,    43.20,    38.47,    47.00
       52.0,      42.82,    43.50,    42.95,    38.27,    46.56
       53.0,      42.46,    42.93,    42.70,    38.08,    46.13
       54.0,      42.11,    42.38,    42.45,    37.88,    45.71
       55.0,      41.76,    41.84,    42.21,    37.69,    45.30
       56.0,      41.42,    41.32,    41.97,    37.50,    44.89
       57.0,      41.08,    40.81,    41.73,    37.31,    44.49
       58.0,      40.75,    40.31,    41.49,    37.12,    44.10
       59.0,      40.43,    39.82,    41.26,    36.93,    43.72
       60.0,      40.11,    39.35,    41.02,    36.74,    43.34
       61.0,      39.80,    38.89,    40.79,    36.56,    42.97
       62.0,      39.50,    38.44,    40.57,    36.37,    42.60
       63.0,      39.19,    38.00,    40.34,    36.19,    42.25
       64.0,      38.90,    37.57,    40.12,    36.01,    41.89
       65.0,      38.61,    37.15,    39.90,    35.83,    41.55
       66.0,      38.32,    36.75,    39.68,    35.65,    41.21
       67.0,      38.04,    36.35,    39.46,    35.47,    40.88
       68.0,      37.77,    35.97,    39.25,    35.30,    40.55
       69.0,      37.49,    35.59,    39.04,    35.12,    40.23
       70.0,      37.23,    35.22,    38.83,    34.95,    39.91
       71.0,      36.96,    34.87,    38.62,    34.77,    39.60
       72.0,      36.71,    34.52,    38.42,    34.60,    39.29
       73.0,      36.45,    34.18,    38.21,    34.43,    38.99
       74.0,      36.20,    33.84,    38.01,    34.26,    38.70
       75.0,      35.96,    33.52,    37.81,    34.09,    38.40
       76.0,      35.72,    33.20,    37.61,    33.92,    38.12
       77.0,      35.48,    32.90,    37.42,    33.76,    37.84
       78.0,      35.24,    32.59,    37.22,    33.59,    37.56
       79.0,      35.01,    32.30,    37.03,    33.43,    37.29
       80.0,      34.79,    32.01,    36.84,    33.27,    37.02
       81.0,      34.56,    31.74,    36.66,    33.10,    36.76
       82.0,      34.34,    31.46,    36.47,    32.94,    36.50
       83.0,      34.13,    31.20,    36.28,    32.78,    36.25
       84.0,      33.92,    30.94,    36.10,    32.62,    36.00
       85.0,      33.71,    30.68,    35.92,    32.47,    35.75
       86.0,      33.50,    30.44,    35.74,    32.31,    35.51
       87.0,      33.30,    30.19,    35.57,    32.15,    35.27
       88.0,      33.10,    29.96,    35.39,    32.00,    35.04
       89.0,      32.90,    29.73,    35.22,    31.85,    34.81
       90.0,      32.70,    29.50,    35.04,    31.69,    34.58
       91.0,      32.51,    29.28,    34.87,    31.54,    34.36
       92.0,      32.32,    29.07,    34.71,    31.39,    34.14
       93.0,      32.14,    28.86,    34.54,    31.24,    33.92
       94.0,      31.96,    28.65,    34.37,    31.09,    33.71
       95.0,      31.78,    28.45,    34.21,    30.94,    33.50
       96.0,      31.60,    28.26,    34.05,    30.80,    33.29
       97.0,      31.42,    28.07,    33.89,    30.65,    33.08
       98.0,      31.25,    27.88,    33.73,    30.51,    32.88
       99.0,      31.08,    27.70,    33.57,    30.36,    32.69
      100.0,      30.91,    27.52,    33.41,    30.22,    32.49
      101.0,      30.75,    27.35,    33.26,    30.08,    32.30
      102.0,      30.58,    27.18,    33.11,    29.93,    32.11
      103.0,      30.42,    27.01,    32.96,    29.79,    31.93
      104.0,      30.26,    26.85,    32.81,    29.65,    31.74
      105.0,      30.11,    26.69,    32.66,    29.52,    31.56
      106.0,      29.95,    26.53,    32.51,    29.38,    31.38
      107.0,      29.80,    26.38,    32.36,    29.24,    31.21
      108.0,      29.65,    26.23,    32.22,    29.10,    31.04
      109.0,      29.50,    26.08,    32.08,    28.97,    30.86
      110.0,      29.35,    25.94,    31.94,    28.84,    30.70
      111.0,      29.21,    25.80,    31.79,    28.70,    30.53
      112.0,      29.06,    25.66,    31.66,    28.57,    30.37
      113.0,      28.92,    25.53,    31.52,    28.44,    30.21
      114.0,      28.78,    25.40,    31.38,    28.31,    30.05
      115.0,      28.65,    25.27,    31.25,    28.18,    29.89
      116.0,      28.51,    25.14,    31.11,    28.05,    29.74
      117.0,      28.38,    25.02,    30.98,    27.92,    29.58
      118.0,      28.24,    24.90,    30.85,    27.79,    29.43
      119.0,      28.11,    24.78,    30.72,    27.66,    29.28
      120.0,      27.98,    24.66,    30.59,    27.54,    29.14
      121.0,      27.85,    24.55,    30.46,    27.41,    28.99
      122.0,      27.73,    24.44,    30.34,    27.29,    28.85
      123.0,      27.60,    24.33,    30.21,    27.16,    28.71
      124.0,      27.48,    24.22,    30.09,    27.04,    28.57
      125.0,      27.36,    24.12,    29.96,    26.92,    28.43
      126.0,      27.24,    24.02,    29.84,    26.80,    28.30
      127.0,      27.12,    23.91,    29.72,    26.67,    28.16
      128.0,      27.00,    23.82,    29.60,    26.55,    28.03
      129.0,      26.88,    23.72,    29.48,    26.44,    27.90
      130.0,      26.77,    23.62,    29.37,    26.32,    27.77
      131.0,      26.66,    23.53,    29.25,    26.20,    27.64
      132.0,      26.54,    23.44,    29.14,    26.08,    27.52
      133.0,      26.43,    23.35,    29.02,    25.96,    27.39
      134.0,      26.32,    23.26,    28.91,    25.85,    27.27
      135.0,      26.21,    23.17,    28.80,    25.73,    27.15
      136.0,      26.11,    23.09,    28.69,    25.62,    27.03
      137.0,      26.00,    23.00,    28.58,    25.51,    26.91
      138.0,      25.89,    22.92,    28.47,    25.39,    26.79
      139.0,      25.79,    22.84,    28.36,    25.28,    26.68
      140.0,      25.69,    22.76,    28.25,    25.17,    26.56
      141.0,      25.58,    22.68,    28.15,    25.06,    26.45
      142.0,      25.48,    22.60,    28.04,    24.95,    26.34
      143.0,      25.38,    22.53,    27.94,    24.84,    26.23
      144.0,      25.28,    22.45,    27.83,    24.73,    26.12
      145.0,      25.19,    22.38,    27.73,    24.62,    26.01
      146.0,      25.09,    22.31,    27.63,    24.51,    25.90
      147.0,      24.99,    22.24,    27.53,    24.40,    25.80
      148.0,      24.90,    22.17,    27.43,    24.30,    25.69
      149.0,      24.80,    22.10,    27.33,    24.19,    25.59
      150.0,      24.71,    22.03,    27.23,    24.09,    25.49
      151.0,      24.62,    21.97,    27.14,    23.98,    25.39
      152.0,      24.53,    21.90,    27.04,    23.88,    25.29
      153.0,      24.44,    21.84,    26.95,    23.78,    25.19
      154.0,      24.35,    21.77,    26.85,    23.67,    25.09
      155.0,      24.26,    21.71,    26.76,    23.57,    24.99
      156.0,      24.17,    21.65,    26.67,    23.47,    24.89
      157.0,      24.08,    21.59,    26.58,    23.37,    24.80
      158.0,      24.00,    21.53,    26.48,    23.27,    24.70
      159.0,      23.91,    21.47,    26.39,    23.17,    24.61
      160.0,      23.83,    21.41,    26.30,    23.07,    24.52
      161.0,      23.74,    21.35,    26.22,    22.97,    24.43
      162.0,      23.66,    21.30,    26.13,    22.87,    24.33
      163.0,      23.57,    21.24,    26.04,    22.77,    24.24
      164.0,      23.49,    21.18,    25.96,    22.68,    24.16
      165.0,      23.41,    21.13,    25.87,    22.58,    24.07
      166.0,      23.33,    21.08,    25.78,    22.48,    23.98
      167.0,      23.25,    21.02,    25.70,    22.39,    23.89
      168.0,      23.17,    20.97,    25.62,    22.29,    23.81
      169.0,      23.09,    20.92,    25.54,    22.20,    23.72
      170.0,      23.02,    20.87,    25.45,    22.11,    23.64
      171.0,      22.94,    20.82,    25.37,    22.01,    23.55
      172.0,      22.86,    20.77,    25.29,    21.92,    23.47
      173.0,      22.79,    20.72,    25.21,    21.83,    23.39
      174.0,      22.71,    20.67,    25.13,    21.74,    23.31
      175.0,      22.64,    20.62,    25.05,    21.65,    23.22
      176.0,      22.56,    20.57,    24.98,    21.56,    23.14
      177.0,      22.49,    20.52,    24.90,    21.47,    23.06
      178.0,      22.42,    20.48,    24.82,    21.38,    22.99
      179.0,      22.34,    20.43,    24.75,    21.29,    22.91
      180.0,      22.27,    20.39,    24.67,    21.20,    22.83
      181.0,      22.20,    20.34,    24.60,    21.11,    22.75
      182.0,      22.13,    20.30,    24.52,    21.02,    22.68
      183.0,      22.06,    20.25,    24.45,    20.94,    22.60
      184.0,      21.99,    20.21,    24.38,    20.85,    22.52
      185.0,      21.92,    20.16,    24.31,    20.76,    22.45
      186.0,      21.85,    20.12,    24.23,    20.68,    22.38
      187.0,      21.78,    20.08,    24.16,    20.59,    22.30
      188.0,      21.72,    20.04,    24.09,    20.51,    22.23
      189.0,      21.65,    19.99,    24.02,    20.42,    22.16
      190.0,      21.58,    19.95,    23.95,    20.34,    22.08
      191.0,      21.52,    19.91,    23.89,    20.26,    22.01
      192.0,      21.45,    19.87,    23.82,    20.17,    21.94
      193.0,      21.39,    19.83,    23.75,    20.09,    21.87
      194.0,      21.32,    19.79,    23.68,    20.01,    21.80
      195.0,      21.26,    19.75,    23.62,    19.93,    21.73
      196.0,      21.19,    19.71,    23.55,    19.85,    21.66
      197.0,      21.13,    19.67,    23.49,    19.77,    21.59
      198.0,      21.07,    19.63,    23.42,    19.69,    21.53
      199.0,      21.00,    19.59,    23.36,    19.61,    21.46
      200.0,      20.94,    19.56,    23.29,    19.53,    21.39
      201.0,      20.88,    19.52,    23.23,    19.45,    21.33
      202.0,      20.82,    19.48,    23.17,    19.37,    21.26
      203.0,      20.76,    19.44,    23.10,    19.29,    21.19
      204.0,      20.70,    19.41,    23.04,    19.21,    21.13
      205.0,      20.64,    19.37,    22.98,    19.14,    21.06
      206.0,      20.58,    19.33,    22.92,    19.06,    21.00
      207.0,      20.52,    19.30,    22.86,    18.98,    20.93
      208.0,      20.46,    19.26,    22.80,    18.91,    20.87
      209.0,      20.40,    19.22,    22.74,    18.83,    20.81
      210.0,      20.34,    19.19,    22.68,    18.76,    20.74
      211.0,      20.29,    19.15,    22.62,    18.68,    20.68
      212.0,      20.23,    19.12,    22.57,    18.61,    20.62
      213.0,      20.17,    19.08,    22.51,    18.53,    20.56
      214.0,      20.11,    19.05,    22.45,    18.46,    20.50
      215.0,      20.06,    19.02,    22.39,    18.39,    20.43
      216.0,      20.00,    18.98,    22.34,    18.31,    20.37
      217.0,      19.95,    18.95,    22.28,    18.24,    20.31
      218.0,      19.89,    18.91,    22.23,    18.17,    20.25
      219.0,      19.84,    18.88,    22.17,    18.10,    20.19
      220.0,      19.78,    18.85,    22.12,    18.03,    20.13
      221.0,      19.73,    18.81,    22.06,    17.96,    20.07
      222.0,      19.67,    18.78,    22.01,    17.89,    20.02
      223.0,      19.62,    18.75,    21.96,    17.82,    19.96
      224.0,      19.57,    18.71,    21.90,    17.75,    19.90
      225.0,      19.51,    18.68,    21.85,    17.68,    19.84
      226.0,      19.46,    18.65,    21.80,    17.61,    19.78
      227.0,      19.41,    18.62,    21.75,    17.54,    19.73
      228.0,      19.35,    18.58,    21.70,    17.47,    19.67
      229.0,      19.30,    18.55,    21.64,    17.40,    19.61
      230.0,      19.25,    18.52,    21.59,    17.33,    19.56
      231.0,      19.20,    18.49,    21.54,    17.27,    19.50
      232.0,      19.15,    18.46,    21.49,    17.20,    19.44
      233.0,      19.10,    18.43,    21.44,    17.13,    19.39
      234.0,      19.05,    18.40,    21.39,    17.07,    19.33
      235.0,      19.00,    18.36,    21.35,    17.00,    19.28
      236.0,      18.95,    18.33,    21.30,    16.94,    19.22
      237.0,      18.90,    18.30,    21.25,    16.87,    19.17
      238.0,      18.85,    18.27,    21.20,    16.81,    19.11
      239.0,      18.80,    18.24,    21.15,    16.74,    19.06
      240.0,      18.75,    18.21,    21.11,    16.68,    19.01
      241.0,      18.70,    18.18,    21.06,    16.61,    18.95
      242.0,      18.65,    18.15,    21.01,    16.55,    18.90
      243.0,      18.61,    18.12,    20.97,    16.49,    18.85
      244.0,      18.56,    18.09,    20.92,    16.42,    18.79
      245.0,      18.51,    18.06,    20.88,    16.36,    18.74
      246.0,      18.46,    18.03,    20.83,    16.30,    18.69
      247.0,      18.42,    18.00,    20.79,    16.24,    18.64
      248.0,      18.37,    17.97,    20.74,    16.17,    18.59
      249.0,      18.32,    17.94,    20.70,    16.11,    18.53
      250.0,      18.28,    17.91,    20.65,    16.05,    18.48
      251.0,      18.23,    17.88,    20.61,    15.99,    18.43
      252.0,      18.18,    17.86,    20.57,    15.93,    18.38
      253.0,      18.14,    17.83,    20.52,    15.87,    18.33
      254.0,      18.09,    17.80,    20.48,    15.81,    18.28
      255.0,      18.05,    17.77,    20.44,    15.75,    18.23
      256.0,      18.00,    17.74,    20.40,    15.69,    18.18
      257.0,      17.96,    17.71,    20.36,    15.63,    18.13
      258.0,      17.91,    17.68,    20.31,    15.57,    18.08
      259.0,      17.87,    17.66,    20.27,    15.51,    18.03
      260.0,      17.82,    17.63,    20.23,    15.46,    17.98
      261.0,      17.78,    17.60,    20.19,    15.40,    17.93
      262.0,      17.74,    17.57,    20.15,    15.34,    17.88
      263.0,      17.69,    17.54,    20.11,    15.28,    17.83
      264.0,      17.65,    17.51,    20.07,    15.23,    17.79
      265.0,      17.61,    17.49,    20.03,    15.17,    17.74
      266.0,      17.56,    17.46,    19.99,    15.11,    17.69
      267.0,      17.52,    17.43,    19.95,    15.06,    17.64
      268.0,      17.48,    17.40,    19.91,    15.00,    17.59
      269.0,      17.43,    17.38,    19.87,    14.94,    17.55
      270.0,      17.39,    17.35,    19.83,    14.89,    17.50
      271.0,      17.35,    17.32,    19.80,    14.83,    17.45
      272.0,      17.31,    17.29,    19.76,    14.78,    17.40
      273.0,      17.27,    17.27,    19.72,    14.72,    17.36
      274.0,      17.23,    17.24,    19.68,    14.67,    17.31
      275.0,      17.18,    17.21,    19.65,    14.62,    17.26
      276.0,      17.14,    17.19,    19.61,    14.56,    17.22
      277.0,      17.10,    17.16,    19.57,    14.51,    17.17
      278.0,      17.06,    17.13,    19.54,    14.45,    17.13
      279.0,      17.02,    17.10,    19.50,    14.40,    17.08
      280.0,      16.98,    17.08,    19.46,    14.35,    17.03
      281.0,      16.94,    17.05,    19.43,    14.30,    16.99
      282.0,      16.90,    17.02,    19.39,    14.24,    16.94
      283.0,      16.86,    17.00,    19.36,    14.19,    16.90
      284.0,      16.82,    16.97,    19.32,    14.14,    16.85
      285.0,      16.78,    16.94,    19.29,    14.09,    16.81
      286.0,      16.74,    16.92,    19.25,    14.04,    16.76
      287.0,      16.70,    16.89,    19.22,    13.99,    16.72
      288.0,      16.66,    16.87,    19.18,    13.93,    16.68
      289.0,      16.63,    16.84,    19.15,    13.88,    16.63
      290.0,      16.59,    16.81,    19.11,    13.83,    16.59
      291.0,      16.55,    16.79,    19.08,    13.78,    16.54
      292.0,      16.51,    16.76,    19.05,    13.73,    16.50
      293.0,      16.47,    16.74,    19.01,    13.68,    16.46
      294.0,      16.43,    16.71,    18.98,    13.63,    16.41
      295.0,      16.40,    16.68,    18.95,    13.58,    16.37
      296.0,      16.36,    16.66,    18.91,    13.54,    16.33
      297.0,      16.32,    16.63,    18.88,    13.49,    16.28
      298.0,      16.28,    16.61,    18.85,    13.44,    16.24
      299.0,      16.25,    16.58,    18.82,    13.39,    16.20
      300.0,      16.21,    16.56,    18.78,    13.34,    16.16
      301.0,      16.17,    16.53,    18.75,    13.29,    16.11
      302.0,      16.13,    16.50,    18.72,    13.25,    16.07
      303.0,      16.10,    16.48,    18.69,    13.20,    16.03
      304.0,      16.06,    16.45,    18.66,    13.15,    15.99
      305.0,      16.03,    16.43,    18.63,    13.10,    15.94
      306.0,      15.99,    16.40,    18.59,    13.06,    15.90
      307.0,      15.95,    16.38,    18.56,    13.01,    15.86
      308.0,      15.92,    16.35,    18.53,    12.96,    15.82
      309.0,      15.88,    16.33,    18.50,    12.92,    15.78
      310.0,      15.85,    16.30,    18.47,    12.87,    15.74
