Radius (km), Mean (m/s), NE (m/s), SE (m/s), SW (m/s), NW (m/s)
        0.0,       0.00,     0.00,     0.00,     0.00,     0.00
        1.0,       1.09,     1.08,     1.13,     1.11,     1.05
        2.0,       1.77,     1.76,     1.81,     1.79,     1.72
        3.0,       2.35,     2.33,     2.39,     2.37,     2.29
        4.0,       2.87,     2.85,     2.91,     2.89,     2.81
        5.0,       3.35,     3.34,     3.39,     3.38,     3.30
        6.0,       3.80,     3.79,     3.84,     3.83,     3.76
        7.0,       4.24,     4.23,     4.27,     4.26,     4.19
        8.0,       4.65,     4.64,     4.68,     4.67,     4.61
        9.0,       5.05,     5.04,     5.07,     5.06,     5.01
       10.0,       5.43,     5.43,     5.45,     5.44,     5.41
       11.0,       5.80,     5.80,     5.82,     5.81,     5.78
       12.0,       6.17,     6.17,     6.18,     6.17,     6.15
       13.0,       6.52,     6.52,     6.52,     6.52,     6.52
       14.0,       6.87,     6.87,     6.86,     6.87,     6.87
       15.0,       7.21,     7.21,     7.19,     7.20,     7.22
       16.0,       7.54,     7.54,     7.52,     7.53,     7.55
       17.0,       7.86,     7.87,     7.84,     7.85,     7.89
       18.0,       8.18,     8.19,     8.15,     8.17,     8.22
       19.0,       8.50,     8.51,     8.46,     8.48,     8.54
       20.0,       8.80,     8.82,     8.76,     8.78,     8.86
       21.0,       9.11,     9.13,     9.06,     9.08,     9.17
       22.0,       9.41,     9.43,     9.35,     9.38,     9.48
       23.0,       9.71,     9.73,     9.64,     9.67,     9.78
       24.0,      10.00,    10.02,     9.92,     9.96,    10.09
       25.0,      10.29,    10.32,    10.20,    10.24,    10.38
       26.0,      10.57,    10.60,    10.48,    10.52,    10.68
       27.0,      10.85,    10.89,    10.75,    10.80,    10.97
       28.0,      11.13,    11.17,    11.03,    11.08,    11.26
       29.0,      11.41,    11.45,    11.29,    11.35,    11.54
       30.0,      11.68,    11.72,    11.56,    11.61,    11.82
       31.0,      11.95,    11.99,    11.82,    11.88,    12.10
       32.0,      12.22,    12.26,    12.08,    12.14,    12.38
       33.0,      12.48,    12.53,    12.34,    12.40,    12.65
       34.0,      12.74,    12.80,    12.59,    12.66,    12.93
       35.0,      13.00,    13.06,    12.84,    12.92,    13.20
       36.0,      13.26,    13.32,    13.09,    13.17,    13.46
       37.0,      13.52,    13.58,    13.34,    13.42,    13.73
       38.0,      13.77,    13.84,    13.59,    13.67,    13.99
       39.0,      14.02,    14.09,    13.83,    13.92,    14.25
       40.0,      14.27,    14.34,    14.07,    14.16,    14.51
       41.0,      14.52,    14.59,    14.31,    14.41,    14.77
       42.0,      14.77,    14.84,    14.55,    14.65,    15.03
       43.0,      15.01,    15.09,    14.79,    14.89,    15.28
       44.0,      15.25,    15.33,    15.02,    15.13,    15.53
       45.0,      15.49,    15.58,    15.25,    15.36,    15.78
       46.0,      15.73,    15.82,    15.48,    15.60,    16.03
       47.0,      15.97,    16.06,    15.71,    15.83,    16.28
       48.0,      16.21,    16.30,    15.94,    16.06,    16.53
       49.0,      16.44,    16.54,    16.17,    16.29,    16.77
       50.0,      16.67,    16.77,    16.39,    16.52,    17.01
       51.0,      16.91,    17.01,    16.62,    16.75,    17.26
       52.0,      17.14,    17.24,    16.84,    16.97,    17.50
       53.0,      17.37,    17.47,    17.06,    17.20,    17.74
       54.0,      17.59,    17.70,    17.28,    17.42,    17.97
       55.0,      17.82,    17.93,    17.50,    17.64,    18.21
       56.0,      18.05,    18.16,    17.71,    17.86,    18.44
       57.0,      18.27,    18.38,    17.93,    18.08,    18.68
       58.0,      18.49,    18.61,    18.15,    18.30,    18.91
       59.0,      18.71,    18.83,    18.36,    18.52,    19.14
       60.0,      18.93,    19.06,    18.57,    18.73,    19.37
       61.0,      19.15,    19.28,    18.78,    18.95,    19.60
       62.0,      19.37,    19.50,    18.99,    19.16,    19.83
       63.0,      19.59,    19.72,    19.20,    19.38,    20.06
       64.0,      19.81,    19.94,    19.41,    19.59,    20.29
       65.0,      20.02,    20.16,    19.62,    19.80,    20.51
       66.0,      20.24,    20.37,    19.82,    20.01,    20.74
       67.0,      20.45,    20.59,    20.03,    20.22,    20.96
       68.0,      20.66,    20.81,    20.23,    20.42,    21.18
       69.0,      20.87,    21.02,    20.43,    20.63,    21.40
       70.0,      21.08,    21.23,    20.64,    20.84,    21.62
       71.0,      21.29,    21.45,    20.84,    21.04,    21.84
       72.0,      21.50,    21.66,    21.04,    21.25,    22.06
       73.0,      21.71,    21.87,    21.24,    21.45,    22.28
       74.0,      21.91,    22.08,    21.44,    21.65,    22.50
       75.0,      22.12,    22.29,    21.63,    21.85,    22.71
       76.0,      22.33,    22.49,    21.83,    22.05,    22.93
       77.0,      22.53,    22.70,    22.03,    22.25,    23.14
       78.0,      22.73,    22.91,    22.22,    22.45,    23.36
       79.0,      22.94,    23.11,    22.42,    22.65,    23.57
       80.0,      23.14,    23.32,    22.61,    22.85,    23.78
       81.0,      23.34,    23.52,    22.80,    23.04,    23.99
       82.0,      23.54,    23.72,    23.00,    23.24,    24.20
       83.0,      23.74,    23.93,    23.19,    23.43,    24.41
       84.0,      23.94,    24.13,    23.38,    23.63,    24.62
       85.0,      24.14,    24.33,    23.57,    23.82,    24.83
       86.0,      24.34,    24.53,    23.76,    24.02,    25.04
       87.0,      24.53,    24.73,    23.95,    24.21,    25.25
       88.0,      24.73,    24.93,    24.13,    24.40,    25.45
       89.0,      24.92,    25.13,    24.32,    24.59,    25.66
       90.0,      25.12,    25.32,    24.51,    24.78,    25.86
       91.0,      25.31,    25.52,    24.69,    24.97,    26.07
       92.0,      25.51,    25.72,    24.88,    25.16,    26.27
       93.0,      25.70,    25.91,    25.06,    25.35,    26.47
       94.0,      25.89,    26.11,    25.25,    25.53,    26.68
       95.0,      26.08,    26.30,    25.43,    25.72,    26.88
       96.0,      26.27,    26.50,    25.61,    25.91,    27.08
       97.0,      26.47,    26.69,    25.80,    26.09,    27.28
       98.0,      26.65,    26.88,    25.98,    26.28,    27.48
       99.0,      26.84,    27.07,    26.16,    26.46,    27.68
      100.0,      27.03,    27.27,    26.34,    26.65,    27.88
      101.0,      27.22,    27.46,    26.52,    26.83,    28.08
      102.0,      27.41,    27.65,    26.70,    27.01,    28.28
      103.0,      27.60,    27.84,    26.88,    27.20,    28.47
      104.0,      27.78,    28.03,    27.05,    27.38,    28.67
      105.0,      27.97,    28.21,    27.23,    27.56,    28.87
      106.0,      28.15,    28.40,    27.41,    27.74,    29.06
      107.0,      28.34,    28.59,    27.59,    27.92,    29.26
      108.0,      28.52,    28.78,    27.76,    28.10,    29.45
      109.0,      28.71,    28.96,    27.94,    28.28,    29.65
      110.0,      28.89,    29.15,    28.12,    28.47,    29.84
      111.0,      29.09,    29.34,    28.32,    28.67,    30.03
      112.0,      29.31,    29.55,    28.54,    28.90,    30.24
      113.0,      29.56,    29.78,    28.80,    29.16,    30.48
      114.0,      29.84,    30.06,    29.08,    29.47,    30.77
      115.0,      30.17,    30.38,    29.39,    29.80,    31.10
      116.0,      30.51,    30.74,    29.70,    30.13,    31.48
      117.0,      30.86,    31.10,    30.00,    30.45,    31.88
      118.0,      31.17,    31.44,    30.26,    30.73,    32.25
      119.0,      31.42,    31.72,    30.46,    30.94,    32.57
      120.0,      31.59,    31.91,    30.59,    31.07,    32.78
      121.0,      31.65,    31.98,    30.64,    31.10,    32.86
      122.0,      31.59,    31.92,    30.60,    31.05,    32.79
      123.0,      31.42,    31.73,    30.49,    30.91,    32.56
      124.0,      31.16,    31.44,    30.33,    30.70,    32.18
      125.0,      30.83,    31.05,    30.13,    30.45,    31.69
      126.0,      30.45,    30.60,    29.90,    30.18,    31.12
      127.0,      30.06,    30.13,    29.68,    29.90,    30.51
      128.0,      29.66,    29.65,    29.46,    29.63,    29.90
      129.0,      29.28,    29.20,    29.25,    29.38,    29.31
      130.0,      28.93,    28.77,    29.05,    29.14,    28.75
      131.0,      28.60,    28.38,    28.87,    28.91,    28.23
      132.0,      28.29,    28.00,    28.69,    28.69,    27.75
      133.0,      27.99,    27.65,    28.52,    28.48,    27.30
      134.0,      27.70,    27.31,    28.35,    28.28,    26.86
      135.0,      27.43,    26.98,    28.19,    28.09,    26.44
      136.0,      27.16,    26.67,    28.04,    27.90,    26.04
      137.0,      26.90,    26.36,    27.89,    27.72,    25.65
      138.0,      26.66,    26.07,    27.75,    27.54,    25.27
      139.0,      26.42,    25.78,    27.61,    27.37,    24.91
      140.0,      26.19,    25.51,    27.47,    27.21,    24.56
      141.0,      25.97,    25.25,    27.34,    27.05,    24.23
      142.0,      25.75,    24.99,    27.21,    26.90,    23.91
      143.0,      25.55,    24.75,    27.09,    26.75,    23.59
      144.0,      25.35,    24.51,    26.97,    26.61,    23.29
      145.0,      25.15,    24.28,    26.86,    26.47,    23.00
      146.0,      24.97,    24.06,    26.74,    26.34,    22.73
      147.0,      24.79,    23.84,    26.64,    26.21,    22.46
      148.0,      24.61,    23.64,    26.53,    26.08,    22.20
      149.0,      24.44,    23.44,    26.43,    25.96,    21.95
      150.0,      24.28,    23.25,    26.33,    25.84,    21.71
      151.0,      24.12,    23.06,    26.23,    25.73,    21.47
      152.0,      23.97,    22.88,    26.14,    25.62,    21.25
      153.0,      23.83,    22.71,    26.05,    25.51,    21.03
      154.0,      23.68,    22.54,    25.96,    25.41,    20.82
      155.0,      23.55,    22.37,    25.88,    25.31,    20.62
      156.0,      23.41,    22.22,    25.80,    25.21,    20.43
      157.0,      23.28,    22.06,    25.72,    25.12,    20.24
      158.0,      23.16,    21.92,    25.64,    25.03,    20.06
      159.0,      23.04,    21.77,    25.56,    24.94,    19.88
      160.0,      22.92,    21.63,    25.49,    24.85,    19.71
      161.0,      22.81,    21.50,    25.42,    24.77,    19.55
      162.0,      22.70,    21.37,    25.35,    24.69,    19.39
      163.0,      22.59,    21.24,    25.28,    24.61,    19.24
      164.0,      22.49,    21.12,    25.21,    24.53,    19.09
      165.0,      22.39,    21.00,    25.15,    24.46,    18.95
      166.0,      22.29,    20.89,    25.08,    24.38,    18.81
      167.0,      22.20,    20.78,    25.02,    24.31,    18.68
      168.0,      22.11,    20.67,    24.96,    24.25,    18.55
      169.0,      22.02,    20.56,    24.90,    24.18,    18.42
      170.0,      21.93,    20.46,    24.84,    24.11,    18.30
      171.0,      21.85,    20.36,    24.79,    24.05,    18.18
      172.0,      21.76,    20.27,    24.73,    23.99,    18.07
      173.0,      21.68,    20.17,    24.68,    23.93,    17.96
      174.0,      21.61,    20.08,    24.63,    23.87,    17.85
      175.0,      21.53,    20.00,    24.58,    23.81,    17.75
      176.0,      21.46,    19.91,    24.53,    23.75,    17.65
      177.0,      21.39,    19.83,    24.48,    23.70,    17.55
      178.0,      21.32,    19.74,    24.43,    23.65,    17.46
      179.0,      21.25,    19.66,    24.38,    23.59,    17.36
      180.0,      21.19,    19.59,    24.34,    23.54,    17.28
      181.0,      21.12,    19.51,    24.29,    23.49,    17.19
      182.0,      21.06,    19.44,    24.25,    23.44,    17.11
      183.0,      21.00,    19.37,    24.20,    23.40,    17.02
      184.0,      20.94,    19.30,    24.16,    23.35,    16.94
      185.0,      20.88,    19.23,    24.12,    23.30,    16.87
      186.0,      20.82,    19.16,    24.08,    23.26,    16.79
      187.0,      20.77,    19.10,    24.04,    23.21,    16.72
      188.0,      20.71,    19.03,    24.00,    23.17,    16.65
      189.0,      20.66,    18.97,    23.96,    23.13,    16.58
      190.0,      20.61,    18.91,    23.92,    23.09,    16.51
      191.0,      20.56,    18.85,    23.88,    23.05,    16.45
      192.0,      20.51,    18.79,    23.84,    23.01,    16.39
      193.0,      20.46,    18.74,    23.81,    22.97,    16.32
      194.0,      20.41,    18.68,    23.77,    22.93,    16.26
      195.0,      20.36,    18.63,    23.74,    22.89,    16.20
      196.0,      20.32,    18.57,    23.70,    22.85,    16.15
      197.0,      20.27,    18.52,    23.67,    22.82,    16.09
      198.0,      20.23,    18.47,    23.63,    22.78,    16.04
      199.0,      20.19,    18.42,    23.60,    22.74,    15.98
      200.0,      20.14,    18.37,    23.56,    22.71,    15.93
      201.0,      20.10,    18.32,    23.53,    22.67,    15.88
      202.0,      20.06,    18.28,    23.50,    22.64,    15.83
      203.0,      20.02,    18.23,    23.47,    22.61,    15.78
      204.0,      19.98,    18.18,    23.43,    22.57,    15.73
      205.0,      19.94,    18.14,    23.40,    22.54,    15.69
      206.0,      19.90,    18.09,    23.37,    22.51,    15.64
      207.0,      19.87,    18.05,    23.34,    22.48,    15.59
      208.0,      19.83,    18.01,    23.31,    22.45,    15.55
      209.0,      19.79,    17.97,    23.28,    22.41,    15.51
      210.0,      19.76,    17.92,    23.25,    22.38,    15.47
      211.0,      19.72,    17.88,    23.22,    22.35,    15.42
      212.0,      19.69,    17.84,    23.19,    22.32,    15.38
      213.0,      19.65,    17.80,    23.16,    22.29,    15.34
      214.0,      19.62,    17.76,    23.13,    22.26,    15.30
      215.0,      19.58,    17.72,    23.11,    22.24,    15.27
      216.0,      19.55,    17.69,    23.08,    22.21,    15.23
      217.0,      19.52,    17.65,    23.05,    22.18,    15.19
      218.0,      19.48,    17.61,    23.02,    22.15,    15.15
      219.0,      19.45,    17.57,    22.99,    22.12,    15.12
      220.0,      19.42,    17.54,    22.97,    22.09,    15.08
      221.0,      19.39,    17.50,    22.94,    22.07,    15.05
      222.0,      19.36,    17.47,    22.91,    22.04,    15.01
      223.0,      19.33,    17.43,    22.89,    22.01,    14.98
      224.0,      19.30,    17.40,    22.86,    21.99,    14.95
      225.0,      19.27,    17.36,    22.83,    21.96,    14.91
      226.0,      19.24,    17.33,    22.81,    21.93,    14.88
      227.0,      19.21,    17.30,    22.78,    21.91,    14.85
      228.0,      19.18,    17.26,    22.75,    21.88,    14.82
      229.0,      19.15,    17.23,    22.73,    21.86,    14.79
      230.0,      19.12,    17.20,    22.70,    21.83,    14.75
      231.0,      19.09,    17.16,    22.68,    21.80,    14.72
      232.0,      19.06,    17.13,    22.65,    21.78,    14.69
      233.0,      19.04,    17.10,    22.63,    21.75,    14.66
      234.0,      19.01,    17.07,    22.60,    21.73,    14.64
      235.0,      18.98,    17.04,    22.58,    21.70,    14.61
      236.0,      18.95,    17.01,    22.55,    21.68,    14.58
      237.0,      18.93,    16.98,    22.53,    21.66,    14.55
      238.0,      18.90,    16.95,    22.50,    21.63,    14.52
      239.0,      18.87,    16.92,    22.48,    21.61,    14.49
      240.0,      18.85,    16.89,    22.45,    21.58,    14.47
      241.0,      18.82,    16.86,    22.43,    21.56,    14.44
      242.0,      18.79,    16.83,    22.41,    21.54,    14.41
      243.0,      18.77,    16.80,    22.38,    21.51,    14.38
      244.0,      18.74,    16.77,    22.36,    21.49,    14.36
      245.0,      18.72,    16.74,    22.33,    21.46,    14.33
      246.0,      18.69,    16.71,    22.31,    21.44,    14.31
      247.0,      18.67,    16.68,    22.29,    21.42,    14.28
      248.0,      18.64,    16.65,    22.26,    21.39,    14.25
      249.0,      18.62,    16.62,    22.24,    21.37,    14.23
      250.0,      18.59,    16.60,    22.21,    21.35,    14.20
      251.0,      18.57,    16.57,    22.19,    21.33,    14.18
      252.0,      18.54,    16.54,    22.17,    21.30,    14.15
      253.0,      18.52,    16.51,    22.14,    21.28,    14.13
      254.0,      18.49,    16.48,    22.12,    21.26,    14.10
      255.0,      18.47,    16.46,    22.10,    21.23,    14.08
      256.0,      18.44,    16.43,    22.07,    21.21,    14.06
      257.0,      18.42,    16.40,    22.05,    21.19,    14.03
      258.0,      18.39,    16.38,    22.03,    21.17,    14.01
      259.0,      18.37,    16.35,    22.01,    21.14,    13.98
      260.0,      18.35,    16.32,    21.98,    21.12,    13.96
      261.0,      18.32,    16.29,    21.96,    21.10,    13.94
      262.0,      18.30,    16.27,    21.94,    21.08,    13.91
      263.0,      18.28,    16.24,    21.91,    21.06,    13.89
      264.0,      18.25,    16.22,    21.89,    21.03,    13.87
      265.0,      18.23,    16.19,    21.87,    21.01,    13.84
      266.0,      18.21,    16.16,    21.85,    20.99,    13.82
      267.0,      18.18,    16.14,    21.82,    20.97,    13.80
      268.0,      18.16,    16.11,    21.80,    20.95,    13.78
      269.0,      18.14,    16.09,    21.78,    20.92,    13.75
      270.0,      18.11,    16.06,    21.76,    20.90,    13.73
      271.0,      18.09,    16.03,    21.73,    20.88,    13.71
      272.0,      18.07,    16.01,    21.71,    20.86,    13.69
      273.0,      18.04,    15.98,    21.69,    20.84,    13.66
      274.0,      18.02,    15.96,    21.67,    20.82,    13.64
      275.0,      18.00,    15.93,    21.65,    20.80,    13.62
      276.0,      17.98,    15.91,    21.62,    20.77,    13.60
      277.0,      17.95,    15.88,    21.60,    20.75,    13.58
      278.0,      17.93,    15.86,    21.58,    20.73,    13.55
      279.0,      17.91,    15.83,    21.56,    20.71,    13.53
      280.0,      17.89,    15.81,    21.54,    20.69,    13.51
      281.0,      17.86,    15.78,    21.51,    20.67,    13.49
      282.0,      17.84,    15.76,    21.49,    20.65,    13.47
      283.0,      17.82,    15.73,    21.47,    20.63,    13.45
      284.0,      17.80,    15.71,    21.45,    20.60,    13.43
      285.0,      17.77,    15.68,    21.43,    20.58,    13.40
      286.0,      17.75,    15.66,    21.40,    20.56,    13.38
      287.0,      17.73,    15.63,    21.38,    20.54,    13.36
      288.0,      17.71,    15.61,    21.36,    20.52,    13.34
      289.0,      17.69,    15.58,    21.34,    20.50,    13.32
      290.0,      17.66,    15.56,    21.32,    20.48,    13.30
      291.0,      17.64,    15.54,    21.30,    20.46,    13.28
      292.0,      17.62,    15.51,    21.27,    20.44,    13.26
      293.0,      17.60,    15.49,    21.25,    20.42,    13.24
      294.0,      17.58,    15.46,    21.23,    20.40,    13.22
      295.0,      17.56,    15.44,    21.21,    20.38,    13.20
      296.0,      17.53,    15.42,    21.19,    20.36,    13.18
      297.0,      17.51,    15.39,    21.17,    20.33,    13.15
      298.0,      17.49,    15.37,    21.15,    20.31,    13.13
      299.0,      17.47,    15.34,    21.13,    20.29,    13.11
      300.0,      17.45,    15.32,    21.10,    20.27,    13.09
      301.0,      17.43,    15.30,    21.08,    20.25,    13.07
      302.0,      17.40,    15.27,    21.06,    20.23,    13.05
      303.0,      17.38,    15.25,    21.04,    20.21,    13.03
      304.0,      17.36,    15.23,    21.02,    20.19,    13.01
      305.0,      17.34,    15.20,    21.00,    20.17,    12.99
      306.0,      17.32,    15.18,    20.98,    20.15,    12.97
      307.0,      17.30,    15.16,    20.96,    20.13,    12.95
      308.0,      17.28,    15.13,    20.93,    20.11,    12.93
      309.0,      17.26,    15.11,    20.91,    20.09,    12.91
      310.0,      17.24,    15.09,    20.89,    20.07,    12.89
