Radius (km), Mean (m/s), NE (m/s), SE (m/s), SW (m/s), NW (m/s)
        0.0,       0.00,     0.00,     0.00,     0.00,     0.00
        1.0,       1.37,     1.30,     1.42,     1.45,     1.30
        2.0,       2.57,     2.48,     2.64,     2.67,     2.48
        3.0,       3.71,     3.62,     3.79,     3.82,     3.62
        4.0,       4.82,     4.74,     4.89,     4.92,     4.74
        5.0,       5.90,     5.83,     5.96,     5.99,     5.83
        6.0,       6.97,     6.91,     7.01,     7.03,     6.91
        7.0,       8.02,     7.99,     8.05,     8.05,     7.99
        8.0,       9.05,     9.04,     9.06,     9.06,     9.04
        9.0,      10.07,    10.10,    10.06,    10.05,    10.10
       10.0,      11.09,    11.14,    11.05,    11.02,    11.14
       11.0,      12.09,    12.18,    12.03,    11.99,    12.18
       12.0,      13.09,    13.21,    13.00,    12.94,    13.21
       13.0,      14.08,    14.23,    13.96,    13.89,    14.23
       14.0,      15.06,    15.25,    14.91,    14.82,    15.25
       15.0,      16.03,    16.26,    15.85,    15.75,    16.26
       16.0,      17.00,    17.27,    16.79,    16.67,    17.27
       17.0,      17.97,    18.28,    17.72,    17.58,    18.28
       18.0,      18.92,    19.28,    18.64,    18.49,    19.28
       19.0,      19.88,    20.28,    19.56,    19.39,    20.28
       20.0,      20.83,    21.27,    20.48,    20.29,    21.27
       21.0,      21.77,    22.26,    21.39,    21.18,    22.26
       22.0,      22.71,    23.25,    22.29,    22.06,    23.25
       23.0,      23.65,    24.24,    23.19,    22.94,    24.24
       24.0,      24.59,    25.22,    24.08,    23.82,    25.22
       25.0,      25.52,    26.20,    24.97,    24.69,    26.20
       26.0,      26.44,    27.18,    25.86,    25.56,    27.18
       27.0,      27.37,    28.15,    26.75,    26.42,    28.15
       28.0,      28.29,    29.13,    27.63,    27.28,    29.13
       29.0,      29.23,    30.13,    28.54,    28.15,    30.12
       30.0,      30.22,    31.18,    29.51,    29.06,    31.15
       31.0,      31.28,    32.31,    30.55,    30.02,    32.25
       32.0,      32.44,    33.54,    31.68,    31.08,    33.44
       33.0,      33.68,    34.86,    32.90,    32.23,    34.73
       34.0,      35.00,    36.26,    34.17,    33.46,    36.09
       35.0,      36.34,    37.68,    35.46,    34.73,    37.49
       36.0,      37.65,    39.06,    36.70,    35.99,    38.86
       37.0,      38.87,    40.33,    37.84,    37.15,    40.14
       38.0,      39.93,    41.44,    38.82,    38.18,    41.27
       39.0,      40.79,    42.34,    39.60,    39.00,    42.20
       40.0,      41.42,    43.01,    40.16,    39.59,    42.90
       41.0,      41.81,    43.43,    40.50,    39.95,    43.37
       42.0,      42.00,    43.65,    40.66,    40.07,    43.61
       43.0,      42.00,    43.68,    40.66,    40.01,    43.67
       44.0,      41.88,    43.58,    40.55,    39.80,    43.59
       45.0,      41.67,    43.40,    40.38,    39.50,    43.42
       46.0,      41.43,    43.19,    40.18,    39.15,    43.21
       47.0,      41.18,    42.97,    39.98,    38.81,    42.99
       48.0,      40.95,    42.76,    39.79,    38.47,    42.78
       49.0,      40.73,    42.57,    39.61,    38.16,    42.58
       50.0,      40.52,    42.38,    39.44,    37.87,    42.39
       51.0,      40.32,    42.20,    39.28,    37.59,    42.21
       52.0,      40.12,    42.02,    39.12,    37.32,    42.02
       53.0,      39.93,    41.84,    38.97,    37.06,    41.84
       54.0,      39.73,    41.66,    38.81,    36.80,    41.66
       55.0,      39.55,    41.48,    38.66,    36.55,    41.48
       56.0,      39.36,    41.31,    38.52,    36.31,    41.30
       57.0,      39.18,    41.14,    38.37,    36.07,    41.13
       58.0,      39.00,    40.96,    38.23,    35.84,    40.95
       59.0,      38.82,    40.80,    38.09,    35.62,    40.77
       60.0,      38.64,    40.63,    37.95,    35.39,    40.60
       61.0,      38.47,    40.46,    37.82,    35.18,    40.43
       62.0,      38.30,    40.30,    37.69,    34.97,    40.25
       63.0,      38.13,    40.13,    37.56,    34.76,    40.08
       64.0,      37.97,    39.97,    37.43,    34.56,    39.91
       65.0,      37.81,    39.81,    37.30,    34.37,    39.74
       66.0,      37.64,    39.65,    37.18,    34.17,    39.57
       67.0,      37.49,    39.49,    37.06,    33.99,    39.41
       68.0,      37.33,    39.34,    36.94,    33.80,    39.24
       69.0,      37.17,    39.18,    36.82,    33.62,    39.08
       70.0,      37.02,    39.03,    36.70,    33.45,    38.91
       71.0,      36.87,    38.88,    36.59,    33.27,    38.75
       72.0,      36.72,    38.72,    36.47,    33.10,    38.58
       73.0,      36.57,    38.57,    36.36,    32.94,    38.42
       74.0,      36.43,    38.43,    36.25,    32.77,    38.26
       75.0,      36.28,    38.28,    36.14,    32.61,    38.10
       76.0,      36.14,    38.13,    36.03,    32.46,    37.94
       77.0,      36.00,    37.99,    35.93,    32.30,    37.78
       78.0,      35.86,    37.84,    35.82,    32.15,    37.63
       79.0,      35.72,    37.70,    35.72,    32.00,    37.47
       80.0,      35.59,    37.56,    35.62,    31.86,    37.31
       81.0,      35.45,    37.42,    35.51,    31.72,    37.16
       82.0,      35.32,    37.28,    35.41,    31.57,    37.00
       83.0,      35.19,    37.14,    35.31,    31.44,    36.85
       84.0,      35.06,    37.01,    35.22,    31.30,    36.70
       85.0,      34.93,    36.87,    35.12,    31.16,    36.55
       86.0,      34.80,    36.74,    35.02,    31.03,    36.40
       87.0,      34.67,    36.60,    34.93,    30.90,    36.25
       88.0,      34.54,    36.47,    34.83,    30.77,    36.10
       89.0,      34.42,    36.34,    34.74,    30.65,    35.95
       90.0,      34.29,    36.21,    34.65,    30.52,    35.80
       91.0,      34.17,    36.08,    34.55,    30.40,    35.66
       92.0,      34.05,    35.95,    34.46,    30.28,    35.51
       93.0,      33.93,    35.82,    34.37,    30.16,    35.37
       94.0,      33.81,    35.70,    34.28,    30.04,    35.22
       95.0,      33.69,    35.57,    34.19,    29.92,    35.08
       96.0,      33.57,    35.45,    34.11,    29.81,    34.94
       97.0,      33.46,    35.32,    34.02,    29.69,    34.79
       98.0,      33.34,    35.20,    33.93,    29.58,    34.65
       99.0,      33.23,    35.08,    33.85,    29.47,    34.51
      100.0,      33.11,    34.96,    33.76,    29.36,    34.37
      101.0,      33.00,    34.84,    33.68,    29.25,    34.24
      102.0,      32.89,    34.72,    33.59,    29.15,    34.10
      103.0,      32.78,    34.60,    33.51,    29.04,    33.96
      104.0,      32.67,    34.48,    33.42,    28.93,    33.82
      105.0,      32.56,    34.36,    33.34,    28.83,    33.69
      106.0,      32.45,    34.25,    33.26,    28.73,    33.55
      107.0,      32.34,    34.13,    33.18,    28.63,    33.42
      108.0,      32.23,    34.02,    33.10,    28.53,    33.29
      109.0,      32.13,    33.91,    33.02,    28.43,    33.15
      110.0,      32.02,    33.79,    32.94,    28.33,    33.02
      111.0,      31.91,    33.68,    32.86,    28.23,    32.89
      112.0,      31.81,    33.57,    32.78,    28.13,    32.76
      113.0,      31.71,    33.46,    32.70,    28.04,    32.63
      114.0,      31.60,    33.35,    32.62,    27.94,    32.50
      115.0,      31.50,    33.24,    32.54,    27.85,    32.37
      116.0,      31.40,    33.13,    32.46,    27.75,    32.25
      117.0,      31.30,    33.03,    32.39,    27.66,    32.12
      118.0,      31.20,    32.92,    32.31,    27.57,    31.99
      119.0,      31.10,    32.81,    32.23,    27.47,    31.87
      120.0,      31.00,    32.71,    32.16,    27.38,    31.74
      121.0,      30.90,    32.60,    32.08,    27.29,    31.62
      122.0,      30.80,    32.50,    32.00,    27.20,    31.49
      123.0,      30.70,    32.40,    31.93,    27.11,    31.37
      124.0,      30.61,    32.29,    31.85,    27.03,    31.25
      125.0,      30.51,    32.19,    31.78,    26.94,    31.13
      126.0,      30.41,    32.09,    31.71,    26.85,    31.01
      127.0,      30.32,    31.99,    31.63,    26.76,    30.89
      128.0,      30.22,    31.89,    31.56,    26.68,    30.77
      129.0,      30.13,    31.79,    31.49,    26.59,    30.65
      130.0,      30.04,    31.69,    31.41,    26.51,    30.53
      131.0,      29.94,    31.59,    31.34,    26.42,    30.41
      132.0,      29.85,    31.49,    31.27,    26.34,    30.29
      133.0,      29.76,    31.40,    31.20,    26.26,    30.18
      134.0,      29.67,    31.30,    31.12,    26.17,    30.06
      135.0,      29.57,    31.21,    31.05,    26.09,    29.95
      136.0,      29.48,    31.11,    30.98,    26.01,    29.83
      137.0,      29.39,    31.02,    30.91,    25.93,    29.72
      138.0,      29.30,    30.92,    30.84,    25.85,    29.60
      139.0,      29.21,    30.83,    30.77,    25.77,    29.49
      140.0,      29.12,    30.73,    30.70,    25.69,    29.38
      141.0,      29.04,    30.64,    30.63,    25.61,    29.27
      142.0,      28.95,    30.55,    30.56,    25.53,    29.16
      143.0,      28.86,    30.46,    30.49,    25.45,    29.05
      144.0,      28.77,    30.37,    30.42,    25.37,    28.94
      145.0,      28.69,    30.28,    30.35,    25.29,    28.83
      146.0,      28.60,    30.19,    30.28,    25.21,    28.72
      147.0,      28.51,    30.10,    30.21,    25.14,    28.61
      148.0,      28.43,    30.01,    30.14,    25.06,    28.50
      149.0,      28.34,    29.92,    30.08,    24.98,    28.39
      150.0,      28.26,    29.83,    30.01,    24.91,    28.29
      151.0,      28.17,    29.74,    29.94,    24.83,    28.18
      152.0,      28.09,    29.66,    29.87,    24.76,    28.08
      153.0,      28.01,    29.57,    29.80,    24.68,    27.97
      154.0,      27.92,    29.49,    29.74,    24.61,    27.87
      155.0,      27.84,    29.40,    29.67,    24.53,    27.76
      156.0,      27.76,    29.31,    29.60,    24.46,    27.66
      157.0,      27.68,    29.23,    29.54,    24.38,    27.56
      158.0,      27.59,    29.15,    29.47,    24.31,    27.45
      159.0,      27.51,    29.06,    29.40,    24.24,    27.35
      160.0,      27.43,    28.98,    29.34,    24.16,    27.25
      161.0,      27.35,    28.90,    29.27,    24.09,    27.15
      162.0,      27.27,    28.81,    29.21,    24.02,    27.05
      163.0,      27.19,    28.73,    29.14,    23.95,    26.95
      164.0,      27.11,    28.65,    29.07,    23.87,    26.85
      165.0,      27.03,    28.57,    29.01,    23.80,    26.75
      166.0,      26.95,    28.49,    28.94,    23.73,    26.66
      167.0,      26.88,    28.41,    28.88,    23.66,    26.56
      168.0,      26.80,    28.33,    28.81,    23.59,    26.46
      169.0,      26.72,    28.25,    28.75,    23.52,    26.36
      170.0,      26.64,    28.17,    28.69,    23.45,    26.27
      171.0,      26.57,    28.09,    28.62,    23.38,    26.17
      172.0,      26.49,    28.01,    28.56,    23.31,    26.08
      173.0,      26.41,    27.93,    28.49,    23.24,    25.98
      174.0,      26.34,    27.85,    28.43,    23.17,    25.89
      175.0,      26.26,    27.78,    28.37,    23.10,    25.79
      176.0,      26.18,    27.70,    28.30,    23.03,    25.70
      177.0,      26.11,    27.62,    28.24,    22.96,    25.61
      178.0,      26.03,    27.55,    28.18,    22.90,    25.52
      179.0,      25.96,    27.47,    28.11,    22.83,    25.42
      180.0,      25.88,    27.39,    28.05,    22.76,    25.33
      181.0,      25.81,    27.32,    27.99,    22.69,    25.24
      182.0,      25.74,    27.24,    27.93,    22.62,    25.15
      183.0,      25.66,    27.17,    27.86,    22.56,    25.06
      184.0,      25.59,    27.10,    27.80,    22.49,    24.97
      185.0,      25.52,    27.02,    27.74,    22.42,    24.88
      186.0,      25.44,    26.95,    27.68,    22.36,    24.79
      187.0,      25.37,    26.87,    27.62,    22.29,    24.71
      188.0,      25.30,    26.80,    27.56,    22.23,    24.62
      189.0,      25.23,    26.73,    27.49,    22.16,    24.53
      190.0,      25.16,    26.66,    27.43,    22.09,    24.44
      191.0,      25.09,    26.59,    27.37,    22.03,    24.36
      192.0,      25.01,    26.51,    27.31,    21.96,    24.27
      193.0,      24.94,    26.44,    27.25,    21.90,    24.19
      194.0,      24.87,    26.37,    27.19,    21.83,    24.10
      195.0,      24.80,    26.30,    27.13,    21.77,    24.02
      196.0,      24.73,    26.23,    27.07,    21.71,    23.93
      197.0,      24.66,    26.16,    27.01,    21.64,    23.85
      198.0,      24.60,    26.09,    26.95,    21.58,    23.76
      199.0,      24.53,    26.02,    26.89,    21.52,    23.68
      200.0,      24.46,    25.95,    26.83,    21.45,    23.60
      201.0,      24.39,    25.88,    26.77,    21.39,    23.52
      202.0,      24.32,    25.81,    26.71,    21.33,    23.43
      203.0,      24.25,    25.75,    26.65,    21.26,    23.35
      204.0,      24.18,    25.68,    26.59,    21.20,    23.27
      205.0,      24.12,    25.61,    26.53,    21.14,    23.19
      206.0,      24.05,    25.54,    26.47,    21.08,    23.11
      207.0,      23.98,    25.47,    26.41,    21.01,    23.03
      208.0,      23.92,    25.41,    26.36,    20.95,    22.95
      209.0,      23.85,    25.34,    26.30,    20.89,    22.87
      210.0,      23.78,    25.27,    26.24,    20.83,    22.79
      211.0,      23.72,    25.21,    26.18,    20.77,    22.71
      212.0,      23.65,    25.14,    26.12,    20.71,    22.64
      213.0,      23.59,    25.08,    26.06,    20.65,    22.56
      214.0,      23.52,    25.01,    26.01,    20.59,    22.48
      215.0,      23.46,    24.95,    25.95,    20.52,    22.40
      216.0,      23.39,    24.88,    25.89,    20.46,    22.33
      217.0,      23.33,    24.82,    25.83,    20.40,    22.25
      218.0,      23.26,    24.75,    25.78,    20.34,    22.18
      219.0,      23.20,    24.69,    25.72,    20.28,    22.10
      220.0,      23.13,    24.62,    25.66,    20.23,    22.02
      221.0,      23.07,    24.56,    25.60,    20.17,    21.95
      222.0,      23.01,    24.50,    25.55,    20.11,    21.88
      223.0,      22.94,    24.43,    25.49,    20.05,    21.80
      224.0,      22.88,    24.37,    25.43,    19.99,    21.73
      225.0,      22.82,    24.31,    25.38,    19.93,    21.65
      226.0,      22.75,    24.24,    25.32,    19.87,    21.58
      227.0,      22.69,    24.18,    25.27,    19.81,    21.51
      228.0,      22.63,    24.12,    25.21,    19.76,    21.44
      229.0,      22.57,    24.06,    25.15,    19.70,    21.36
      230.0,      22.51,    24.00,    25.10,    19.64,    21.29
      231.0,      22.45,    23.94,    25.04,    19.58,    21.22
      232.0,      22.38,    23.87,    24.99,    19.52,    21.15
      233.0,      22.32,    23.81,    24.93,    19.47,    21.08
      234.0,      22.26,    23.75,    24.88,    19.41,    21.01
      235.0,      22.20,    23.69,    24.82,    19.35,    20.94
      236.0,      22.14,    23.63,    24.77,    19.30,    20.87
      237.0,      22.08,    23.57,    24.71,    19.24,    20.80
      238.0,      22.02,    23.51,    24.66,    19.18,    20.73
      239.0,      21.96,    23.45,    24.60,    19.13,    20.66
      240.0,      21.90,    23.39,    24.55,    19.07,    20.59
      241.0,      21.84,    23.33,    24.49,    19.02,    20.53
      242.0,      21.78,    23.27,    24.44,    18.96,    20.46
      243.0,      21.72,    23.22,    24.38,    18.90,    20.39
      244.0,      21.66,    23.16,    24.33,    18.85,    20.32
      245.0,      21.61,    23.10,    24.28,    18.79,    20.26
      246.0,      21.55,    23.04,    24.22,    18.74,    20.19
      247.0,      21.49,    22.98,    24.17,    18.68,    20.12
      248.0,      21.43,    22.92,    24.11,    18.63,    20.06
      249.0,      21.37,    22.87,    24.06,    18.57,    19.99
      250.0,      21.32,    22.81,    24.01,    18.52,    19.93
      251.0,      21.26,    22.75,    23.95,    18.47,    19.86
      252.0,      21.20,    22.69,    23.90,    18.41,    19.80
      253.0,      21.14,    22.64,    23.85,    18.36,    19.73
      254.0,      21.09,    22.58,    23.80,    18.30,    19.67
      255.0,      21.03,    22.52,    23.74,    18.25,    19.61
      256.0,      20.97,    22.47,    23.69,    18.20,    19.54
      257.0,      20.92,    22.41,    23.64,    18.14,    19.48
      258.0,      20.86,    22.36,    23.59,    18.09,    19.42
      259.0,      20.81,    22.30,    23.53,    18.04,    19.35
      260.0,      20.75,    22.24,    23.48,    17.98,    19.29
      261.0,      20.69,    22.19,    23.43,    17.93,    19.23
      262.0,      20.64,    22.13,    23.38,    17.88,    19.17
      263.0,      20.58,    22.08,    23.33,    17.83,    19.11
      264.0,      20.53,    22.02,    23.27,    17.78,    19.04
      265.0,      20.47,    21.97,    23.22,    17.72,    18.98
      266.0,      20.42,    21.91,    23.17,    17.67,    18.92
      267.0,      20.37,    21.86,    23.12,    17.62,    18.86
      268.0,      20.31,    21.81,    23.07,    17.57,    18.80
      269.0,      20.26,    21.75,    23.02,    17.52,    18.74
      270.0,      20.20,    21.70,    22.97,    17.47,    18.68
      271.0,      20.15,    21.64,    22.91,    17.41,    18.62
      272.0,      20.10,    21.59,    22.86,    17.36,    18.56
      273.0,      20.04,    21.54,    22.81,    17.31,    18.51
      274.0,      19.99,    21.48,    22.76,    17.26,    18.45
      275.0,      19.94,    21.43,    22.71,    17.21,    18.39
      276.0,      19.88,    21.38,    22.66,    17.16,    18.33
      277.0,      19.83,    21.33,    22.61,    17.11,    18.27
      278.0,      19.78,    21.27,    22.56,    17.06,    18.22
      279.0,      19.73,    21.22,    22.51,    17.01,    18.16
      280.0,      19.67,    21.17,    22.46,    16.96,    18.10
      281.0,      19.62,    21.12,    22.41,    16.91,    18.04
      282.0,      19.57,    21.06,    22.36,    16.86,    17.99
      283.0,      19.52,    21.01,    22.31,    16.81,    17.93
      284.0,      19.47,    20.96,    22.26,    16.76,    17.88
      285.0,      19.41,    20.91,    22.21,    16.71,    17.82
      286.0,      19.36,    20.86,    22.16,    16.66,    17.76
      287.0,      19.31,    20.81,    22.12,    16.62,    17.71
      288.0,      19.26,    20.76,    22.07,    16.57,    17.65
      289.0,      19.21,    20.71,    22.02,    16.52,    17.60
      290.0,      19.16,    20.66,    21.97,    16.47,    17.54
      291.0,      19.11,    20.60,    21.92,    16.42,    17.49
      292.0,      19.06,    20.55,    21.87,    16.37,    17.44
      293.0,      19.01,    20.50,    21.82,    16.33,    17.38
      294.0,      18.96,    20.45,    21.77,    16.28,    17.33
      295.0,      18.91,    20.40,    21.73,    16.23,    17.28
      296.0,      18.86,    20.35,    21.68,    16.18,    17.22
      297.0,      18.81,    20.30,    21.63,    16.14,    17.17
      298.0,      18.76,    20.26,    21.58,    16.09,    17.12
      299.0,      18.71,    20.21,    21.53,    16.04,    17.06
      300.0,      18.66,    20.16,    21.49,    16.00,    17.01
      301.0,      18.61,    20.11,    21.44,    15.95,    16.96
      302.0,      18.56,    20.06,    21.39,    15.90,    16.91
      303.0,      18.52,    20.01,    21.34,    15.86,    16.86
      304.0,      18.47,    19.96,    21.30,    15.81,    16.80
      305.0,      18.42,    19.91,    21.25,    15.76,    16.75
      306.0,      18.37,    19.86,    21.20,    15.72,    16.70
      307.0,      18.32,    19.82,    21.16,    15.67,    16.65
      308.0,      18.28,    19.77,    21.11,    15.62,    16.60
      309.0,      18.23,    19.72,    21.06,    15.58,    16.55
      310.0,      18.18,    19.67,    21.02,    15.53,    16.50
