Radius (km), Mean (m/s), NE (m/s), SE (m/s), SW (m/s), NW (m/s)
        0.0,       0.00,     0.00,     0.00,     0.00,     0.00
        1.0,       1.37,     1.37,     1.37,     1.37,     1.35
        2.0,       2.42,     2.43,     2.43,     2.43,     2.40
        3.0,       3.38,     3.39,     3.39,     3.39,     3.36
        4.0,       4.28,     4.29,     4.29,     4.29,     4.27
        5.0,       5.15,     5.15,     5.15,     5.15,     5.13
        6.0,       5.98,     5.98,     5.98,     5.98,     5.97
        7.0,       6.79,     6.79,     6.79,     6.79,     6.78
        8.0,       7.58,     7.58,     7.58,     7.58,     7.58
        9.0,       8.35,     8.35,     8.35,     8.35,     8.35
       10.0,       9.11,     9.11,     9.11,     9.11,     9.11
       11.0,       9.85,     9.85,     9.85,     9.85,     9.86
       12.0,      10.58,    10.58,    10.58,    10.58,    10.60
       13.0,      11.30,    11.30,    11.30,    11.30,    11.32
       14.0,      12.01,    12.00,    12.00,    12.00,    12.04
       15.0,      12.72,    12.70,    12.70,    12.70,    12.75
       16.0,      13.41,    13.40,    13.40,    13.40,    13.45
       17.0,      14.10,    14.08,    14.08,    14.08,    14.14
       18.0,      14.77,    14.76,    14.76,    14.76,    14.82
       19.0,      15.45,    15.43,    15.43,    15.43,    15.50
       20.0,      16.11,    16.09,    16.09,    16.09,    16.18
       21.0,      16.77,    16.75,    16.75,    16.75,    16.84
       22.0,      17.43,    17.40,    17.40,    17.40,    17.50
       23.0,      18.08,    18.05,    18.05,    18.05,    18.16
       24.0,      18.72,    18.69,    18.69,    18.69,    18.81
       25.0,      19.36,    19.33,    19.33,    19.33,    19.46
       26.0,      20.00,    19.96,    19.96,    19.96,    20.10
       27.0,      20.63,    20.59,    20.59,    20.59,    20.74
       28.0,      21.25,    21.22,    21.22,    21.22,    21.37
       29.0,      21.88,    21.84,    21.84,    21.84,    22.00
       30.0,      22.50,    22.45,    22.45,    22.45,    22.63
       31.0,      23.11,    23.07,    23.07,    23.07,    23.25
       32.0,      23.72,    23.68,    23.68,    23.68,    23.87
       33.0,      24.33,    24.28,    24.28,    24.28,    24.48
       34.0,      24.94,    24.89,    24.89,    24.89,    25.10
       35.0,      25.54,    25.48,    25.48,    25.48,    25.71
       36.0,      26.14,    26.08,    26.08,    26.08,    26.31
       37.0,      26.74,    26.68,    26.68,    26.68,    26.92
       38.0,      27.33,    27.27,    27.27,    27.27,    27.52
       39.0,      27.92,    27.85,    27.85,    27.85,    28.12
       40.0,      28.51,    28.44,    28.44,    28.44,    28.71
       41.0,      29.12,    29.04,    29.05,    29.05,    29.32
       42.0,      29.76,    29.67,    29.68,    29.71,    29.96
       43.0,      30.45,    30.35,    30.37,    30.43,    30.67
       44.0,      31.23,    31.11,    31.11,    31.23,    31.44
       45.0,      32.07,    31.94,    31.91,    32.12,    32.30
       46.0,      32.97,    32.84,    32.75,    33.07,    33.23
       47.0,      33.90,    33.76,    33.60,    34.04,    34.18
       48.0,      34.80,    34.66,    34.43,    34.98,    35.12
       49.0,      35.63,    35.50,    35.20,    35.83,    35.99
       50.0,      36.34,    36.23,    35.86,    36.55,    36.74
       51.0,      36.90,    36.80,    36.41,    37.09,    37.33
       52.0,      37.29,    37.19,    36.81,    37.43,    37.72
       53.0,      37.50,    37.40,    37.08,    37.59,    37.92
       54.0,      37.55,    37.45,    37.22,    37.56,    37.94
       55.0,      37.46,    37.35,    37.27,    37.39,    37.81
       56.0,      37.27,    37.16,    37.23,    37.12,    37.57
       57.0,      37.02,    36.89,    37.15,    36.79,    37.25
       58.0,      36.74,    36.60,    37.05,    36.44,    36.89
       59.0,      36.46,    36.30,    36.94,    36.09,    36.53
       60.0,      36.20,    36.02,    36.84,    35.75,    36.18
       61.0,      35.94,    35.75,    36.74,    35.43,    35.85
       62.0,      35.70,    35.50,    36.65,    35.12,    35.53
       63.0,      35.46,    35.26,    36.55,    34.82,    35.22
       64.0,      35.24,    35.03,    36.46,    34.54,    34.91
       65.0,      35.01,    34.80,    36.37,    34.26,    34.62
       66.0,      34.79,    34.58,    36.28,    33.99,    34.32
       67.0,      34.58,    34.37,    36.19,    33.72,    34.04
       68.0,      34.37,    34.17,    36.10,    33.47,    33.75
       69.0,      34.17,    33.97,    36.01,    33.22,    33.48
       70.0,      33.97,    33.78,    35.92,    32.98,    33.21
       71.0,      33.78,    33.59,    35.83,    32.75,    32.94
       72.0,      33.59,    33.41,    35.74,    32.52,    32.68
       73.0,      33.40,    33.23,    35.66,    32.30,    32.43
       74.0,      33.22,    33.06,    35.57,    32.08,    32.17
       75.0,      33.05,    32.89,    35.48,    31.87,    31.93
       76.0,      32.87,    32.73,    35.40,    31.67,    31.69
       77.0,      32.70,    32.58,    35.31,    31.47,    31.45
       78.0,      32.54,    32.42,    35.23,    31.28,    31.22
       79.0,      32.38,    32.28,    35.14,    31.09,    30.99
       80.0,      32.22,    32.13,    35.06,    30.91,    30.77
       81.0,      32.06,    31.99,    34.97,    30.74,    30.55
       82.0,      31.91,    31.85,    34.89,    30.56,    30.34
       83.0,      31.76,    31.72,    34.81,    30.40,    30.13
       84.0,      31.62,    31.59,    34.73,    30.23,    29.92
       85.0,      31.47,    31.47,    34.64,    30.08,    29.72
       86.0,      31.34,    31.34,    34.56,    29.92,    29.52
       87.0,      31.20,    31.22,    34.48,    29.77,    29.32
       88.0,      31.06,    31.11,    34.40,    29.62,    29.13
       89.0,      30.93,    30.99,    34.32,    29.48,    28.94
       90.0,      30.81,    30.88,    34.24,    29.34,    28.76
       91.0,      30.68,    30.77,    34.16,    29.21,    28.58
       92.0,      30.56,    30.66,    34.08,    29.08,    28.40
       93.0,      30.43,    30.56,    34.00,    28.95,    28.22
       94.0,      30.31,    30.46,    33.92,    28.82,    28.05
       95.0,      30.20,    30.36,    33.85,    28.70,    27.88
       96.0,      30.08,    30.26,    33.77,    28.58,    27.72
       97.0,      29.97,    30.17,    33.69,    28.47,    27.56
       98.0,      29.86,    30.07,    33.62,    28.35,    27.40
       99.0,      29.75,    29.98,    33.54,    28.24,    27.24
      100.0,      29.65,    29.89,    33.46,    28.13,    27.09
      101.0,      29.54,    29.81,    33.39,    28.03,    26.94
      102.0,      29.44,    29.72,    33.31,    27.93,    26.79
      103.0,      29.34,    29.64,    33.24,    27.83,    26.64
      104.0,      29.24,    29.55,    33.16,    27.73,    26.50
      105.0,      29.14,    29.47,    33.09,    27.63,    26.36
      106.0,      29.04,    29.39,    33.02,    27.54,    26.22
      107.0,      28.95,    29.32,    32.94,    27.45,    26.09
      108.0,      28.86,    29.24,    32.87,    27.36,    25.96
      109.0,      28.76,    29.16,    32.80,    27.27,    25.83
      110.0,      28.67,    29.09,    32.73,    27.18,    25.70
      111.0,      28.59,    29.02,    32.65,    27.10,    25.57
      112.0,      28.50,    28.95,    32.58,    27.02,    25.45
      113.0,      28.41,    28.87,    32.51,    26.94,    25.33
      114.0,      28.33,    28.81,    32.44,    26.86,    25.21
      115.0,      28.24,    28.74,    32.37,    26.78,    25.09
      116.0,      28.16,    28.67,    32.30,    26.71,    24.97
      117.0,      28.08,    28.60,    32.23,    26.63,    24.86
      118.0,      28.00,    28.54,    32.16,    26.56,    24.75
      119.0,      27.92,    28.47,    32.09,    26.49,    24.64
      120.0,      27.85,    28.41,    32.02,    26.42,    24.53
      121.0,      27.77,    28.35,    31.96,    26.35,    24.43
      122.0,      27.69,    28.28,    31.89,    26.28,    24.32
      123.0,      27.62,    28.22,    31.82,    26.22,    24.22
      124.0,      27.55,    28.16,    31.75,    26.15,    24.12
      125.0,      27.47,    28.10,    31.69,    26.09,    24.02
      126.0,      27.40,    28.04,    31.62,    26.03,    23.92
      127.0,      27.33,    27.98,    31.55,    25.97,    23.83
      128.0,      27.26,    27.93,    31.49,    25.91,    23.73
      129.0,      27.19,    27.87,    31.42,    25.85,    23.64
      130.0,      27.13,    27.81,    31.36,    25.79,    23.55
      131.0,      27.06,    27.76,    31.29,    25.73,    23.46
      132.0,      26.99,    27.70,    31.23,    25.68,    23.37
      133.0,      26.93,    27.65,    31.16,    25.62,    23.28
      134.0,      26.86,    27.59,    31.10,    25.57,    23.20
      135.0,      26.80,    27.54,    31.03,    25.51,    23.11
      136.0,      26.74,    27.49,    30.97,    25.46,    23.03
      137.0,      26.67,    27.43,    30.91,    25.41,    22.95
      138.0,      26.61,    27.38,    30.84,    25.36,    22.87
      139.0,      26.55,    27.33,    30.78,    25.31,    22.79
      140.0,      26.49,    27.28,    30.72,    25.26,    22.71
      141.0,      26.43,    27.23,    30.66,    25.21,    22.63
      142.0,      26.37,    27.17,    30.59,    25.16,    22.56
      143.0,      26.31,    27.12,    30.53,    25.12,    22.48
      144.0,      26.26,    27.07,    30.47,    25.07,    22.41
      145.0,      26.20,    27.02,    30.41,    25.02,    22.34
      146.0,      26.14,    26.98,    30.35,    24.98,    22.27
      147.0,      26.09,    26.93,    30.29,    24.93,    22.20
      148.0,      26.03,    26.88,    30.23,    24.89,    22.13
      149.0,      25.98,    26.83,    30.17,    24.84,    22.06
      150.0,      25.92,    26.78,    30.11,    24.80,    21.99
      151.0,      25.87,    26.73,    30.05,    24.76,    21.93
      152.0,      25.81,    26.69,    29.99,    24.72,    21.86
      153.0,      25.76,    26.64,    29.93,    24.67,    21.80
      154.0,      25.71,    26.59,    29.87,    24.63,    21.73
      155.0,      25.66,    26.55,    29.81,    24.59,    21.67
      156.0,      25.60,    26.50,    29.76,    24.55,    21.61
      157.0,      25.55,    26.45,    29.70,    24.51,    21.55
      158.0,      25.50,    26.41,    29.64,    24.47,    21.49
      159.0,      25.45,    26.36,    29.58,    24.43,    21.43
      160.0,      25.40,    26.32,    29.53,    24.39,    21.37
      161.0,      25.35,    26.27,    29.47,    24.36,    21.31
      162.0,      25.30,    26.23,    29.41,    24.32,    21.26
      163.0,      25.25,    26.18,    29.36,    24.28,    21.20
      164.0,      25.21,    26.14,    29.30,    24.24,    21.14
      165.0,      25.16,    26.09,    29.24,    24.21,    21.09
      166.0,      25.11,    26.05,    29.19,    24.17,    21.04
      167.0,      25.06,    26.00,    29.13,    24.13,    20.98
      168.0,      25.02,    25.96,    29.08,    24.10,    20.93
      169.0,      24.97,    25.92,    29.02,    24.06,    20.88
      170.0,      24.92,    25.87,    28.97,    24.03,    20.83
      171.0,      24.88,    25.83,    28.91,    23.99,    20.78
      172.0,      24.83,    25.79,    28.86,    23.96,    20.73
      173.0,      24.79,    25.74,    28.81,    23.92,    20.68
      174.0,      24.74,    25.70,    28.75,    23.89,    20.63
      175.0,      24.70,    25.66,    28.70,    23.85,    20.58
      176.0,      24.65,    25.62,    28.65,    23.82,    20.53
      177.0,      24.61,    25.57,    28.59,    23.79,    20.49
      178.0,      24.57,    25.53,    28.54,    23.75,    20.44
      179.0,      24.52,    25.49,    28.49,    23.72,    20.39
      180.0,      24.48,    25.45,    28.43,    23.69,    20.35
      181.0,      24.44,    25.41,    28.38,    23.65,    20.30
      182.0,      24.39,    25.36,    28.33,    23.62,    20.26
      183.0,      24.35,    25.32,    28.28,    23.59,    20.22
      184.0,      24.31,    25.28,    28.23,    23.56,    20.17
      185.0,      24.27,    25.24,    28.18,    23.52,    20.13
      186.0,      24.23,    25.20,    28.12,    23.49,    20.09
      187.0,      24.18,    25.16,    28.07,    23.46,    20.05
      188.0,      24.14,    25.12,    28.02,    23.43,    20.00
      189.0,      24.10,    25.08,    27.97,    23.40,    19.96
      190.0,      24.06,    25.04,    27.92,    23.37,    19.92
      191.0,      24.02,    25.00,    27.87,    23.34,    19.88
      192.0,      23.98,    24.96,    27.82,    23.31,    19.84
      193.0,      23.94,    24.91,    27.77,    23.27,    19.80
      194.0,      23.90,    24.87,    27.72,    23.24,    19.76
      195.0,      23.86,    24.83,    27.67,    23.21,    19.72
      196.0,      23.82,    24.79,    27.62,    23.18,    19.69
      197.0,      23.78,    24.75,    27.58,    23.15,    19.65
      198.0,      23.74,    24.71,    27.53,    23.12,    19.61
      199.0,      23.71,    24.67,    27.48,    23.09,    19.57
      200.0,      23.67,    24.63,    27.43,    23.06,    19.54
      201.0,      23.63,    24.60,    27.38,    23.04,    19.50
      202.0,      23.59,    24.56,    27.33,    23.01,    19.46
      203.0,      23.55,    24.52,    27.29,    22.98,    19.43
      204.0,      23.51,    24.48,    27.24,    22.95,    19.39
      205.0,      23.48,    24.44,    27.19,    22.92,    19.36
      206.0,      23.44,    24.40,    27.14,    22.89,    19.32
      207.0,      23.40,    24.36,    27.10,    22.86,    19.29
      208.0,      23.36,    24.32,    27.05,    22.83,    19.26
      209.0,      23.33,    24.28,    27.00,    22.80,    19.22
      210.0,      23.29,    24.24,    26.96,    22.77,    19.19
      211.0,      23.25,    24.20,    26.91,    22.75,    19.15
      212.0,      23.22,    24.17,    26.86,    22.72,    19.12
      213.0,      23.18,    24.13,    26.82,    22.69,    19.09
      214.0,      23.14,    24.09,    26.77,    22.66,    19.06
      215.0,      23.11,    24.05,    26.73,    22.63,    19.02
      216.0,      23.07,    24.01,    26.68,    22.61,    18.99
      217.0,      23.04,    23.97,    26.64,    22.58,    18.96
      218.0,      23.00,    23.94,    26.59,    22.55,    18.93
      219.0,      22.97,    23.90,    26.55,    22.52,    18.90
      220.0,      22.93,    23.86,    26.50,    22.49,    18.87
      221.0,      22.89,    23.82,    26.46,    22.47,    18.84
      222.0,      22.86,    23.78,    26.41,    22.44,    18.81
      223.0,      22.82,    23.75,    26.37,    22.41,    18.77
      224.0,      22.79,    23.71,    26.32,    22.38,    18.74
      225.0,      22.76,    23.67,    26.28,    22.36,    18.71
      226.0,      22.72,    23.63,    26.23,    22.33,    18.69
      227.0,      22.69,    23.60,    26.19,    22.30,    18.66
      228.0,      22.65,    23.56,    26.15,    22.28,    18.63
      229.0,      22.62,    23.52,    26.10,    22.25,    18.60
      230.0,      22.58,    23.48,    26.06,    22.22,    18.57
      231.0,      22.55,    23.45,    26.02,    22.20,    18.54
      232.0,      22.52,    23.41,    25.97,    22.17,    18.51
      233.0,      22.48,    23.37,    25.93,    22.14,    18.48
      234.0,      22.45,    23.33,    25.89,    22.12,    18.46
      235.0,      22.42,    23.30,    25.85,    22.09,    18.43
      236.0,      22.38,    23.26,    25.80,    22.06,    18.40
      237.0,      22.35,    23.22,    25.76,    22.04,    18.37
      238.0,      22.32,    23.19,    25.72,    22.01,    18.34
      239.0,      22.28,    23.15,    25.68,    21.98,    18.32
      240.0,      22.25,    23.11,    25.64,    21.96,    18.29
      241.0,      22.22,    23.08,    25.59,    21.93,    18.26
      242.0,      22.18,    23.04,    25.55,    21.90,    18.24
      243.0,      22.15,    23.00,    25.51,    21.88,    18.21
      244.0,      22.12,    22.97,    25.47,    21.85,    18.18
      245.0,      22.09,    22.93,    25.43,    21.83,    18.16
      246.0,      22.05,    22.89,    25.39,    21.80,    18.13
      247.0,      22.02,    22.86,    25.35,    21.77,    18.10
      248.0,      21.99,    22.82,    25.31,    21.75,    18.08
      249.0,      21.96,    22.79,    25.27,    21.72,    18.05
      250.0,      21.93,    22.75,    25.23,    21.70,    18.03
      251.0,      21.89,    22.71,    25.19,    21.67,    18.00
      252.0,      21.86,    22.68,    25.15,    21.64,    17.98
      253.0,      21.83,    22.64,    25.11,    21.62,    17.95
      254.0,      21.80,    22.61,    25.07,    21.59,    17.93
      255.0,      21.77,    22.57,    25.03,    21.57,    17.90
      256.0,      21.74,    22.54,    24.99,    21.54,    17.88
      257.0,      21.70,    22.50,    24.95,    21.52,    17.85
      258.0,      21.67,    22.46,    24.91,    21.49,    17.83
      259.0,      21.64,    22.43,    24.87,    21.47,    17.80
      260.0,      21.61,    22.39,    24.83,    21.44,    17.78
      261.0,      21.58,    22.36,    24.79,    21.42,    17.75
      262.0,      21.55,    22.32,    24.75,    21.39,    17.73
      263.0,      21.52,    22.29,    24.71,    21.36,    17.71
      264.0,      21.49,    22.25,    24.68,    21.34,    17.68
      265.0,      21.46,    22.22,    24.64,    21.31,    17.66
      266.0,      21.43,    22.18,    24.60,    21.29,    17.63
      267.0,      21.40,    22.15,    24.56,    21.26,    17.61
      268.0,      21.37,    22.11,    24.52,    21.24,    17.59
      269.0,      21.33,    22.08,    24.48,    21.21,    17.56
      270.0,      21.30,    22.04,    24.45,    21.19,    17.54
      271.0,      21.27,    22.01,    24.41,    21.16,    17.52
      272.0,      21.24,    21.97,    24.37,    21.14,    17.49
      273.0,      21.21,    21.94,    24.33,    21.11,    17.47
      274.0,      21.18,    21.90,    24.30,    21.09,    17.45
      275.0,      21.15,    21.87,    24.26,    21.06,    17.43
      276.0,      21.12,    21.83,    24.22,    21.04,    17.40
      277.0,      21.09,    21.80,    24.18,    21.02,    17.38
      278.0,      21.07,    21.77,    24.15,    20.99,    17.36
      279.0,      21.04,    21.73,    24.11,    20.97,    17.33
      280.0,      21.01,    21.70,    24.07,    20.94,    17.31
      281.0,      20.98,    21.66,    24.04,    20.92,    17.29
      282.0,      20.95,    21.63,    24.00,    20.89,    17.27
      283.0,      20.92,    21.59,    23.96,    20.87,    17.25
      284.0,      20.89,    21.56,    23.93,    20.84,    17.22
      285.0,      20.86,    21.53,    23.89,    20.82,    17.20
      286.0,      20.83,    21.49,    23.86,    20.79,    17.18
      287.0,      20.80,    21.46,    23.82,    20.77,    17.16
      288.0,      20.77,    21.42,    23.78,    20.75,    17.14
      289.0,      20.74,    21.39,    23.75,    20.72,    17.11
      290.0,      20.71,    21.36,    23.71,    20.70,    17.09
      291.0,      20.69,    21.32,    23.68,    20.67,    17.07
      292.0,      20.66,    21.29,    23.64,    20.65,    17.05
      293.0,      20.63,    21.26,    23.61,    20.62,    17.03
      294.0,      20.60,    21.22,    23.57,    20.60,    17.01
      295.0,      20.57,    21.19,    23.54,    20.58,    16.98
      296.0,      20.54,    21.16,    23.50,    20.55,    16.96
      297.0,      20.51,    21.12,    23.47,    20.53,    16.94
      298.0,      20.49,    21.09,    23.43,    20.50,    16.92
      299.0,      20.46,    21.06,    23.40,    20.48,    16.90
      300.0,      20.43,    21.02,    23.36,    20.46,    16.88
      301.0,      20.40,    20.99,    23.33,    20.43,    16.86
      302.0,      20.37,    20.96,    23.29,    20.41,    16.84
      303.0,      20.35,    20.92,    23.26,    20.39,    16.82
      304.0,      20.32,    20.89,    23.23,    20.36,    16.79
      305.0,      20.29,    20.86,    23.19,    20.34,    16.77
      306.0,      20.26,    20.82,    23.16,    20.31,    16.75
      307.0,      20.23,    20.79,    23.12,    20.29,    16.73
      308.0,      20.21,    20.76,    23.09,    20.27,    16.71
      309.0,      20.18,    20.73,    23.06,    20.24,    16.69
      310.0,      20.15,    20.69,    23.02,    20.22,    16.67
