Radius (km), Mean (m/s), NE (m/s), SE (m/s), SW (m/s), NW (m/s)
        0.0,       0.00,     0.00,     0.00,     0.00,     0.00
        1.0,       1.84,     1.44,     1.83,     2.25,     1.83
        2.0,       3.57,     3.07,     3.59,     4.04,     3.59
        3.0,       5.28,     4.79,     5.31,     5.69,     5.31
        4.0,       6.96,     6.56,     7.02,     7.26,     7.02
        5.0,       8.64,     8.37,     8.72,     8.76,     8.72
        6.0,      10.31,    10.21,    10.40,    10.22,    10.40
        7.0,      11.97,    12.09,    12.08,    11.64,    12.08
        8.0,      13.63,    13.99,    13.74,    13.02,    13.74
        9.0,      15.28,    15.91,    15.40,    14.39,    15.40
       10.0,      16.92,    17.85,    17.06,    15.72,    17.06
       11.0,      18.57,    19.81,    18.71,    17.04,    18.71
       12.0,      20.23,    21.80,    20.38,    18.35,    20.38
       13.0,      21.94,    23.85,    22.12,    19.69,    22.12
       14.0,      23.79,    26.04,    24.00,    21.10,    24.00
       15.0,      25.82,    28.48,    26.10,    22.64,    26.08
       16.0,      28.09,    31.22,    28.46,    24.32,    28.39
       17.0,      30.59,    34.27,    31.05,    26.14,    30.90
       18.0,      33.26,    37.59,    33.81,    28.06,    33.56
       19.0,      35.98,    41.04,    36.62,    30.01,    36.25
       20.0,      38.63,    44.46,    39.32,    31.90,    38.83
       21.0,      41.06,    47.66,    41.77,    33.62,    41.18
       22.0,      43.13,    50.44,    43.82,    35.09,    43.17
       23.0,      44.74,    52.65,    45.37,    36.24,    44.71
       24.0,      45.85,    54.21,    46.38,    37.04,    45.76
       25.0,      46.44,    55.10,    46.84,    37.49,    46.32
       26.0,      46.56,    55.35,    46.83,    37.62,    46.46
       27.0,      46.30,    55.06,    46.42,    37.49,    46.24
       28.0,      45.76,    54.37,    45.73,    37.17,    45.78
       29.0,      45.06,    53.44,    44.89,    36.73,    45.18
       30.0,      44.28,    52.38,    43.98,    36.25,    44.52
       31.0,      43.50,    51.31,    43.07,    35.76,    43.85
       32.0,      42.74,    50.28,    42.20,    35.28,    43.21
       33.0,      42.03,    49.32,    41.37,    34.83,    42.59
       34.0,      41.35,    48.42,    40.58,    34.39,    42.00
       35.0,      40.69,    47.56,    39.82,    33.96,    41.42
       36.0,      40.05,    46.73,    39.08,    33.54,    40.85
       37.0,      39.43,    45.93,    38.36,    33.13,    40.29
       38.0,      38.82,    45.16,    37.66,    32.72,    39.75
       39.0,      38.24,    44.42,    36.98,    32.32,    39.22
       40.0,      37.66,    43.71,    36.32,    31.93,    38.69
       41.0,      37.11,    43.01,    35.69,    31.55,    38.18
       42.0,      36.57,    42.35,    35.07,    31.17,    37.69
       43.0,      36.04,    41.71,    34.47,    30.81,    37.20
       44.0,      35.53,    41.09,    33.89,    30.45,    36.72
       45.0,      35.04,    40.49,    33.32,    30.09,    36.25
       46.0,      34.56,    39.91,    32.77,    29.74,    35.79
       47.0,      34.09,    39.36,    32.24,    29.40,    35.34
       48.0,      33.63,    38.82,    31.73,    29.07,    34.90
       49.0,      33.18,    38.30,    31.22,    28.74,    34.47
       50.0,      32.75,    37.80,    30.74,    28.41,    34.05
       51.0,      32.33,    37.32,    30.27,    28.10,    33.64
       52.0,      31.92,    36.85,    29.81,    27.79,    33.24
       53.0,      31.52,    36.40,    29.37,    27.48,    32.84
       54.0,      31.13,    35.97,    28.94,    27.18,    32.45
       55.0,      30.76,    35.54,    28.52,    26.89,    32.08
       56.0,      30.39,    35.14,    28.11,    26.60,    31.71
       57.0,      30.03,    34.74,    27.72,    26.32,    31.34
       58.0,      29.68,    34.36,    27.34,    26.04,    30.99
       59.0,      29.34,    34.00,    26.96,    25.77,    30.64
       60.0,      29.01,    33.64,    26.60,    25.50,    30.30
       61.0,      28.69,    33.30,    26.25,    25.24,    29.97
       62.0,      28.37,    32.96,    25.91,    24.98,    29.64
       63.0,      28.07,    32.64,    25.58,    24.73,    29.32
       64.0,      27.77,    32.33,    25.26,    24.48,    29.01
       65.0,      27.48,    32.03,    24.95,    24.24,    28.70
       66.0,      27.20,    31.73,    24.65,    24.00,    28.40
       67.0,      26.92,    31.45,    24.36,    23.76,    28.11
       68.0,      26.65,    31.18,    24.08,    23.53,    27.82
       69.0,      26.39,    30.91,    23.80,    23.31,    27.54
       70.0,      26.13,    30.65,    23.53,    23.09,    27.26
       71.0,      25.88,    30.40,    23.27,    22.87,    26.99
       72.0,      25.64,    30.16,    23.02,    22.66,    26.72
       73.0,      25.40,    29.92,    22.77,    22.45,    26.46
       74.0,      25.17,    29.69,    22.53,    22.24,    26.21
       75.0,      24.94,    29.47,    22.30,    22.04,    25.96
       76.0,      24.72,    29.26,    22.08,    21.84,    25.72
       77.0,      24.51,    29.05,    21.86,    21.65,    25.48
       78.0,      24.30,    28.84,    21.64,    21.45,    25.25
       79.0,      24.09,    28.64,    21.44,    21.27,    25.02
       80.0,      23.89,    28.45,    21.24,    21.08,    24.79
       81.0,      23.69,    28.26,    21.04,    20.90,    24.57
       82.0,      23.50,    28.08,    20.85,    20.72,    24.36
       83.0,      23.32,    27.91,    20.67,    20.55,    24.15
       84.0,      23.13,    27.73,    20.49,    20.38,    23.94
       85.0,      22.96,    27.57,    20.31,    20.21,    23.74
       86.0,      22.78,    27.40,    20.14,    20.04,    23.54
       87.0,      22.61,    27.24,    19.98,    19.88,    23.34
       88.0,      22.45,    27.09,    19.82,    19.72,    23.15
       89.0,      22.28,    26.94,    19.66,    19.57,    22.97
       90.0,      22.12,    26.79,    19.51,    19.41,    22.79
       91.0,      21.97,    26.64,    19.36,    19.26,    22.61
       92.0,      21.82,    26.50,    19.22,    19.11,    22.43
       93.0,      21.67,    26.37,    19.08,    18.97,    22.26
       94.0,      21.52,    26.23,    18.95,    18.83,    22.09
       95.0,      21.38,    26.10,    18.81,    18.69,    21.92
       96.0,      21.24,    25.97,    18.69,    18.55,    21.76
       97.0,      21.11,    25.85,    18.56,    18.41,    21.60
       98.0,      20.97,    25.72,    18.44,    18.28,    21.45
       99.0,      20.84,    25.60,    18.32,    18.15,    21.30
      100.0,      20.72,    25.49,    18.21,    18.02,    21.15
      101.0,      20.59,    25.37,    18.09,    17.90,    21.00
      102.0,      20.47,    25.26,    17.99,    17.77,    20.86
      103.0,      20.35,    25.15,    17.88,    17.65,    20.72
      104.0,      20.23,    25.04,    17.78,    17.53,    20.58
      105.0,      20.12,    24.93,    17.67,    17.41,    20.44
      106.0,      20.00,    24.83,    17.58,    17.30,    20.31
      107.0,      19.89,    24.73,    17.48,    17.19,    20.18
      108.0,      19.79,    24.63,    17.39,    17.07,    20.05
      109.0,      19.68,    24.53,    17.30,    16.97,    19.93
      110.0,      19.58,    24.43,    17.21,    16.86,    19.80
      111.0,      19.47,    24.34,    17.12,    16.75,    19.68
      112.0,      19.37,    24.24,    17.04,    16.65,    19.57
      113.0,      19.28,    24.15,    16.96,    16.55,    19.45
      114.0,      19.18,    24.06,    16.88,    16.45,    19.34
      115.0,      19.09,    23.97,    16.80,    16.35,    19.22
      116.0,      18.99,    23.89,    16.72,    16.25,    19.12
      117.0,      18.90,    23.80,    16.65,    16.16,    19.01
      118.0,      18.81,    23.72,    16.58,    16.06,    18.90
      119.0,      18.73,    23.63,    16.50,    15.97,    18.80
      120.0,      18.64,    23.55,    16.44,    15.88,    18.70
      121.0,      18.56,    23.47,    16.37,    15.79,    18.60
      122.0,      18.47,    23.39,    16.30,    15.71,    18.50
      123.0,      18.39,    23.31,    16.24,    15.62,    18.41
      124.0,      18.31,    23.23,    16.18,    15.54,    18.31
      125.0,      18.24,    23.16,    16.11,    15.45,    18.22
      126.0,      18.16,    23.08,    16.05,    15.37,    18.13
      127.0,      18.08,    23.00,    16.00,    15.29,    18.04
      128.0,      18.01,    22.93,    15.94,    15.21,    17.95
      129.0,      17.94,    22.86,    15.88,    15.13,    17.87
      130.0,      17.86,    22.79,    15.83,    15.06,    17.79
      131.0,      17.79,    22.71,    15.77,    14.98,    17.70
      132.0,      17.72,    22.64,    15.72,    14.91,    17.62
      133.0,      17.66,    22.57,    15.67,    14.84,    17.54
      134.0,      17.59,    22.50,    15.62,    14.77,    17.46
      135.0,      17.52,    22.44,    15.57,    14.70,    17.39
      136.0,      17.46,    22.37,    15.52,    14.63,    17.31
      137.0,      17.39,    22.30,    15.48,    14.56,    17.24
      138.0,      17.33,    22.24,    15.43,    14.49,    17.17
      139.0,      17.27,    22.17,    15.39,    14.43,    17.09
      140.0,      17.21,    22.10,    15.34,    14.36,    17.02
      141.0,      17.15,    22.04,    15.30,    14.30,    16.96
      142.0,      17.09,    21.98,    15.26,    14.24,    16.89
      143.0,      17.03,    21.91,    15.22,    14.18,    16.82
      144.0,      16.97,    21.85,    15.18,    14.11,    16.76
      145.0,      16.92,    21.79,    15.14,    14.06,    16.69
      146.0,      16.86,    21.73,    15.10,    14.00,    16.63
      147.0,      16.81,    21.66,    15.06,    13.94,    16.57
      148.0,      16.75,    21.60,    15.02,    13.88,    16.51
      149.0,      16.70,    21.54,    14.98,    13.83,    16.45
      150.0,      16.65,    21.48,    14.95,    13.77,    16.39
      151.0,      16.60,    21.42,    14.91,    13.72,    16.33
      152.0,      16.54,    21.36,    14.88,    13.66,    16.27
      153.0,      16.49,    21.31,    14.84,    13.61,    16.22
      154.0,      16.44,    21.25,    14.81,    13.56,    16.16
      155.0,      16.40,    21.19,    14.77,    13.51,    16.11
      156.0,      16.35,    21.13,    14.74,    13.46,    16.05
      157.0,      16.30,    21.08,    14.71,    13.41,    16.00
      158.0,      16.25,    21.02,    14.68,    13.36,    15.95
      159.0,      16.21,    20.96,    14.65,    13.31,    15.90
      160.0,      16.16,    20.91,    14.62,    13.27,    15.85
      161.0,      16.11,    20.85,    14.59,    13.22,    15.80
      162.0,      16.07,    20.80,    14.56,    13.17,    15.75
      163.0,      16.03,    20.74,    14.53,    13.13,    15.70
      164.0,      15.98,    20.69,    14.50,    13.08,    15.66
      165.0,      15.94,    20.63,    14.47,    13.04,    15.61
      166.0,      15.90,    20.58,    14.44,    13.00,    15.56
      167.0,      15.85,    20.52,    14.42,    12.95,    15.52
      168.0,      15.81,    20.47,    14.39,    12.91,    15.48
      169.0,      15.77,    20.42,    14.36,    12.87,    15.43
      170.0,      15.73,    20.36,    14.34,    12.83,    15.39
      171.0,      15.69,    20.31,    14.31,    12.79,    15.35
      172.0,      15.65,    20.26,    14.28,    12.75,    15.31
      173.0,      15.61,    20.21,    14.26,    12.71,    15.27
      174.0,      15.57,    20.15,    14.23,    12.67,    15.22
      175.0,      15.53,    20.10,    14.21,    12.64,    15.19
      176.0,      15.50,    20.05,    14.19,    12.60,    15.15
      177.0,      15.46,    20.00,    14.16,    12.56,    15.11
      178.0,      15.42,    19.95,    14.14,    12.53,    15.07
      179.0,      15.38,    19.90,    14.11,    12.49,    15.03
      180.0,      15.35,    19.85,    14.09,    12.45,    15.00
      181.0,      15.31,    19.80,    14.07,    12.42,    14.96
      182.0,      15.27,    19.75,    14.05,    12.39,    14.92
      183.0,      15.24,    19.70,    14.02,    12.35,    14.89
      184.0,      15.20,    19.65,    14.00,    12.32,    14.85
      185.0,      15.17,    19.60,    13.98,    12.28,    14.82
      186.0,      15.14,    19.55,    13.96,    12.25,    14.78
      187.0,      15.10,    19.50,    13.94,    12.22,    14.75
      188.0,      15.07,    19.45,    13.91,    12.19,    14.72
      189.0,      15.03,    19.40,    13.89,    12.16,    14.68
      190.0,      15.00,    19.35,    13.87,    12.13,    14.65
      191.0,      14.97,    19.30,    13.85,    12.10,    14.62
      192.0,      14.94,    19.25,    13.83,    12.07,    14.59
      193.0,      14.90,    19.21,    13.81,    12.04,    14.56
      194.0,      14.87,    19.16,    13.79,    12.01,    14.53
      195.0,      14.84,    19.11,    13.77,    11.98,    14.50
      196.0,      14.81,    19.06,    13.75,    11.95,    14.47
      197.0,      14.78,    19.01,    13.73,    11.92,    14.44
      198.0,      14.75,    18.97,    13.71,    11.89,    14.41
      199.0,      14.71,    18.92,    13.69,    11.86,    14.38
      200.0,      14.68,    18.87,    13.68,    11.84,    14.35
      201.0,      14.65,    18.83,    13.66,    11.81,    14.32
      202.0,      14.62,    18.78,    13.64,    11.78,    14.30
      203.0,      14.59,    18.73,    13.62,    11.76,    14.27
      204.0,      14.56,    18.69,    13.60,    11.73,    14.24
      205.0,      14.54,    18.64,    13.58,    11.71,    14.21
      206.0,      14.51,    18.59,    13.56,    11.68,    14.19
      207.0,      14.48,    18.55,    13.55,    11.66,    14.16
      208.0,      14.45,    18.50,    13.53,    11.63,    14.14
      209.0,      14.42,    18.46,    13.51,    11.61,    14.11
      210.0,      14.39,    18.41,    13.49,    11.58,    14.08
      211.0,      14.36,    18.37,    13.48,    11.56,    14.06
      212.0,      14.34,    18.32,    13.46,    11.53,    14.03
      213.0,      14.31,    18.27,    13.44,    11.51,    14.01
      214.0,      14.28,    18.23,    13.42,    11.49,    13.99
      215.0,      14.25,    18.19,    13.41,    11.46,    13.96
      216.0,      14.23,    18.14,    13.39,    11.44,    13.94
      217.0,      14.20,    18.10,    13.37,    11.42,    13.91
      218.0,      14.17,    18.05,    13.35,    11.40,    13.89
      219.0,      14.15,    18.01,    13.34,    11.37,    13.87
      220.0,      14.12,    17.96,    13.32,    11.35,    13.84
      221.0,      14.09,    17.92,    13.30,    11.33,    13.82
      222.0,      14.07,    17.87,    13.29,    11.31,    13.80
      223.0,      14.04,    17.83,    13.27,    11.29,    13.78
      224.0,      14.02,    17.79,    13.26,    11.27,    13.75
      225.0,      13.99,    17.74,    13.24,    11.25,    13.73
      226.0,      13.97,    17.70,    13.22,    11.23,    13.71
      227.0,      13.94,    17.66,    13.21,    11.21,    13.69
      228.0,      13.91,    17.61,    13.19,    11.19,    13.67
      229.0,      13.89,    17.57,    13.18,    11.17,    13.65
      230.0,      13.86,    17.53,    13.16,    11.15,    13.63
      231.0,      13.84,    17.48,    13.14,    11.13,    13.61
      232.0,      13.82,    17.44,    13.13,    11.11,    13.59
      233.0,      13.79,    17.40,    13.11,    11.09,    13.56
      234.0,      13.77,    17.36,    13.10,    11.07,    13.54
      235.0,      13.74,    17.31,    13.08,    11.05,    13.52
      236.0,      13.72,    17.27,    13.07,    11.03,    13.50
      237.0,      13.69,    17.23,    13.05,    11.01,    13.48
      238.0,      13.67,    17.19,    13.03,    11.00,    13.47
      239.0,      13.65,    17.14,    13.02,    10.98,    13.45
      240.0,      13.62,    17.10,    13.00,    10.96,    13.43
      241.0,      13.60,    17.06,    12.99,    10.94,    13.41
      242.0,      13.58,    17.02,    12.97,    10.92,    13.39
      243.0,      13.55,    16.98,    12.96,    10.91,    13.37
      244.0,      13.53,    16.94,    12.94,    10.89,    13.35
      245.0,      13.51,    16.89,    12.93,    10.87,    13.33
      246.0,      13.48,    16.85,    12.91,    10.85,    13.31
      247.0,      13.46,    16.81,    12.90,    10.84,    13.30
      248.0,      13.44,    16.77,    12.88,    10.82,    13.28
      249.0,      13.42,    16.73,    12.87,    10.80,    13.26
      250.0,      13.39,    16.69,    12.85,    10.79,    13.24
      251.0,      13.37,    16.65,    12.84,    10.77,    13.22
      252.0,      13.35,    16.61,    12.82,    10.75,    13.21
      253.0,      13.33,    16.57,    12.81,    10.74,    13.19
      254.0,      13.30,    16.53,    12.80,    10.72,    13.17
      255.0,      13.28,    16.49,    12.78,    10.71,    13.15
      256.0,      13.26,    16.45,    12.77,    10.69,    13.14
      257.0,      13.24,    16.41,    12.75,    10.67,    13.12
      258.0,      13.22,    16.37,    12.74,    10.66,    13.10
      259.0,      13.19,    16.33,    12.72,    10.64,    13.09
      260.0,      13.17,    16.29,    12.71,    10.63,    13.07
      261.0,      13.15,    16.25,    12.69,    10.61,    13.05
      262.0,      13.13,    16.21,    12.68,    10.60,    13.04
      263.0,      13.11,    16.17,    12.67,    10.58,    13.02
      264.0,      13.09,    16.13,    12.65,    10.57,    13.00
      265.0,      13.07,    16.09,    12.64,    10.55,    12.99
      266.0,      13.04,    16.05,    12.62,    10.54,    12.97
      267.0,      13.02,    16.01,    12.61,    10.52,    12.95
      268.0,      13.00,    15.97,    12.59,    10.51,    12.94
      269.0,      12.98,    15.93,    12.58,    10.49,    12.92
      270.0,      12.96,    15.89,    12.57,    10.48,    12.91
      271.0,      12.94,    15.85,    12.55,    10.47,    12.89
      272.0,      12.92,    15.82,    12.54,    10.45,    12.87
      273.0,      12.90,    15.78,    12.52,    10.44,    12.86
      274.0,      12.88,    15.74,    12.51,    10.42,    12.84
      275.0,      12.86,    15.70,    12.50,    10.41,    12.83
      276.0,      12.84,    15.66,    12.48,    10.40,    12.81
      277.0,      12.82,    15.62,    12.47,    10.38,    12.80
      278.0,      12.80,    15.59,    12.45,    10.37,    12.78
      279.0,      12.78,    15.55,    12.44,    10.35,    12.77
      280.0,      12.76,    15.51,    12.43,    10.34,    12.75
      281.0,      12.74,    15.47,    12.41,    10.33,    12.74
      282.0,      12.72,    15.43,    12.40,    10.31,    12.72
      283.0,      12.70,    15.40,    12.39,    10.30,    12.71
      284.0,      12.68,    15.36,    12.37,    10.29,    12.69
      285.0,      12.66,    15.32,    12.36,    10.27,    12.68
      286.0,      12.64,    15.28,    12.34,    10.26,    12.66
      287.0,      12.62,    15.25,    12.33,    10.25,    12.65
      288.0,      12.60,    15.21,    12.32,    10.24,    12.63
      289.0,      12.58,    15.17,    12.30,    10.22,    12.62
      290.0,      12.56,    15.14,    12.29,    10.21,    12.60
      291.0,      12.54,    15.10,    12.28,    10.20,    12.59
      292.0,      12.52,    15.06,    12.26,    10.18,    12.57
      293.0,      12.50,    15.03,    12.25,    10.17,    12.56
      294.0,      12.48,    14.99,    12.24,    10.16,    12.54
      295.0,      12.46,    14.95,    12.22,    10.15,    12.53
      296.0,      12.44,    14.92,    12.21,    10.13,    12.52
      297.0,      12.43,    14.88,    12.20,    10.12,    12.50
      298.0,      12.41,    14.84,    12.18,    10.11,    12.49
      299.0,      12.39,    14.81,    12.17,    10.10,    12.47
      300.0,      12.37,    14.77,    12.16,    10.08,    12.46
      301.0,      12.35,    14.74,    12.14,    10.07,    12.45
      302.0,      12.33,    14.70,    12.13,    10.06,    12.43
      303.0,      12.31,    14.66,    12.12,    10.05,    12.42
      304.0,      12.29,    14.63,    12.10,    10.04,    12.40
      305.0,      12.27,    14.59,    12.09,    10.02,    12.39
      306.0,      12.26,    14.56,    12.08,    10.01,    12.38
      307.0,      12.24,    14.52,    12.06,    10.00,    12.36
      308.0,      12.22,    14.49,    12.05,     9.99,    12.35
      309.0,      12.20,    14.45,    12.04,     9.98,    12.34
      310.0,      12.18,    14.42,    12.02,     9.96,    12.32
