Radius (km), Mean (m/s), NE (m/s), SE (m/s), SW (m/s), NW (m/s)
        0.0,       0.00,     0.00,     0.00,     0.00,     0.00
        1.0,       1.48,     1.12,     1.25,     1.87,     1.70
        2.0,       3.13,     2.60,     2.81,     3.66,     3.45
        3.0,       4.85,     4.26,     4.51,     5.42,     5.21
        4.0,       6.63,     6.05,     6.31,     7.17,     6.99
        5.0,       8.45,     7.94,     8.18,     8.90,     8.77
        6.0,      10.30,     9.92,    10.13,    10.61,    10.56
        7.0,      12.19,    11.97,    12.13,    12.32,    12.35
        8.0,      14.11,    14.08,    14.18,    14.02,    14.15
        9.0,      16.05,    16.26,    16.27,    15.72,    15.96
       10.0,      18.01,    18.48,    18.40,    17.41,    17.77
       11.0,      20.00,    20.76,    20.57,    19.09,    19.58
       12.0,      22.01,    23.09,    22.78,    20.77,    21.39
       13.0,      24.08,    25.52,    25.11,    22.45,    23.22
       14.0,      26.27,    28.15,    27.64,    24.19,    25.11
       15.0,      28.69,    31.08,    30.50,    26.04,    27.13
       16.0,      31.39,    34.38,    33.75,    28.09,    29.36
       17.0,      34.41,    38.07,    37.38,    30.35,    31.82
       18.0,      37.69,    42.10,    41.33,    32.84,    34.51
       19.0,      41.14,    46.31,    45.43,    35.47,    37.35
       20.0,      44.59,    50.51,    49.47,    38.14,    40.24
       21.0,      47.85,    54.46,    53.21,    40.69,    43.02
       22.0,      50.73,    57.96,    56.43,    42.98,    45.53
       23.0,      53.07,    60.81,    58.96,    44.87,    47.63
       24.0,      54.77,    62.90,    60.70,    46.26,    49.21
       25.0,      55.79,    64.20,    61.64,    47.11,    50.23
       26.0,      56.16,    64.73,    61.82,    47.41,    50.68
       27.0,      55.97,    64.63,    61.39,    47.23,    50.62
       28.0,      55.34,    64.03,    60.49,    46.67,    50.17
       29.0,      54.43,    63.12,    59.32,    45.85,    49.43
       30.0,      53.38,    62.05,    58.03,    44.89,    48.54
       31.0,      52.29,    60.95,    56.73,    43.88,    47.59
       32.0,      51.23,    59.88,    55.49,    42.90,    46.66
       33.0,      50.24,    58.88,    54.32,    41.98,    45.79
       34.0,      49.31,    57.93,    53.22,    41.13,    44.97
       35.0,      48.43,    57.02,    52.16,    40.33,    44.20
       36.0,      47.57,    56.13,    51.14,    39.56,    43.45
       37.0,      46.74,    55.26,    50.16,    38.81,    42.72
       38.0,      45.94,    54.42,    49.21,    38.10,    42.02
       39.0,      45.16,    53.60,    48.30,    37.41,    41.33
       40.0,      44.40,    52.80,    47.41,    36.74,    40.66
       41.0,      43.67,    52.02,    46.56,    36.10,    40.01
       42.0,      42.97,    51.27,    45.74,    35.48,    39.38
       43.0,      42.28,    50.53,    44.95,    34.88,    38.77
       44.0,      41.62,    49.81,    44.18,    34.31,    38.17
       45.0,      40.97,    49.11,    43.45,    33.75,    37.60
       46.0,      40.35,    48.43,    42.73,    33.21,    37.03
       47.0,      39.75,    47.76,    42.04,    32.69,    36.49
       48.0,      39.16,    47.12,    41.38,    32.19,    35.95
       49.0,      38.59,    46.49,    40.74,    31.71,    35.44
       50.0,      38.04,    45.87,    40.12,    31.24,    34.93
       51.0,      37.51,    45.27,    39.52,    30.79,    34.44
       52.0,      36.99,    44.69,    38.95,    30.36,    33.97
       53.0,      36.49,    44.12,    38.39,    29.94,    33.50
       54.0,      36.00,    43.57,    37.85,    29.53,    33.05
       55.0,      35.53,    43.03,    37.33,    29.14,    32.61
       56.0,      35.07,    42.50,    36.83,    28.76,    32.19
       57.0,      34.62,    41.99,    36.34,    28.39,    31.77
       58.0,      34.19,    41.49,    35.87,    28.04,    31.37
       59.0,      33.77,    41.00,    35.42,    27.69,    30.98
       60.0,      33.37,    40.53,    34.98,    27.36,    30.59
       61.0,      32.97,    40.06,    34.56,    27.04,    30.22
       62.0,      32.59,    39.61,    34.15,    26.73,    29.86
       63.0,      32.21,    39.17,    33.75,    26.43,    29.50
       64.0,      31.85,    38.74,    33.37,    26.14,    29.16
       65.0,      31.50,    38.32,    33.00,    25.85,    28.82
       66.0,      31.16,    37.91,    32.64,    25.58,    28.50
       67.0,      30.83,    37.52,    32.29,    25.32,    28.18
       68.0,      30.50,    37.13,    31.95,    25.06,    27.87
       69.0,      30.19,    36.75,    31.63,    24.81,    27.57
       70.0,      29.88,    36.38,    31.32,    24.57,    27.27
       71.0,      29.59,    36.01,    31.01,    24.33,    26.99
       72.0,      29.30,    35.66,    30.72,    24.11,    26.71
       73.0,      29.02,    35.32,    30.43,    23.89,    26.43
       74.0,      28.74,    34.98,    30.15,    23.67,    26.17
       75.0,      28.48,    34.65,    29.89,    23.46,    25.91
       76.0,      28.22,    34.33,    29.63,    23.26,    25.65
       77.0,      27.97,    34.02,    29.37,    23.07,    25.41
       78.0,      27.72,    33.71,    29.13,    22.88,    25.17
       79.0,      27.48,    33.41,    28.89,    22.69,    24.93
       80.0,      27.25,    33.12,    28.66,    22.51,    24.70
       81.0,      27.02,    32.84,    28.44,    22.33,    24.48
       82.0,      26.80,    32.56,    28.23,    22.16,    24.26
       83.0,      26.59,    32.29,    28.02,    22.00,    24.05
       84.0,      26.38,    32.02,    27.81,    21.84,    23.84
       85.0,      26.17,    31.76,    27.61,    21.68,    23.64
       86.0,      25.97,    31.51,    27.42,    21.53,    23.44
       87.0,      25.78,    31.26,    27.24,    21.38,    23.24
       88.0,      25.59,    31.02,    27.06,    21.23,    23.05
       89.0,      25.40,    30.78,    26.88,    21.09,    22.87
       90.0,      25.22,    30.55,    26.71,    20.95,    22.69
       91.0,      25.05,    30.32,    26.54,    20.81,    22.51
       92.0,      24.87,    30.10,    26.38,    20.68,    22.34
       93.0,      24.71,    29.88,    26.22,    20.55,    22.17
       94.0,      24.54,    29.67,    26.07,    20.43,    22.00
       95.0,      24.38,    29.46,    25.92,    20.30,    21.84
       96.0,      24.22,    29.25,    25.78,    20.18,    21.68
       97.0,      24.07,    29.05,    25.64,    20.07,    21.52
       98.0,      23.92,    28.86,    25.50,    19.95,    21.37
       99.0,      23.77,    28.67,    25.36,    19.84,    21.22
      100.0,      23.63,    28.48,    25.23,    19.73,    21.08
      101.0,      23.49,    28.30,    25.11,    19.62,    20.94
      102.0,      23.35,    28.12,    24.98,    19.51,    20.80
      103.0,      23.22,    27.94,    24.86,    19.41,    20.66
      104.0,      23.09,    27.77,    24.74,    19.31,    20.52
      105.0,      22.96,    27.60,    24.63,    19.21,    20.39
      106.0,      22.83,    27.43,    24.51,    19.11,    20.26
      107.0,      22.71,    27.27,    24.40,    19.02,    20.14
      108.0,      22.59,    27.11,    24.30,    18.92,    20.01
      109.0,      22.47,    26.96,    24.19,    18.83,    19.89
      110.0,      22.35,    26.80,    24.09,    18.74,    19.77
      111.0,      22.24,    26.65,    23.99,    18.65,    19.66
      112.0,      22.13,    26.51,    23.89,    18.56,    19.54
      113.0,      22.02,    26.36,    23.79,    18.48,    19.43
      114.0,      21.91,    26.22,    23.70,    18.39,    19.32
      115.0,      21.80,    26.08,    23.61,    18.31,    19.21
      116.0,      21.70,    25.94,    23.52,    18.23,    19.10
      117.0,      21.60,    25.81,    23.43,    18.15,    19.00
      118.0,      21.49,    25.68,    23.34,    18.07,    18.89
      119.0,      21.40,    25.55,    23.26,    17.99,    18.79
      120.0,      21.30,    25.42,    23.17,    17.91,    18.69
      121.0,      21.20,    25.29,    23.09,    17.84,    18.60
      122.0,      21.11,    25.17,    23.01,    17.76,    18.50
      123.0,      21.02,    25.05,    22.93,    17.69,    18.40
      124.0,      20.93,    24.93,    22.86,    17.61,    18.31
      125.0,      20.84,    24.81,    22.78,    17.54,    18.22
      126.0,      20.75,    24.70,    22.71,    17.47,    18.13
      127.0,      20.66,    24.59,    22.63,    17.40,    18.04
      128.0,      20.58,    24.47,    22.56,    17.33,    17.95
      129.0,      20.50,    24.36,    22.49,    17.26,    17.87
      130.0,      20.41,    24.26,    22.42,    17.20,    17.78
      131.0,      20.33,    24.15,    22.35,    17.13,    17.70
      132.0,      20.25,    24.05,    22.28,    17.07,    17.62
      133.0,      20.17,    23.94,    22.22,    17.00,    17.53
      134.0,      20.10,    23.84,    22.15,    16.94,    17.45
      135.0,      20.02,    23.74,    22.09,    16.87,    17.38
      136.0,      19.94,    23.64,    22.02,    16.81,    17.30
      137.0,      19.87,    23.55,    21.96,    16.75,    17.22
      138.0,      19.79,    23.45,    21.90,    16.68,    17.14
      139.0,      19.72,    23.36,    21.84,    16.62,    17.07
      140.0,      19.65,    23.27,    21.78,    16.56,    17.00
      141.0,      19.58,    23.17,    21.72,    16.50,    16.92
      142.0,      19.51,    23.08,    21.66,    16.44,    16.85
      143.0,      19.44,    23.00,    21.60,    16.39,    16.78
      144.0,      19.37,    22.91,    21.54,    16.33,    16.71
      145.0,      19.30,    22.82,    21.48,    16.27,    16.64
      146.0,      19.24,    22.74,    21.43,    16.21,    16.57
      147.0,      19.17,    22.65,    21.37,    16.16,    16.51
      148.0,      19.11,    22.57,    21.32,    16.10,    16.44
      149.0,      19.04,    22.49,    21.26,    16.04,    16.37
      150.0,      18.98,    22.41,    21.21,    15.99,    16.31
      151.0,      18.91,    22.33,    21.16,    15.93,    16.24
      152.0,      18.85,    22.25,    21.10,    15.88,    16.18
      153.0,      18.79,    22.17,    21.05,    15.82,    16.12
      154.0,      18.73,    22.09,    21.00,    15.77,    16.05
      155.0,      18.67,    22.01,    20.95,    15.72,    15.99
      156.0,      18.61,    21.94,    20.90,    15.66,    15.93
      157.0,      18.55,    21.86,    20.85,    15.61,    15.87
      158.0,      18.49,    21.79,    20.80,    15.56,    15.81
      159.0,      18.43,    21.72,    20.75,    15.51,    15.75
      160.0,      18.37,    21.65,    20.70,    15.46,    15.69
      161.0,      18.32,    21.57,    20.65,    15.41,    15.63
      162.0,      18.26,    21.50,    20.61,    15.35,    15.58
      163.0,      18.20,    21.43,    20.56,    15.30,    15.52
      164.0,      18.15,    21.36,    20.51,    15.25,    15.46
      165.0,      18.09,    21.30,    20.46,    15.20,    15.41
      166.0,      18.04,    21.23,    20.42,    15.15,    15.35
      167.0,      17.98,    21.16,    20.37,    15.10,    15.30
      168.0,      17.93,    21.09,    20.33,    15.06,    15.24
      169.0,      17.88,    21.03,    20.28,    15.01,    15.19
      170.0,      17.82,    20.96,    20.23,    14.96,    15.13
      171.0,      17.77,    20.90,    20.19,    14.91,    15.08
      172.0,      17.72,    20.84,    20.14,    14.86,    15.03
      173.0,      17.67,    20.77,    20.10,    14.81,    14.97
      174.0,      17.61,    20.71,    20.06,    14.77,    14.92
      175.0,      17.56,    20.65,    20.01,    14.72,    14.87
      176.0,      17.51,    20.59,    19.97,    14.67,    14.82
      177.0,      17.46,    20.52,    19.93,    14.63,    14.77
      178.0,      17.41,    20.46,    19.88,    14.58,    14.72
      179.0,      17.36,    20.40,    19.84,    14.53,    14.67
      180.0,      17.31,    20.34,    19.80,    14.49,    14.62
      181.0,      17.26,    20.28,    19.76,    14.44,    14.57
      182.0,      17.21,    20.23,    19.71,    14.40,    14.52
      183.0,      17.17,    20.17,    19.67,    14.35,    14.47
      184.0,      17.12,    20.11,    19.63,    14.30,    14.42
      185.0,      17.07,    20.05,    19.59,    14.26,    14.38
      186.0,      17.02,    20.00,    19.55,    14.22,    14.33
      187.0,      16.97,    19.94,    19.51,    14.17,    14.28
      188.0,      16.93,    19.88,    19.46,    14.13,    14.23
      189.0,      16.88,    19.83,    19.42,    14.08,    14.19
      190.0,      16.83,    19.77,    19.38,    14.04,    14.14
      191.0,      16.79,    19.72,    19.34,    13.99,    14.10
      192.0,      16.74,    19.66,    19.30,    13.95,    14.05
      193.0,      16.70,    19.61,    19.26,    13.91,    14.00
      194.0,      16.65,    19.55,    19.22,    13.86,    13.96
      195.0,      16.60,    19.50,    19.18,    13.82,    13.91
      196.0,      16.56,    19.45,    19.14,    13.78,    13.87
      197.0,      16.51,    19.39,    19.10,    13.73,    13.82
      198.0,      16.47,    19.34,    19.07,    13.69,    13.78
      199.0,      16.43,    19.29,    19.03,    13.65,    13.74
      200.0,      16.38,    19.24,    18.99,    13.61,    13.69
      201.0,      16.34,    19.19,    18.95,    13.57,    13.65
      202.0,      16.29,    19.14,    18.91,    13.52,    13.61
      203.0,      16.25,    19.08,    18.87,    13.48,    13.56
      204.0,      16.21,    19.03,    18.83,    13.44,    13.52
      205.0,      16.16,    18.98,    18.79,    13.40,    13.48
      206.0,      16.12,    18.93,    18.76,    13.36,    13.44
      207.0,      16.08,    18.88,    18.72,    13.32,    13.39
      208.0,      16.04,    18.83,    18.68,    13.28,    13.35
      209.0,      15.99,    18.79,    18.64,    13.23,    13.31
      210.0,      15.95,    18.74,    18.61,    13.19,    13.27
      211.0,      15.91,    18.69,    18.57,    13.15,    13.23
      212.0,      15.87,    18.64,    18.53,    13.11,    13.19
      213.0,      15.83,    18.59,    18.49,    13.07,    13.14
      214.0,      15.78,    18.54,    18.46,    13.03,    13.10
      215.0,      15.74,    18.50,    18.42,    12.99,    13.06
      216.0,      15.70,    18.45,    18.38,    12.95,    13.02
      217.0,      15.66,    18.40,    18.35,    12.91,    12.98
      218.0,      15.62,    18.35,    18.31,    12.87,    12.94
      219.0,      15.58,    18.31,    18.27,    12.83,    12.90
      220.0,      15.54,    18.26,    18.24,    12.79,    12.86
      221.0,      15.50,    18.22,    18.20,    12.76,    12.82
      222.0,      15.46,    18.17,    18.16,    12.72,    12.79
      223.0,      15.42,    18.12,    18.13,    12.68,    12.75
      224.0,      15.38,    18.08,    18.09,    12.64,    12.71
      225.0,      15.34,    18.03,    18.06,    12.60,    12.67
      226.0,      15.30,    17.99,    18.02,    12.56,    12.63
      227.0,      15.26,    17.94,    17.98,    12.52,    12.59
      228.0,      15.22,    17.90,    17.95,    12.49,    12.55
      229.0,      15.18,    17.85,    17.91,    12.45,    12.52
      230.0,      15.14,    17.81,    17.88,    12.41,    12.48
      231.0,      15.10,    17.76,    17.84,    12.37,    12.44
      232.0,      15.07,    17.72,    17.81,    12.33,    12.40
      233.0,      15.03,    17.68,    17.77,    12.30,    12.36
      234.0,      14.99,    17.63,    17.74,    12.26,    12.33
      235.0,      14.95,    17.59,    17.70,    12.22,    12.29
      236.0,      14.91,    17.54,    17.67,    12.18,    12.25
      237.0,      14.87,    17.50,    17.63,    12.15,    12.22
      238.0,      14.84,    17.46,    17.60,    12.11,    12.18
      239.0,      14.80,    17.42,    17.56,    12.07,    12.14
      240.0,      14.76,    17.37,    17.53,    12.04,    12.11
      241.0,      14.72,    17.33,    17.49,    12.00,    12.07
      242.0,      14.69,    17.29,    17.46,    11.96,    12.03
      243.0,      14.65,    17.25,    17.42,    11.93,    12.00
      244.0,      14.61,    17.20,    17.39,    11.89,    11.96
      245.0,      14.57,    17.16,    17.35,    11.85,    11.93
      246.0,      14.54,    17.12,    17.32,    11.82,    11.89
      247.0,      14.50,    17.08,    17.29,    11.78,    11.85
      248.0,      14.46,    17.04,    17.25,    11.75,    11.82
      249.0,      14.43,    16.99,    17.22,    11.71,    11.78
      250.0,      14.39,    16.95,    17.19,    11.67,    11.75
      251.0,      14.35,    16.91,    17.15,    11.64,    11.71
      252.0,      14.32,    16.87,    17.12,    11.60,    11.68
      253.0,      14.28,    16.83,    17.08,    11.57,    11.64
      254.0,      14.25,    16.79,    17.05,    11.53,    11.61
      255.0,      14.21,    16.75,    17.02,    11.50,    11.58
      256.0,      14.17,    16.71,    16.98,    11.46,    11.54
      257.0,      14.14,    16.67,    16.95,    11.43,    11.51
      258.0,      14.10,    16.63,    16.92,    11.39,    11.47
      259.0,      14.07,    16.59,    16.88,    11.36,    11.44
      260.0,      14.03,    16.55,    16.85,    11.33,    11.40
      261.0,      14.00,    16.51,    16.82,    11.29,    11.37
      262.0,      13.96,    16.47,    16.78,    11.26,    11.34
      263.0,      13.93,    16.43,    16.75,    11.22,    11.30
      264.0,      13.89,    16.39,    16.72,    11.19,    11.27
      265.0,      13.86,    16.35,    16.69,    11.15,    11.24
      266.0,      13.82,    16.31,    16.65,    11.12,    11.20
      267.0,      13.79,    16.27,    16.62,    11.09,    11.17
      268.0,      13.75,    16.23,    16.59,    11.05,    11.14
      269.0,      13.72,    16.20,    16.56,    11.02,    11.10
      270.0,      13.68,    16.16,    16.52,    10.99,    11.07
      271.0,      13.65,    16.12,    16.49,    10.95,    11.04
      272.0,      13.62,    16.08,    16.46,    10.92,    11.01
      273.0,      13.58,    16.04,    16.43,    10.89,    10.97
      274.0,      13.55,    16.00,    16.39,    10.85,    10.94
      275.0,      13.51,    15.97,    16.36,    10.82,    10.91
      276.0,      13.48,    15.93,    16.33,    10.79,    10.88
      277.0,      13.45,    15.89,    16.30,    10.75,    10.85
      278.0,      13.41,    15.85,    16.27,    10.72,    10.81
      279.0,      13.38,    15.81,    16.24,    10.69,    10.78
      280.0,      13.35,    15.78,    16.20,    10.66,    10.75
      281.0,      13.31,    15.74,    16.17,    10.62,    10.72
      282.0,      13.28,    15.70,    16.14,    10.59,    10.69
      283.0,      13.25,    15.66,    16.11,    10.56,    10.66
      284.0,      13.21,    15.63,    16.08,    10.53,    10.62
      285.0,      13.18,    15.59,    16.05,    10.50,    10.59
      286.0,      13.15,    15.55,    16.01,    10.46,    10.56
      287.0,      13.12,    15.52,    15.98,    10.43,    10.53
      288.0,      13.08,    15.48,    15.95,    10.40,    10.50
      289.0,      13.05,    15.44,    15.92,    10.37,    10.47
      290.0,      13.02,    15.41,    15.89,    10.34,    10.44
      291.0,      12.99,    15.37,    15.86,    10.31,    10.41
      292.0,      12.95,    15.33,    15.83,    10.28,    10.38
      293.0,      12.92,    15.30,    15.80,    10.24,    10.35
      294.0,      12.89,    15.26,    15.77,    10.21,    10.32
      295.0,      12.86,    15.23,    15.74,    10.18,    10.29
      296.0,      12.83,    15.19,    15.70,    10.15,    10.26
      297.0,      12.79,    15.15,    15.67,    10.12,    10.23
      298.0,      12.76,    15.12,    15.64,    10.09,    10.20
      299.0,      12.73,    15.08,    15.61,    10.06,    10.17
      300.0,      12.70,    15.05,    15.58,    10.03,    10.14
      301.0,      12.67,    15.01,    15.55,    10.00,    10.11
      302.0,      12.64,    14.98,    15.52,     9.97,    10.08
      303.0,      12.60,    14.94,    15.49,     9.94,    10.05
      304.0,      12.57,    14.91,    15.46,     9.91,    10.02
      305.0,      12.54,    14.87,    15.43,     9.88,     9.99
      306.0,      12.51,    14.84,    15.40,     9.85,     9.96
      307.0,      12.48,    14.80,    15.37,     9.82,     9.93
      308.0,      12.45,    14.77,    15.34,     9.79,     9.90
      309.0,      12.42,    14.73,    15.31,     9.76,     9.87
      310.0,      12.39,    14.70,    15.28,     9.73,     9.84
