Radius (km), Mean (m/s), NE (m/s), SE (m/s), SW (m/s), NW (m/s)
        0.0,       0.00,     0.00,     0.00,     0.00,     0.00
        1.0,       1.56,     1.41,     1.52,     1.73,     1.59
        2.0,       2.60,     2.46,     2.57,     2.74,     2.64
        3.0,       3.51,     3.40,     3.50,     3.58,     3.55
        4.0,       4.34,     4.29,     4.36,     4.34,     4.38
        5.0,       5.12,     5.14,     5.17,     5.03,     5.16
        6.0,       5.86,     5.95,     5.94,     5.68,     5.90
        7.0,       6.58,     6.74,     6.68,     6.29,     6.60
        8.0,       7.26,     7.50,     7.39,     6.87,     7.28
        9.0,       7.92,     8.25,     8.08,     7.43,     7.94
       10.0,       8.57,     8.98,     8.76,     7.97,     8.57
       11.0,       9.20,     9.69,     9.42,     8.49,     9.19
       12.0,       9.81,    10.40,    10.07,     8.99,     9.80
       13.0,      10.41,    11.09,    10.70,     9.49,    10.39
       14.0,      11.01,    11.77,    11.32,     9.96,    10.97
       15.0,      11.58,    12.44,    11.93,    10.43,    11.54
       16.0,      12.15,    13.11,    12.53,    10.89,    12.10
       17.0,      12.72,    13.76,    13.12,    11.33,    12.64
       18.0,      13.27,    14.41,    13.71,    11.77,    13.18
       19.0,      13.81,    15.05,    14.28,    12.20,    13.72
       20.0,      14.35,    15.68,    14.85,    12.63,    14.24
       21.0,      14.88,    16.31,    15.41,    13.04,    14.76
       22.0,      15.41,    16.94,    15.97,    13.45,    15.27
       23.0,      15.93,    17.55,    16.52,    13.85,    15.78
       24.0,      16.44,    18.17,    17.06,    14.25,    16.28
       25.0,      16.95,    18.77,    17.60,    14.64,    16.77
       26.0,      17.45,    19.37,    18.14,    15.03,    17.26
       27.0,      17.95,    19.97,    18.66,    15.41,    17.74
       28.0,      18.44,    20.57,    19.19,    15.79,    18.22
       29.0,      18.93,    21.15,    19.71,    16.16,    18.70
       30.0,      19.41,    21.74,    20.22,    16.53,    19.17
       31.0,      19.90,    22.32,    20.74,    16.89,    19.63
       32.0,      20.37,    22.90,    21.24,    17.25,    20.10
       33.0,      20.85,    23.47,    21.75,    17.61,    20.55
       34.0,      21.32,    24.05,    22.25,    17.96,    21.01
       35.0,      21.78,    24.61,    22.74,    18.31,    21.46
       36.0,      22.25,    25.18,    23.24,    18.66,    21.91
       37.0,      22.73,    25.76,    23.76,    19.02,    22.36
       38.0,      23.24,    26.37,    24.32,    19.42,    22.85
       39.0,      23.80,    27.04,    24.94,    19.86,    23.37
       40.0,      24.43,    27.78,    25.63,    20.34,    23.96
       41.0,      25.11,    28.58,    26.39,    20.87,    24.61
       42.0,      25.84,    29.43,    27.19,    21.43,    25.31
       43.0,      26.57,    30.29,    28.00,    21.98,    26.02
       44.0,      27.27,    31.12,    28.76,    22.51,    26.72
       45.0,      27.90,    31.87,    29.43,    22.96,    27.34
       46.0,      28.41,    32.50,    29.97,    23.32,    27.86
       47.0,      28.78,    32.98,    30.35,    23.57,    28.23
       48.0,      29.00,    33.29,    30.56,    23.70,    28.45
       49.0,      29.06,    33.43,    30.59,    23.72,    28.51
       50.0,      28.99,    33.41,    30.47,    23.63,    28.43
       51.0,      28.81,    33.28,    30.24,    23.47,    28.23
       52.0,      28.55,    33.06,    29.94,    23.26,    27.94
       53.0,      28.25,    32.78,    29.59,    23.02,    27.61
       54.0,      27.94,    32.49,    29.23,    22.77,    27.25
       55.0,      27.63,    32.21,    28.88,    22.53,    26.91
       56.0,      27.34,    31.94,    28.55,    22.30,    26.58
       57.0,      27.07,    31.68,    28.24,    22.07,    26.27
       58.0,      26.81,    31.44,    27.94,    21.86,    25.98
       59.0,      26.55,    31.21,    27.66,    21.65,    25.70
       60.0,      26.31,    30.98,    27.38,    21.45,    25.44
       61.0,      26.08,    30.76,    27.12,    21.25,    25.18
       62.0,      25.85,    30.55,    26.86,    21.05,    24.93
       63.0,      25.63,    30.34,    26.61,    20.86,    24.69
       64.0,      25.41,    30.14,    26.37,    20.68,    24.45
       65.0,      25.20,    29.94,    26.14,    20.50,    24.23
       66.0,      25.00,    29.75,    25.92,    20.32,    24.01
       67.0,      24.80,    29.56,    25.70,    20.14,    23.80
       68.0,      24.61,    29.38,    25.49,    19.97,    23.59
       69.0,      24.43,    29.20,    25.29,    19.81,    23.40
       70.0,      24.25,    29.03,    25.10,    19.65,    23.21
       71.0,      24.07,    28.86,    24.91,    19.49,    23.02
       72.0,      23.90,    28.70,    24.72,    19.33,    22.84
       73.0,      23.73,    28.54,    24.55,    19.18,    22.67
       74.0,      23.57,    28.39,    24.38,    19.04,    22.50
       75.0,      23.42,    28.23,    24.21,    18.89,    22.34
       76.0,      23.27,    28.09,    24.05,    18.75,    22.18
       77.0,      23.12,    27.94,    23.89,    18.61,    22.03
       78.0,      22.97,    27.80,    23.74,    18.48,    21.88
       79.0,      22.83,    27.66,    23.59,    18.35,    21.73
       80.0,      22.70,    27.53,    23.45,    18.22,    21.59
       81.0,      22.56,    27.39,    23.31,    18.09,    21.46
       82.0,      22.44,    27.27,    23.18,    17.97,    21.33
       83.0,      22.31,    27.14,    23.05,    17.85,    21.20
       84.0,      22.19,    27.02,    22.93,    17.73,    21.08
       85.0,      22.07,    26.90,    22.80,    17.61,    20.96
       86.0,      21.95,    26.78,    22.69,    17.50,    20.84
       87.0,      21.84,    26.66,    22.57,    17.39,    20.72
       88.0,      21.73,    26.55,    22.46,    17.28,    20.61
       89.0,      21.62,    26.44,    22.35,    17.18,    20.51
       90.0,      21.51,    26.33,    22.24,    17.07,    20.40
       91.0,      21.41,    26.23,    22.14,    16.97,    20.30
       92.0,      21.31,    26.12,    22.04,    16.87,    20.20
       93.0,      21.21,    26.02,    21.94,    16.78,    20.10
       94.0,      21.12,    25.92,    21.85,    16.68,    20.01
       95.0,      21.02,    25.82,    21.76,    16.59,    19.92
       96.0,      20.93,    25.73,    21.67,    16.50,    19.83
       97.0,      20.84,    25.63,    21.58,    16.41,    19.74
       98.0,      20.75,    25.54,    21.49,    16.32,    19.66
       99.0,      20.67,    25.45,    21.41,    16.24,    19.57
      100.0,      20.58,    25.36,    21.33,    16.15,    19.49
      101.0,      20.50,    25.27,    21.25,    16.07,    19.41
      102.0,      20.42,    25.18,    21.17,    15.99,    19.33
      103.0,      20.34,    25.10,    21.10,    15.91,    19.26
      104.0,      20.27,    25.01,    21.03,    15.84,    19.18
      105.0,      20.19,    24.93,    20.95,    15.76,    19.11
      106.0,      20.12,    24.85,    20.88,    15.69,    19.04
      107.0,      20.04,    24.77,    20.82,    15.62,    18.97
      108.0,      19.97,    24.69,    20.75,    15.55,    18.90
      109.0,      19.90,    24.61,    20.68,    15.48,    18.84
      110.0,      19.83,    24.54,    20.62,    15.41,    18.77
      111.0,      19.77,    24.46,    20.56,    15.34,    18.71
      112.0,      19.70,    24.39,    20.49,    15.28,    18.64
      113.0,      19.64,    24.32,    20.43,    15.22,    18.58
      114.0,      19.57,    24.24,    20.38,    15.15,    18.52
      115.0,      19.51,    24.17,    20.32,    15.09,    18.46
      116.0,      19.45,    24.10,    20.26,    15.03,    18.40
      117.0,      19.39,    24.03,    20.21,    14.97,    18.35
      118.0,      19.33,    23.96,    20.15,    14.92,    18.29
      119.0,      19.27,    23.90,    20.10,    14.86,    18.24
      120.0,      19.21,    23.83,    20.04,    14.80,    18.18
      121.0,      19.16,    23.76,    19.99,    14.75,    18.13
      122.0,      19.10,    23.70,    19.94,    14.70,    18.08
      123.0,      19.05,    23.63,    19.89,    14.64,    18.02
      124.0,      18.99,    23.57,    19.84,    14.59,    17.97
      125.0,      18.94,    23.51,    19.79,    14.54,    17.92
      126.0,      18.89,    23.44,    19.75,    14.49,    17.87
      127.0,      18.84,    23.38,    19.70,    14.44,    17.82
      128.0,      18.79,    23.32,    19.65,    14.39,    17.78
      129.0,      18.74,    23.26,    19.61,    14.35,    17.73
      130.0,      18.69,    23.20,    19.56,    14.30,    17.68
      131.0,      18.64,    23.14,    19.52,    14.26,    17.64
      132.0,      18.59,    23.08,    19.48,    14.21,    17.59
      133.0,      18.54,    23.02,    19.43,    14.17,    17.54
      134.0,      18.50,    22.97,    19.39,    14.13,    17.50
      135.0,      18.45,    22.91,    19.35,    14.08,    17.46
      136.0,      18.40,    22.85,    19.31,    14.04,    17.41
      137.0,      18.36,    22.80,    19.27,    14.00,    17.37
      138.0,      18.31,    22.74,    19.23,    13.96,    17.33
      139.0,      18.27,    22.68,    19.19,    13.92,    17.28
      140.0,      18.23,    22.63,    19.15,    13.88,    17.24
      141.0,      18.18,    22.57,    19.11,    13.85,    17.20
      142.0,      18.14,    22.52,    19.07,    13.81,    17.16
      143.0,      18.10,    22.47,    19.03,    13.77,    17.12
      144.0,      18.06,    22.41,    19.00,    13.74,    17.08
      145.0,      18.02,    22.36,    18.96,    13.70,    17.04
      146.0,      17.97,    22.31,    18.92,    13.67,    17.00
      147.0,      17.93,    22.26,    18.89,    13.63,    16.96
      148.0,      17.89,    22.20,    18.85,    13.60,    16.92
      149.0,      17.85,    22.15,    18.81,    13.56,    16.89
      150.0,      17.81,    22.10,    18.78,    13.53,    16.85
      151.0,      17.78,    22.05,    18.74,    13.50,    16.81
      152.0,      17.74,    22.00,    18.71,    13.47,    16.77
      153.0,      17.70,    21.95,    18.67,    13.44,    16.74
      154.0,      17.66,    21.90,    18.64,    13.40,    16.70
      155.0,      17.62,    21.85,    18.61,    13.37,    16.66
      156.0,      17.59,    21.80,    18.57,    13.34,    16.63
      157.0,      17.55,    21.75,    18.54,    13.32,    16.59
      158.0,      17.51,    21.70,    18.51,    13.29,    16.56
      159.0,      17.48,    21.65,    18.47,    13.26,    16.52
      160.0,      17.44,    21.61,    18.44,    13.23,    16.48
      161.0,      17.40,    21.56,    18.41,    13.20,    16.45
      162.0,      17.37,    21.51,    18.38,    13.17,    16.41
      163.0,      17.33,    21.46,    18.34,    13.15,    16.38
      164.0,      17.30,    21.42,    18.31,    13.12,    16.35
      165.0,      17.26,    21.37,    18.28,    13.09,    16.31
      166.0,      17.23,    21.32,    18.25,    13.07,    16.28
      167.0,      17.19,    21.28,    18.22,    13.04,    16.24
      168.0,      17.16,    21.23,    18.19,    13.02,    16.21
      169.0,      17.13,    21.18,    18.16,    12.99,    16.18
      170.0,      17.09,    21.14,    18.13,    12.97,    16.14
      171.0,      17.06,    21.09,    18.10,    12.94,    16.11
      172.0,      17.03,    21.05,    18.06,    12.92,    16.08
      173.0,      16.99,    21.00,    18.03,    12.89,    16.04
      174.0,      16.96,    20.95,    18.00,    12.87,    16.01
      175.0,      16.93,    20.91,    17.97,    12.85,    15.98
      176.0,      16.90,    20.86,    17.95,    12.83,    15.95
      177.0,      16.86,    20.82,    17.92,    12.80,    15.91
      178.0,      16.83,    20.78,    17.89,    12.78,    15.88
      179.0,      16.80,    20.73,    17.86,    12.76,    15.85
      180.0,      16.77,    20.69,    17.83,    12.74,    15.82
      181.0,      16.74,    20.64,    17.80,    12.71,    15.79
      182.0,      16.70,    20.60,    17.77,    12.69,    15.76
      183.0,      16.67,    20.56,    17.74,    12.67,    15.72
      184.0,      16.64,    20.51,    17.71,    12.65,    15.69
      185.0,      16.61,    20.47,    17.68,    12.63,    15.66
      186.0,      16.58,    20.43,    17.65,    12.61,    15.63
      187.0,      16.55,    20.38,    17.63,    12.59,    15.60
      188.0,      16.52,    20.34,    17.60,    12.57,    15.57
      189.0,      16.49,    20.30,    17.57,    12.55,    15.54
      190.0,      16.46,    20.25,    17.54,    12.53,    15.51
      191.0,      16.43,    20.21,    17.51,    12.51,    15.48
      192.0,      16.40,    20.17,    17.49,    12.49,    15.45
      193.0,      16.37,    20.13,    17.46,    12.47,    15.42
      194.0,      16.34,    20.08,    17.43,    12.45,    15.39
      195.0,      16.31,    20.04,    17.40,    12.43,    15.36
      196.0,      16.28,    20.00,    17.38,    12.42,    15.33
      197.0,      16.25,    19.96,    17.35,    12.40,    15.30
      198.0,      16.22,    19.92,    17.32,    12.38,    15.27
      199.0,      16.19,    19.88,    17.29,    12.36,    15.24
      200.0,      16.16,    19.83,    17.27,    12.34,    15.21
      201.0,      16.13,    19.79,    17.24,    12.33,    15.18
      202.0,      16.11,    19.75,    17.21,    12.31,    15.15
      203.0,      16.08,    19.71,    17.19,    12.29,    15.12
      204.0,      16.05,    19.67,    17.16,    12.27,    15.09
      205.0,      16.02,    19.63,    17.13,    12.26,    15.06
      206.0,      15.99,    19.59,    17.10,    12.24,    15.03
      207.0,      15.96,    19.55,    17.08,    12.22,    15.00
      208.0,      15.93,    19.51,    17.05,    12.21,    14.97
      209.0,      15.91,    19.47,    17.02,    12.19,    14.94
      210.0,      15.88,    19.43,    17.00,    12.17,    14.92
      211.0,      15.85,    19.39,    16.97,    12.16,    14.89
      212.0,      15.82,    19.35,    16.95,    12.14,    14.86
      213.0,      15.79,    19.31,    16.92,    12.12,    14.83
      214.0,      15.77,    19.27,    16.89,    12.11,    14.80
      215.0,      15.74,    19.23,    16.87,    12.09,    14.77
      216.0,      15.71,    19.19,    16.84,    12.08,    14.74
      217.0,      15.68,    19.15,    16.81,    12.06,    14.72
      218.0,      15.66,    19.11,    16.79,    12.04,    14.69
      219.0,      15.63,    19.07,    16.76,    12.03,    14.66
      220.0,      15.60,    19.03,    16.74,    12.01,    14.63
      221.0,      15.58,    18.99,    16.71,    12.00,    14.60
      222.0,      15.55,    18.95,    16.69,    11.98,    14.57
      223.0,      15.52,    18.91,    16.66,    11.97,    14.55
      224.0,      15.50,    18.87,    16.63,    11.95,    14.52
      225.0,      15.47,    18.84,    16.61,    11.94,    14.49
      226.0,      15.44,    18.80,    16.58,    11.92,    14.46
      227.0,      15.41,    18.76,    16.56,    11.91,    14.44
      228.0,      15.39,    18.72,    16.53,    11.89,    14.41
      229.0,      15.36,    18.68,    16.51,    11.88,    14.38
      230.0,      15.34,    18.64,    16.48,    11.86,    14.35
      231.0,      15.31,    18.60,    16.46,    11.85,    14.33
      232.0,      15.28,    18.57,    16.43,    11.84,    14.30
      233.0,      15.26,    18.53,    16.41,    11.82,    14.27
      234.0,      15.23,    18.49,    16.38,    11.81,    14.24
      235.0,      15.20,    18.45,    16.36,    11.79,    14.22
      236.0,      15.18,    18.42,    16.33,    11.78,    14.19
      237.0,      15.15,    18.38,    16.31,    11.76,    14.16
      238.0,      15.13,    18.34,    16.28,    11.75,    14.14
      239.0,      15.10,    18.30,    16.26,    11.74,    14.11
      240.0,      15.08,    18.26,    16.23,    11.72,    14.08
      241.0,      15.05,    18.23,    16.21,    11.71,    14.06
      242.0,      15.02,    18.19,    16.18,    11.70,    14.03
      243.0,      15.00,    18.15,    16.16,    11.68,    14.00
      244.0,      14.97,    18.12,    16.13,    11.67,    13.98
      245.0,      14.95,    18.08,    16.11,    11.66,    13.95
      246.0,      14.92,    18.04,    16.08,    11.64,    13.92
      247.0,      14.90,    18.01,    16.06,    11.63,    13.90
      248.0,      14.87,    17.97,    16.03,    11.61,    13.87
      249.0,      14.85,    17.93,    16.01,    11.60,    13.84
      250.0,      14.82,    17.90,    15.98,    11.59,    13.82
      251.0,      14.80,    17.86,    15.96,    11.58,    13.79
      252.0,      14.77,    17.82,    15.94,    11.56,    13.76
      253.0,      14.75,    17.79,    15.91,    11.55,    13.74
      254.0,      14.72,    17.75,    15.89,    11.54,    13.71
      255.0,      14.70,    17.71,    15.86,    11.52,    13.69
      256.0,      14.67,    17.68,    15.84,    11.51,    13.66
      257.0,      14.65,    17.64,    15.81,    11.50,    13.63
      258.0,      14.62,    17.61,    15.79,    11.48,    13.61
      259.0,      14.60,    17.57,    15.77,    11.47,    13.58
      260.0,      14.57,    17.53,    15.74,    11.46,    13.56
      261.0,      14.55,    17.50,    15.72,    11.45,    13.53
      262.0,      14.52,    17.46,    15.69,    11.43,    13.51
      263.0,      14.50,    17.43,    15.67,    11.42,    13.48
      264.0,      14.48,    17.39,    15.65,    11.41,    13.45
      265.0,      14.45,    17.36,    15.62,    11.40,    13.43
      266.0,      14.43,    17.32,    15.60,    11.38,    13.40
      267.0,      14.40,    17.29,    15.58,    11.37,    13.38
      268.0,      14.38,    17.25,    15.55,    11.36,    13.35
      269.0,      14.35,    17.21,    15.53,    11.35,    13.33
      270.0,      14.33,    17.18,    15.50,    11.33,    13.30
      271.0,      14.31,    17.14,    15.48,    11.32,    13.28
      272.0,      14.28,    17.11,    15.46,    11.31,    13.25
      273.0,      14.26,    17.08,    15.43,    11.30,    13.23
      274.0,      14.23,    17.04,    15.41,    11.28,    13.20
      275.0,      14.21,    17.01,    15.39,    11.27,    13.18
      276.0,      14.19,    16.97,    15.36,    11.26,    13.15
      277.0,      14.16,    16.94,    15.34,    11.25,    13.13
      278.0,      14.14,    16.90,    15.32,    11.24,    13.10
      279.0,      14.12,    16.87,    15.29,    11.22,    13.08
      280.0,      14.09,    16.83,    15.27,    11.21,    13.05
      281.0,      14.07,    16.80,    15.25,    11.20,    13.03
      282.0,      14.04,    16.76,    15.22,    11.19,    13.00
      283.0,      14.02,    16.73,    15.20,    11.18,    12.98
      284.0,      14.00,    16.70,    15.18,    11.16,    12.95
      285.0,      13.97,    16.66,    15.15,    11.15,    12.93
      286.0,      13.95,    16.63,    15.13,    11.14,    12.90
      287.0,      13.93,    16.60,    15.11,    11.13,    12.88
      288.0,      13.90,    16.56,    15.09,    11.12,    12.86
      289.0,      13.88,    16.53,    15.06,    11.10,    12.83
      290.0,      13.86,    16.49,    15.04,    11.09,    12.81
      291.0,      13.84,    16.46,    15.02,    11.08,    12.78
      292.0,      13.81,    16.43,    14.99,    11.07,    12.76
      293.0,      13.79,    16.39,    14.97,    11.06,    12.73
      294.0,      13.77,    16.36,    14.95,    11.05,    12.71
      295.0,      13.74,    16.33,    14.93,    11.03,    12.69
      296.0,      13.72,    16.29,    14.90,    11.02,    12.66
      297.0,      13.70,    16.26,    14.88,    11.01,    12.64
      298.0,      13.67,    16.23,    14.86,    11.00,    12.61
      299.0,      13.65,    16.19,    14.84,    10.99,    12.59
      300.0,      13.63,    16.16,    14.81,    10.98,    12.57
      301.0,      13.61,    16.13,    14.79,    10.97,    12.54
      302.0,      13.58,    16.10,    14.77,    10.95,    12.52
      303.0,      13.56,    16.06,    14.75,    10.94,    12.50
      304.0,      13.54,    16.03,    14.72,    10.93,    12.47
      305.0,      13.52,    16.00,    14.70,    10.92,    12.45
      306.0,      13.49,    15.97,    14.68,    10.91,    12.42
      307.0,      13.47,    15.93,    14.66,    10.90,    12.40
      308.0,      13.45,    15.90,    14.63,    10.89,    12.38
      309.0,      13.43,    15.87,    14.61,    10.87,    12.35
      310.0,      13.40,    15.84,    14.59,    10.86,    12.33
