Radius (km), Mean (m/s), NE (m/s), SE (m/s), SW (m/s), NW (m/s)
        0.0,       0.00,     0.00,     0.00,     0.00,     0.00
        1.0,       1.92,     1.86,     1.90,     2.02,     1.90
        2.0,       3.41,     3.35,     3.39,     3.50,     3.39
        3.0,       4.77,     4.72,     4.76,     4.83,     4.76
        4.0,       6.05,     6.03,     6.05,     6.08,     6.05
        5.0,       7.28,     7.28,     7.28,     7.26,     7.28
        6.0,       8.46,     8.50,     8.48,     8.39,     8.48
        7.0,       9.62,     9.69,     9.65,     9.49,     9.65
        8.0,      10.74,    10.85,    10.78,    10.55,    10.78
        9.0,      11.84,    11.98,    11.90,    11.59,    11.90
       10.0,      12.92,    13.10,    12.99,    12.61,    12.99
       11.0,      13.98,    14.20,    14.06,    13.60,    14.06
       12.0,      15.03,    15.29,    15.12,    14.58,    15.12
       13.0,      16.06,    16.36,    16.17,    15.54,    16.17
       14.0,      17.08,    17.42,    17.20,    16.48,    17.20
       15.0,      18.08,    18.47,    18.22,    17.41,    18.22
       16.0,      19.07,    19.51,    19.23,    18.33,    19.23
       17.0,      20.06,    20.54,    20.23,    19.24,    20.23
       18.0,      21.03,    21.56,    21.21,    20.13,    21.21
       19.0,      22.00,    22.59,    22.21,    21.02,    22.20
       20.0,      23.01,    23.66,    23.24,    21.91,    23.22
       21.0,      24.08,    24.80,    24.34,    22.85,    24.32
       22.0,      25.25,    26.04,    25.56,    23.87,    25.52
       23.0,      26.54,    27.40,    26.91,    24.99,    26.86
       24.0,      27.95,    28.86,    28.37,    26.23,    28.32
       25.0,      29.42,    30.36,    29.89,    27.56,    29.87
       26.0,      30.90,    31.86,    31.41,    28.92,    31.41
       27.0,      32.31,    33.27,    32.85,    30.25,    32.88
       28.0,      33.56,    34.52,    34.11,    31.45,    34.18
       29.0,      34.59,    35.55,    35.13,    32.45,    35.24
       30.0,      35.34,    36.32,    35.87,    33.20,    35.99
       31.0,      35.80,    36.81,    36.30,    33.65,    36.42
       32.0,      35.96,    37.05,    36.43,    33.80,    36.54
       33.0,      35.86,    37.06,    36.32,    33.69,    36.38
       34.0,      35.56,    36.90,    36.01,    33.35,    36.00
       35.0,      35.13,    36.62,    35.57,    32.85,    35.48
       36.0,      34.62,    36.29,    35.06,    32.25,    34.89
       37.0,      34.09,    35.93,    34.54,    31.62,    34.27
       38.0,      33.57,    35.59,    34.03,    31.00,    33.67
       39.0,      33.08,    35.26,    33.55,    30.41,    33.10
       40.0,      32.62,    34.95,    33.11,    29.86,    32.57
       41.0,      32.19,    34.65,    32.68,    29.34,    32.07
       42.0,      31.77,    34.36,    32.27,    28.85,    31.59
       43.0,      31.36,    34.07,    31.87,    28.38,    31.12
       44.0,      30.97,    33.79,    31.49,    27.92,    30.67
       45.0,      30.59,    33.52,    31.12,    27.48,    30.24
       46.0,      30.22,    33.25,    30.77,    27.05,    29.82
       47.0,      29.87,    32.99,    30.42,    26.64,    29.42
       48.0,      29.53,    32.73,    30.09,    26.25,    29.03
       49.0,      29.19,    32.48,    29.77,    25.87,    28.66
       50.0,      28.87,    32.23,    29.46,    25.50,    28.30
       51.0,      28.56,    31.99,    29.16,    25.14,    27.95
       52.0,      28.26,    31.76,    28.87,    24.80,    27.61
       53.0,      27.97,    31.53,    28.59,    24.47,    27.29
       54.0,      27.69,    31.30,    28.32,    24.15,    26.97
       55.0,      27.41,    31.08,    28.06,    23.84,    26.67
       56.0,      27.15,    30.87,    27.80,    23.54,    26.38
       57.0,      26.89,    30.65,    27.56,    23.25,    26.09
       58.0,      26.64,    30.45,    27.32,    22.98,    25.82
       59.0,      26.40,    30.25,    27.09,    22.71,    25.56
       60.0,      26.17,    30.05,    26.87,    22.45,    25.30
       61.0,      25.94,    29.85,    26.65,    22.19,    25.05
       62.0,      25.72,    29.66,    26.44,    21.95,    24.82
       63.0,      25.50,    29.47,    26.24,    21.72,    24.58
       64.0,      25.30,    29.29,    26.04,    21.49,    24.36
       65.0,      25.09,    29.11,    25.85,    21.27,    24.14
       66.0,      24.90,    28.94,    25.67,    21.05,    23.94
       67.0,      24.71,    28.76,    25.49,    20.85,    23.73
       68.0,      24.52,    28.60,    25.32,    20.65,    23.54
       69.0,      24.34,    28.43,    25.15,    20.45,    23.35
       70.0,      24.17,    28.27,    24.98,    20.27,    23.16
       71.0,      24.00,    28.11,    24.83,    20.08,    22.98
       72.0,      23.84,    27.95,    24.67,    19.91,    22.81
       73.0,      23.68,    27.80,    24.52,    19.74,    22.64
       74.0,      23.52,    27.65,    24.38,    19.57,    22.48
       75.0,      23.37,    27.50,    24.23,    19.41,    22.32
       76.0,      23.22,    27.36,    24.10,    19.26,    22.17
       77.0,      23.08,    27.21,    23.96,    19.10,    22.02
       78.0,      22.93,    27.07,    23.83,    18.96,    21.88
       79.0,      22.80,    26.94,    23.70,    18.81,    21.74
       80.0,      22.66,    26.80,    23.58,    18.68,    21.60
       81.0,      22.53,    26.67,    23.46,    18.54,    21.47
       82.0,      22.41,    26.54,    23.34,    18.41,    21.34
       83.0,      22.28,    26.41,    23.23,    18.28,    21.22
       84.0,      22.16,    26.29,    23.11,    18.16,    21.09
       85.0,      22.05,    26.16,    23.00,    18.04,    20.98
       86.0,      21.93,    26.04,    22.90,    17.92,    20.86
       87.0,      21.82,    25.92,    22.79,    17.81,    20.75
       88.0,      21.71,    25.81,    22.69,    17.70,    20.64
       89.0,      21.60,    25.69,    22.59,    17.59,    20.53
       90.0,      21.50,    25.58,    22.50,    17.48,    20.43
       91.0,      21.40,    25.47,    22.40,    17.38,    20.33
       92.0,      21.29,    25.36,    22.31,    17.28,    20.23
       93.0,      21.20,    25.25,    22.22,    17.18,    20.14
       94.0,      21.10,    25.15,    22.13,    17.09,    20.04
       95.0,      21.01,    25.04,    22.04,    16.99,    19.95
       96.0,      20.92,    24.94,    21.96,    16.90,    19.86
       97.0,      20.83,    24.84,    21.87,    16.81,    19.77
       98.0,      20.74,    24.74,    21.79,    16.73,    19.69
       99.0,      20.65,    24.64,    21.71,    16.64,    19.61
      100.0,      20.57,    24.54,    21.63,    16.56,    19.52
      101.0,      20.48,    24.45,    21.56,    16.48,    19.44
      102.0,      20.40,    24.36,    21.48,    16.40,    19.37
      103.0,      20.32,    24.26,    21.41,    16.32,    19.29
      104.0,      20.24,    24.17,    21.33,    16.25,    19.21
      105.0,      20.16,    24.08,    21.26,    16.17,    19.14
      106.0,      20.09,    24.00,    21.19,    16.10,    19.07
      107.0,      20.01,    23.91,    21.12,    16.03,    19.00
      108.0,      19.94,    23.82,    21.05,    15.96,    18.93
      109.0,      19.87,    23.74,    20.99,    15.89,    18.86
      110.0,      19.80,    23.65,    20.92,    15.82,    18.80
      111.0,      19.73,    23.57,    20.86,    15.76,    18.73
      112.0,      19.66,    23.49,    20.79,    15.69,    18.67
      113.0,      19.59,    23.41,    20.73,    15.63,    18.60
      114.0,      19.53,    23.33,    20.67,    15.56,    18.54
      115.0,      19.46,    23.25,    20.61,    15.50,    18.48
      116.0,      19.40,    23.18,    20.55,    15.44,    18.42
      117.0,      19.33,    23.10,    20.49,    15.38,    18.36
      118.0,      19.27,    23.03,    20.43,    15.32,    18.30
      119.0,      19.21,    22.95,    20.37,    15.27,    18.25
      120.0,      19.15,    22.88,    20.31,    15.21,    18.19
      121.0,      19.09,    22.81,    20.26,    15.15,    18.14
      122.0,      19.03,    22.73,    20.20,    15.10,    18.08
      123.0,      18.97,    22.66,    20.14,    15.04,    18.03
      124.0,      18.91,    22.59,    20.09,    14.99,    17.97
      125.0,      18.86,    22.53,    20.04,    14.94,    17.92
      126.0,      18.80,    22.46,    19.98,    14.89,    17.87
      127.0,      18.74,    22.39,    19.93,    14.83,    17.82
      128.0,      18.69,    22.32,    19.88,    14.78,    17.77
      129.0,      18.63,    22.26,    19.83,    14.73,    17.72
      130.0,      18.58,    22.19,    19.77,    14.68,    17.67
      131.0,      18.53,    22.13,    19.72,    14.64,    17.62
      132.0,      18.47,    22.06,    19.67,    14.59,    17.57
      133.0,      18.42,    22.00,    19.62,    14.54,    17.53
      134.0,      18.37,    21.94,    19.58,    14.49,    17.48
      135.0,      18.32,    21.88,    19.53,    14.45,    17.43
      136.0,      18.27,    21.81,    19.48,    14.40,    17.39
      137.0,      18.22,    21.75,    19.43,    14.36,    17.34
      138.0,      18.17,    21.69,    19.38,    14.31,    17.30
      139.0,      18.12,    21.63,    19.34,    14.27,    17.25
      140.0,      18.07,    21.57,    19.29,    14.22,    17.21
      141.0,      18.03,    21.52,    19.24,    14.18,    17.17
      142.0,      17.98,    21.46,    19.20,    14.13,    17.12
      143.0,      17.93,    21.40,    19.15,    14.09,    17.08
      144.0,      17.88,    21.34,    19.10,    14.05,    17.04
      145.0,      17.84,    21.29,    19.06,    14.01,    17.00
      146.0,      17.79,    21.23,    19.01,    13.97,    16.95
      147.0,      17.75,    21.18,    18.97,    13.92,    16.91
      148.0,      17.70,    21.12,    18.93,    13.88,    16.87
      149.0,      17.66,    21.07,    18.88,    13.84,    16.83
      150.0,      17.61,    21.01,    18.84,    13.80,    16.79
      151.0,      17.57,    20.96,    18.80,    13.76,    16.75
      152.0,      17.52,    20.91,    18.75,    13.72,    16.71
      153.0,      17.48,    20.85,    18.71,    13.68,    16.67
      154.0,      17.44,    20.80,    18.67,    13.64,    16.63
      155.0,      17.39,    20.75,    18.62,    13.61,    16.59
      156.0,      17.35,    20.70,    18.58,    13.57,    16.55
      157.0,      17.31,    20.65,    18.54,    13.53,    16.52
      158.0,      17.27,    20.59,    18.50,    13.49,    16.48
      159.0,      17.22,    20.54,    18.46,    13.45,    16.44
      160.0,      17.18,    20.49,    18.42,    13.42,    16.40
      161.0,      17.14,    20.44,    18.37,    13.38,    16.36
      162.0,      17.10,    20.39,    18.33,    13.34,    16.33
      163.0,      17.06,    20.35,    18.29,    13.30,    16.29
      164.0,      17.02,    20.30,    18.25,    13.27,    16.25
      165.0,      16.98,    20.25,    18.21,    13.23,    16.22
      166.0,      16.94,    20.20,    18.17,    13.20,    16.18
      167.0,      16.90,    20.15,    18.13,    13.16,    16.14
      168.0,      16.86,    20.11,    18.09,    13.12,    16.11
      169.0,      16.82,    20.06,    18.05,    13.09,    16.07
      170.0,      16.78,    20.01,    18.01,    13.05,    16.04
      171.0,      16.74,    19.96,    17.97,    13.02,    16.00
      172.0,      16.70,    19.92,    17.94,    12.98,    15.96
      173.0,      16.66,    19.87,    17.90,    12.95,    15.93
      174.0,      16.62,    19.83,    17.86,    12.91,    15.89
      175.0,      16.58,    19.78,    17.82,    12.88,    15.86
      176.0,      16.55,    19.74,    17.78,    12.84,    15.82
      177.0,      16.51,    19.69,    17.74,    12.81,    15.79
      178.0,      16.47,    19.65,    17.70,    12.78,    15.76
      179.0,      16.43,    19.60,    17.67,    12.74,    15.72
      180.0,      16.40,    19.56,    17.63,    12.71,    15.69
      181.0,      16.36,    19.51,    17.59,    12.68,    15.65
      182.0,      16.32,    19.47,    17.55,    12.64,    15.62
      183.0,      16.28,    19.43,    17.52,    12.61,    15.59
      184.0,      16.25,    19.38,    17.48,    12.58,    15.55
      185.0,      16.21,    19.34,    17.44,    12.54,    15.52
      186.0,      16.17,    19.30,    17.40,    12.51,    15.48
      187.0,      16.14,    19.25,    17.37,    12.48,    15.45
      188.0,      16.10,    19.21,    17.33,    12.44,    15.42
      189.0,      16.06,    19.17,    17.29,    12.41,    15.38
      190.0,      16.03,    19.13,    17.26,    12.38,    15.35
      191.0,      15.99,    19.09,    17.22,    12.35,    15.32
      192.0,      15.96,    19.04,    17.18,    12.32,    15.29
      193.0,      15.92,    19.00,    17.15,    12.28,    15.25
      194.0,      15.89,    18.96,    17.11,    12.25,    15.22
      195.0,      15.85,    18.92,    17.07,    12.22,    15.19
      196.0,      15.82,    18.88,    17.04,    12.19,    15.16
      197.0,      15.78,    18.84,    17.00,    12.16,    15.12
      198.0,      15.75,    18.80,    16.97,    12.13,    15.09
      199.0,      15.71,    18.76,    16.93,    12.09,    15.06
      200.0,      15.68,    18.72,    16.89,    12.06,    15.03
      201.0,      15.64,    18.68,    16.86,    12.03,    15.00
      202.0,      15.61,    18.64,    16.82,    12.00,    14.96
      203.0,      15.57,    18.60,    16.79,    11.97,    14.93
      204.0,      15.54,    18.56,    16.75,    11.94,    14.90
      205.0,      15.50,    18.52,    16.72,    11.91,    14.87
      206.0,      15.47,    18.48,    16.68,    11.88,    14.84
      207.0,      15.44,    18.44,    16.65,    11.85,    14.81
      208.0,      15.40,    18.40,    16.61,    11.82,    14.78
      209.0,      15.37,    18.36,    16.58,    11.79,    14.74
      210.0,      15.33,    18.32,    16.54,    11.76,    14.71
      211.0,      15.30,    18.29,    16.51,    11.73,    14.68
      212.0,      15.27,    18.25,    16.47,    11.70,    14.65
      213.0,      15.23,    18.21,    16.44,    11.67,    14.62
      214.0,      15.20,    18.17,    16.41,    11.64,    14.59
      215.0,      15.17,    18.13,    16.37,    11.61,    14.56
      216.0,      15.14,    18.10,    16.34,    11.58,    14.53
      217.0,      15.10,    18.06,    16.30,    11.55,    14.50
      218.0,      15.07,    18.02,    16.27,    11.52,    14.47
      219.0,      15.04,    17.98,    16.23,    11.49,    14.44
      220.0,      15.00,    17.95,    16.20,    11.46,    14.41
      221.0,      14.97,    17.91,    16.17,    11.43,    14.38
      222.0,      14.94,    17.87,    16.13,    11.40,    14.35
      223.0,      14.91,    17.83,    16.10,    11.38,    14.32
      224.0,      14.87,    17.80,    16.07,    11.35,    14.29
      225.0,      14.84,    17.76,    16.03,    11.32,    14.26
      226.0,      14.81,    17.72,    16.00,    11.29,    14.23
      227.0,      14.78,    17.69,    15.97,    11.26,    14.20
      228.0,      14.75,    17.65,    15.93,    11.23,    14.17
      229.0,      14.71,    17.61,    15.90,    11.20,    14.14
      230.0,      14.68,    17.58,    15.87,    11.18,    14.11
      231.0,      14.65,    17.54,    15.83,    11.15,    14.08
      232.0,      14.62,    17.51,    15.80,    11.12,    14.05
      233.0,      14.59,    17.47,    15.77,    11.09,    14.02
      234.0,      14.56,    17.43,    15.73,    11.06,    13.99
      235.0,      14.52,    17.40,    15.70,    11.03,    13.96
      236.0,      14.49,    17.36,    15.67,    11.01,    13.93
      237.0,      14.46,    17.33,    15.64,    10.98,    13.90
      238.0,      14.43,    17.29,    15.60,    10.95,    13.88
      239.0,      14.40,    17.26,    15.57,    10.92,    13.85
      240.0,      14.37,    17.22,    15.54,    10.90,    13.82
      241.0,      14.34,    17.19,    15.51,    10.87,    13.79
      242.0,      14.31,    17.15,    15.47,    10.84,    13.76
      243.0,      14.28,    17.12,    15.44,    10.81,    13.73
      244.0,      14.25,    17.08,    15.41,    10.79,    13.70
      245.0,      14.22,    17.05,    15.38,    10.76,    13.67
      246.0,      14.18,    17.01,    15.35,    10.73,    13.65
      247.0,      14.15,    16.98,    15.31,    10.71,    13.62
      248.0,      14.12,    16.95,    15.28,    10.68,    13.59
      249.0,      14.09,    16.91,    15.25,    10.65,    13.56
      250.0,      14.06,    16.88,    15.22,    10.62,    13.53
      251.0,      14.03,    16.84,    15.19,    10.60,    13.51
      252.0,      14.00,    16.81,    15.16,    10.57,    13.48
      253.0,      13.97,    16.78,    15.13,    10.54,    13.45
      254.0,      13.94,    16.74,    15.09,    10.52,    13.42
      255.0,      13.91,    16.71,    15.06,    10.49,    13.39
      256.0,      13.88,    16.67,    15.03,    10.46,    13.37
      257.0,      13.85,    16.64,    15.00,    10.44,    13.34
      258.0,      13.82,    16.61,    14.97,    10.41,    13.31
      259.0,      13.80,    16.57,    14.94,    10.39,    13.28
      260.0,      13.77,    16.54,    14.91,    10.36,    13.25
      261.0,      13.74,    16.51,    14.88,    10.33,    13.23
      262.0,      13.71,    16.47,    14.85,    10.31,    13.20
      263.0,      13.68,    16.44,    14.81,    10.28,    13.17
      264.0,      13.65,    16.41,    14.78,    10.26,    13.14
      265.0,      13.62,    16.38,    14.75,    10.23,    13.12
      266.0,      13.59,    16.34,    14.72,    10.20,    13.09
      267.0,      13.56,    16.31,    14.69,    10.18,    13.06
      268.0,      13.53,    16.28,    14.66,    10.15,    13.04
      269.0,      13.50,    16.25,    14.63,    10.13,    13.01
      270.0,      13.47,    16.21,    14.60,    10.10,    12.98
      271.0,      13.45,    16.18,    14.57,    10.08,    12.96
      272.0,      13.42,    16.15,    14.54,    10.05,    12.93
      273.0,      13.39,    16.12,    14.51,    10.03,    12.90
      274.0,      13.36,    16.08,    14.48,    10.00,    12.87
      275.0,      13.33,    16.05,    14.45,     9.98,    12.85
      276.0,      13.30,    16.02,    14.42,     9.95,    12.82
      277.0,      13.27,    15.99,    14.39,     9.93,    12.79
      278.0,      13.25,    15.96,    14.36,     9.90,    12.77
      279.0,      13.22,    15.92,    14.33,     9.88,    12.74
      280.0,      13.19,    15.89,    14.30,     9.85,    12.72
      281.0,      13.16,    15.86,    14.27,     9.83,    12.69
      282.0,      13.13,    15.83,    14.24,     9.80,    12.66
      283.0,      13.11,    15.80,    14.21,     9.78,    12.64
      284.0,      13.08,    15.77,    14.18,     9.75,    12.61
      285.0,      13.05,    15.73,    14.15,     9.73,    12.58
      286.0,      13.02,    15.70,    14.12,     9.70,    12.56
      287.0,      12.99,    15.67,    14.10,     9.68,    12.53
      288.0,      12.97,    15.64,    14.07,     9.65,    12.51
      289.0,      12.94,    15.61,    14.04,     9.63,    12.48
      290.0,      12.91,    15.58,    14.01,     9.61,    12.45
      291.0,      12.88,    15.55,    13.98,     9.58,    12.43
      292.0,      12.86,    15.52,    13.95,     9.56,    12.40
      293.0,      12.83,    15.49,    13.92,     9.53,    12.38
      294.0,      12.80,    15.46,    13.89,     9.51,    12.35
      295.0,      12.78,    15.42,    13.86,     9.49,    12.33
      296.0,      12.75,    15.39,    13.83,     9.46,    12.30
      297.0,      12.72,    15.36,    13.81,     9.44,    12.27
      298.0,      12.69,    15.33,    13.78,     9.41,    12.25
      299.0,      12.67,    15.30,    13.75,     9.39,    12.22
      300.0,      12.64,    15.27,    13.72,     9.37,    12.20
      301.0,      12.61,    15.24,    13.69,     9.34,    12.17
      302.0,      12.59,    15.21,    13.66,     9.32,    12.15
      303.0,      12.56,    15.18,    13.64,     9.30,    12.12
      304.0,      12.53,    15.15,    13.61,     9.27,    12.10
      305.0,      12.51,    15.12,    13.58,     9.25,    12.07
      306.0,      12.48,    15.09,    13.55,     9.23,    12.05
      307.0,      12.45,    15.06,    13.52,     9.20,    12.02
      308.0,      12.43,    15.03,    13.49,     9.18,    12.00
      309.0,      12.40,    15.00,    13.47,     9.16,    11.97
      310.0,      12.37,    14.97,    13.44,     9.14,    11.95
