Radius (km), Mean (m/s), NE (m/s), SE (m/s), SW (m/s), NW (m/s)
        0.0,       0.00,     0.00,     0.00,     0.00,     0.00
        1.0,       1.90,     1.91,     1.91,     1.89,     1.91
        2.0,       3.27,     3.28,     3.28,     3.26,     3.28
        3.0,       4.49,     4.49,     4.49,     4.48,     4.49
        4.0,       5.62,     5.62,     5.62,     5.62,     5.62
        5.0,       6.69,     6.69,     6.69,     6.70,     6.69
        6.0,       7.72,     7.71,     7.71,     7.73,     7.71
        7.0,       8.71,     8.70,     8.70,     8.73,     8.70
        8.0,       9.67,     9.65,     9.65,     9.70,     9.65
        9.0,      10.60,    10.58,    10.58,    10.64,    10.58
       10.0,      11.51,    11.49,    11.49,    11.56,    11.49
       11.0,      12.40,    12.38,    12.38,    12.46,    12.38
       12.0,      13.27,    13.25,    13.25,    13.35,    13.25
       13.0,      14.13,    14.10,    14.10,    14.21,    14.10
       14.0,      14.97,    14.94,    14.94,    15.07,    14.94
       15.0,      15.80,    15.76,    15.76,    15.91,    15.76
       16.0,      16.62,    16.58,    16.58,    16.74,    16.58
       17.0,      17.42,    17.38,    17.38,    17.56,    17.38
       18.0,      18.22,    18.17,    18.17,    18.36,    18.17
       19.0,      19.01,    18.95,    18.95,    19.16,    18.95
       20.0,      19.78,    19.73,    19.73,    19.95,    19.73
       21.0,      20.56,    20.50,    20.50,    20.73,    20.49
       22.0,      21.35,    21.30,    21.30,    21.51,    21.28
       23.0,      22.18,    22.16,    22.16,    22.28,    22.11
       24.0,      23.08,    23.09,    23.12,    23.07,    23.04
       25.0,      24.08,    24.13,    24.18,    23.91,    24.10
       26.0,      25.18,    25.25,    25.35,    24.85,    25.29
       27.0,      26.37,    26.43,    26.59,    25.88,    26.58
       28.0,      27.60,    27.63,    27.85,    27.02,    27.92
       29.0,      28.82,    28.77,    29.05,    28.21,    29.24
       30.0,      29.95,    29.82,    30.14,    29.40,    30.44
       31.0,      30.93,    30.70,    31.06,    30.52,    31.45
       32.0,      31.70,    31.38,    31.75,    31.48,    32.21
       33.0,      32.24,    31.85,    32.19,    32.21,    32.68
       34.0,      32.51,    32.11,    32.40,    32.68,    32.85
       35.0,      32.55,    32.18,    32.39,    32.86,    32.75
       36.0,      32.37,    32.10,    32.21,    32.76,    32.42
       37.0,      32.04,    31.90,    31.91,    32.43,    31.92
       38.0,      31.60,    31.65,    31.53,    31.91,    31.31
       39.0,      31.11,    31.36,    31.13,    31.27,    30.66
       40.0,      30.60,    31.07,    30.73,    30.58,    30.01
       41.0,      30.10,    30.80,    30.35,    29.89,    29.38
       42.0,      29.63,    30.53,    29.98,    29.23,    28.79
       43.0,      29.19,    30.28,    29.63,    28.61,    28.23
       44.0,      28.76,    30.03,    29.30,    28.03,    27.70
       45.0,      28.36,    29.79,    28.97,    27.48,    27.18
       46.0,      27.97,    29.56,    28.66,    26.96,    26.68
       47.0,      27.59,    29.33,    28.36,    26.46,    26.21
       48.0,      27.23,    29.11,    28.07,    25.98,    25.75
       49.0,      26.87,    28.89,    27.79,    25.51,    25.31
       50.0,      26.54,    28.68,    27.52,    25.06,    24.88
       51.0,      26.21,    28.48,    27.25,    24.63,    24.48
       52.0,      25.89,    28.28,    27.00,    24.21,    24.08
       53.0,      25.59,    28.09,    26.76,    23.80,    23.70
       54.0,      25.29,    27.90,    26.52,    23.42,    23.34
       55.0,      25.01,    27.71,    26.29,    23.04,    22.99
       56.0,      24.73,    27.54,    26.07,    22.68,    22.65
       57.0,      24.47,    27.36,    25.86,    22.33,    22.33
       58.0,      24.21,    27.19,    25.65,    21.99,    22.02
       59.0,      23.97,    27.03,    25.45,    21.67,    21.72
       60.0,      23.73,    26.87,    25.26,    21.36,    21.43
       61.0,      23.49,    26.71,    25.07,    21.05,    21.15
       62.0,      23.27,    26.56,    24.89,    20.76,    20.88
       63.0,      23.06,    26.41,    24.71,    20.48,    20.62
       64.0,      22.85,    26.26,    24.55,    20.21,    20.37
       65.0,      22.64,    26.12,    24.38,    19.94,    20.13
       66.0,      22.45,    25.98,    24.22,    19.69,    19.90
       67.0,      22.26,    25.85,    24.07,    19.44,    19.68
       68.0,      22.08,    25.71,    23.92,    19.21,    19.47
       69.0,      21.90,    25.59,    23.78,    18.98,    19.26
       70.0,      21.73,    25.46,    23.64,    18.75,    19.06
       71.0,      21.56,    25.34,    23.51,    18.54,    18.87
       72.0,      21.40,    25.22,    23.38,    18.33,    18.69
       73.0,      21.25,    25.10,    23.25,    18.13,    18.51
       74.0,      21.10,    24.99,    23.13,    17.94,    18.34
       75.0,      20.95,    24.88,    23.01,    17.75,    18.17
       76.0,      20.81,    24.77,    22.89,    17.57,    18.01
       77.0,      20.68,    24.67,    22.78,    17.39,    17.86
       78.0,      20.54,    24.56,    22.67,    17.22,    17.71
       79.0,      20.41,    24.46,    22.57,    17.06,    17.57
       80.0,      20.29,    24.36,    22.47,    16.90,    17.43
       81.0,      20.17,    24.27,    22.37,    16.74,    17.30
       82.0,      20.05,    24.18,    22.27,    16.59,    17.17
       83.0,      19.94,    24.08,    22.18,    16.45,    17.05
       84.0,      19.83,    23.99,    22.09,    16.30,    16.93
       85.0,      19.72,    23.91,    22.00,    16.17,    16.81
       86.0,      19.62,    23.82,    21.92,    16.03,    16.70
       87.0,      19.52,    23.74,    21.83,    15.91,    16.59
       88.0,      19.42,    23.66,    21.75,    15.78,    16.49
       89.0,      19.32,    23.58,    21.67,    15.66,    16.39
       90.0,      19.23,    23.50,    21.60,    15.54,    16.29
       91.0,      19.14,    23.42,    21.52,    15.43,    16.20
       92.0,      19.05,    23.35,    21.45,    15.31,    16.11
       93.0,      18.97,    23.27,    21.38,    15.20,    16.02
       94.0,      18.89,    23.20,    21.31,    15.10,    15.93
       95.0,      18.81,    23.13,    21.25,    15.00,    15.85
       96.0,      18.73,    23.06,    21.18,    14.90,    15.77
       97.0,      18.65,    22.99,    21.12,    14.80,    15.70
       98.0,      18.58,    22.93,    21.06,    14.70,    15.62
       99.0,      18.51,    22.86,    21.00,    14.61,    15.55
      100.0,      18.44,    22.80,    20.94,    14.52,    15.48
      101.0,      18.37,    22.74,    20.88,    14.43,    15.41
      102.0,      18.30,    22.68,    20.83,    14.35,    15.35
      103.0,      18.23,    22.62,    20.77,    14.26,    15.29
      104.0,      18.17,    22.56,    20.72,    14.18,    15.22
      105.0,      18.11,    22.50,    20.67,    14.10,    15.16
      106.0,      18.05,    22.44,    20.62,    14.03,    15.11
      107.0,      17.99,    22.39,    20.57,    13.95,    15.05
      108.0,      17.93,    22.33,    20.52,    13.88,    15.00
      109.0,      17.88,    22.28,    20.47,    13.80,    14.94
      110.0,      17.82,    22.23,    20.43,    13.73,    14.89
      111.0,      17.77,    22.18,    20.38,    13.66,    14.84
      112.0,      17.71,    22.13,    20.34,    13.60,    14.79
      113.0,      17.66,    22.08,    20.29,    13.53,    14.75
      114.0,      17.61,    22.03,    20.25,    13.46,    14.70
      115.0,      17.56,    21.98,    20.21,    13.40,    14.66
      116.0,      17.51,    21.93,    20.17,    13.34,    14.61
      117.0,      17.47,    21.89,    20.13,    13.28,    14.57
      118.0,      17.42,    21.84,    20.09,    13.22,    14.53
      119.0,      17.37,    21.80,    20.05,    13.16,    14.49
      120.0,      17.33,    21.75,    20.01,    13.10,    14.45
      121.0,      17.29,    21.71,    19.98,    13.04,    14.42
      122.0,      17.24,    21.67,    19.94,    12.99,    14.38
      123.0,      17.20,    21.62,    19.90,    12.93,    14.34
      124.0,      17.16,    21.58,    19.87,    12.88,    14.31
      125.0,      17.12,    21.54,    19.84,    12.83,    14.27
      126.0,      17.08,    21.50,    19.80,    12.78,    14.24
      127.0,      17.04,    21.46,    19.77,    12.72,    14.21
      128.0,      17.00,    21.42,    19.73,    12.67,    14.18
      129.0,      16.96,    21.38,    19.70,    12.63,    14.14
      130.0,      16.93,    21.35,    19.67,    12.58,    14.11
      131.0,      16.89,    21.31,    19.64,    12.53,    14.08
      132.0,      16.85,    21.27,    19.61,    12.48,    14.06
      133.0,      16.82,    21.24,    19.58,    12.44,    14.03
      134.0,      16.78,    21.20,    19.55,    12.39,    14.00
      135.0,      16.75,    21.16,    19.52,    12.34,    13.97
      136.0,      16.72,    21.13,    19.49,    12.30,    13.95
      137.0,      16.68,    21.09,    19.46,    12.26,    13.92
      138.0,      16.65,    21.06,    19.43,    12.21,    13.89
      139.0,      16.62,    21.03,    19.40,    12.17,    13.87
      140.0,      16.58,    20.99,    19.38,    12.13,    13.84
      141.0,      16.55,    20.96,    19.35,    12.09,    13.82
      142.0,      16.52,    20.93,    19.32,    12.04,    13.80
      143.0,      16.49,    20.90,    19.29,    12.00,    13.77
      144.0,      16.46,    20.86,    19.27,    11.96,    13.75
      145.0,      16.43,    20.83,    19.24,    11.92,    13.73
      146.0,      16.40,    20.80,    19.22,    11.88,    13.70
      147.0,      16.37,    20.77,    19.19,    11.84,    13.68
      148.0,      16.34,    20.74,    19.17,    11.81,    13.66
      149.0,      16.31,    20.71,    19.14,    11.77,    13.64
      150.0,      16.29,    20.68,    19.12,    11.73,    13.62
      151.0,      16.26,    20.65,    19.09,    11.69,    13.60
      152.0,      16.23,    20.62,    19.07,    11.66,    13.58
      153.0,      16.20,    20.59,    19.04,    11.62,    13.56
      154.0,      16.18,    20.56,    19.02,    11.58,    13.54
      155.0,      16.15,    20.54,    18.99,    11.55,    13.52
      156.0,      16.12,    20.51,    18.97,    11.51,    13.50
      157.0,      16.10,    20.48,    18.95,    11.48,    13.48
      158.0,      16.07,    20.45,    18.92,    11.44,    13.46
      159.0,      16.04,    20.42,    18.90,    11.41,    13.44
      160.0,      16.02,    20.40,    18.88,    11.37,    13.42
      161.0,      15.99,    20.37,    18.86,    11.34,    13.41
      162.0,      15.97,    20.34,    18.83,    11.30,    13.39
      163.0,      15.94,    20.32,    18.81,    11.27,    13.37
      164.0,      15.92,    20.29,    18.79,    11.24,    13.35
      165.0,      15.89,    20.26,    18.77,    11.20,    13.33
      166.0,      15.87,    20.24,    18.74,    11.17,    13.32
      167.0,      15.84,    20.21,    18.72,    11.14,    13.30
      168.0,      15.82,    20.19,    18.70,    11.10,    13.28
      169.0,      15.80,    20.16,    18.68,    11.07,    13.27
      170.0,      15.77,    20.14,    18.66,    11.04,    13.25
      171.0,      15.75,    20.11,    18.64,    11.01,    13.23
      172.0,      15.72,    20.09,    18.62,    10.98,    13.22
      173.0,      15.70,    20.06,    18.59,    10.95,    13.20
      174.0,      15.68,    20.04,    18.57,    10.91,    13.19
      175.0,      15.65,    20.01,    18.55,    10.88,    13.17
      176.0,      15.63,    19.99,    18.53,    10.85,    13.15
      177.0,      15.61,    19.97,    18.51,    10.82,    13.14
      178.0,      15.59,    19.94,    18.49,    10.79,    13.12
      179.0,      15.56,    19.92,    18.47,    10.76,    13.11
      180.0,      15.54,    19.89,    18.45,    10.73,    13.09
      181.0,      15.52,    19.87,    18.43,    10.70,    13.08
      182.0,      15.50,    19.85,    18.41,    10.67,    13.06
      183.0,      15.48,    19.82,    18.39,    10.64,    13.05
      184.0,      15.45,    19.80,    18.37,    10.61,    13.03
      185.0,      15.43,    19.78,    18.35,    10.58,    13.02
      186.0,      15.41,    19.76,    18.33,    10.55,    13.00
      187.0,      15.39,    19.73,    18.31,    10.52,    12.99
      188.0,      15.37,    19.71,    18.29,    10.49,    12.97
      189.0,      15.35,    19.69,    18.27,    10.46,    12.96
      190.0,      15.32,    19.66,    18.25,    10.44,    12.94
      191.0,      15.30,    19.64,    18.23,    10.41,    12.93
      192.0,      15.28,    19.62,    18.21,    10.38,    12.92
      193.0,      15.26,    19.60,    18.19,    10.35,    12.90
      194.0,      15.24,    19.58,    18.17,    10.32,    12.89
      195.0,      15.22,    19.55,    18.15,    10.29,    12.87
      196.0,      15.20,    19.53,    18.14,    10.27,    12.86
      197.0,      15.18,    19.51,    18.12,    10.24,    12.85
      198.0,      15.16,    19.49,    18.10,    10.21,    12.83
      199.0,      15.14,    19.47,    18.08,    10.18,    12.82
      200.0,      15.12,    19.45,    18.06,    10.16,    12.80
      201.0,      15.10,    19.42,    18.04,    10.13,    12.79
      202.0,      15.08,    19.40,    18.02,    10.10,    12.78
      203.0,      15.06,    19.38,    18.00,    10.07,    12.76
      204.0,      15.03,    19.36,    17.98,    10.05,    12.75
      205.0,      15.01,    19.34,    17.97,    10.02,    12.74
      206.0,      14.99,    19.32,    17.95,     9.99,    12.72
      207.0,      14.97,    19.30,    17.93,     9.97,    12.71
      208.0,      14.95,    19.28,    17.91,     9.94,    12.70
      209.0,      14.94,    19.26,    17.89,     9.91,    12.68
      210.0,      14.92,    19.23,    17.87,     9.89,    12.67
      211.0,      14.90,    19.21,    17.85,     9.86,    12.66
      212.0,      14.88,    19.19,    17.84,     9.83,    12.64
      213.0,      14.86,    19.17,    17.82,     9.81,    12.63
      214.0,      14.84,    19.15,    17.80,     9.78,    12.62
      215.0,      14.82,    19.13,    17.78,     9.75,    12.60
      216.0,      14.80,    19.11,    17.76,     9.73,    12.59
      217.0,      14.78,    19.09,    17.74,     9.70,    12.58
      218.0,      14.76,    19.07,    17.73,     9.68,    12.56
      219.0,      14.74,    19.05,    17.71,     9.65,    12.55
      220.0,      14.72,    19.03,    17.69,     9.62,    12.54
      221.0,      14.70,    19.01,    17.67,     9.60,    12.52
      222.0,      14.68,    18.99,    17.65,     9.57,    12.51
      223.0,      14.66,    18.97,    17.64,     9.55,    12.50
      224.0,      14.64,    18.95,    17.62,     9.52,    12.49
      225.0,      14.63,    18.93,    17.60,     9.50,    12.47
      226.0,      14.61,    18.91,    17.58,     9.47,    12.46
      227.0,      14.59,    18.89,    17.56,     9.45,    12.45
      228.0,      14.57,    18.87,    17.55,     9.42,    12.43
      229.0,      14.55,    18.85,    17.53,     9.40,    12.42
      230.0,      14.53,    18.83,    17.51,     9.37,    12.41
      231.0,      14.51,    18.81,    17.49,     9.35,    12.40
      232.0,      14.49,    18.79,    17.48,     9.32,    12.38
      233.0,      14.47,    18.77,    17.46,     9.30,    12.37
      234.0,      14.46,    18.75,    17.44,     9.27,    12.36
      235.0,      14.44,    18.73,    17.42,     9.25,    12.35
      236.0,      14.42,    18.71,    17.40,     9.23,    12.33
      237.0,      14.40,    18.70,    17.39,     9.20,    12.32
      238.0,      14.38,    18.68,    17.37,     9.18,    12.31
      239.0,      14.36,    18.66,    17.35,     9.15,    12.30
      240.0,      14.35,    18.64,    17.33,     9.13,    12.28
      241.0,      14.33,    18.62,    17.32,     9.10,    12.27
      242.0,      14.31,    18.60,    17.30,     9.08,    12.26
      243.0,      14.29,    18.58,    17.28,     9.06,    12.25
      244.0,      14.27,    18.56,    17.26,     9.03,    12.23
      245.0,      14.25,    18.54,    17.25,     9.01,    12.22
      246.0,      14.24,    18.52,    17.23,     8.99,    12.21
      247.0,      14.22,    18.50,    17.21,     8.96,    12.20
      248.0,      14.20,    18.48,    17.19,     8.94,    12.18
      249.0,      14.18,    18.47,    17.18,     8.91,    12.17
      250.0,      14.16,    18.45,    17.16,     8.89,    12.16
      251.0,      14.15,    18.43,    17.14,     8.87,    12.15
      252.0,      14.13,    18.41,    17.13,     8.84,    12.13
      253.0,      14.11,    18.39,    17.11,     8.82,    12.12
      254.0,      14.09,    18.37,    17.09,     8.80,    12.11
      255.0,      14.07,    18.35,    17.07,     8.77,    12.10
      256.0,      14.06,    18.33,    17.06,     8.75,    12.09
      257.0,      14.04,    18.32,    17.04,     8.73,    12.07
      258.0,      14.02,    18.30,    17.02,     8.71,    12.06
      259.0,      14.00,    18.28,    17.01,     8.68,    12.05
      260.0,      13.99,    18.26,    16.99,     8.66,    12.04
      261.0,      13.97,    18.24,    16.97,     8.64,    12.02
      262.0,      13.95,    18.22,    16.95,     8.62,    12.01
      263.0,      13.93,    18.20,    16.94,     8.59,    12.00
      264.0,      13.92,    18.18,    16.92,     8.57,    11.99
      265.0,      13.90,    18.17,    16.90,     8.55,    11.98
      266.0,      13.88,    18.15,    16.89,     8.53,    11.96
      267.0,      13.86,    18.13,    16.87,     8.50,    11.95
      268.0,      13.85,    18.11,    16.85,     8.48,    11.94
      269.0,      13.83,    18.09,    16.84,     8.46,    11.93
      270.0,      13.81,    18.07,    16.82,     8.44,    11.92
      271.0,      13.79,    18.06,    16.80,     8.41,    11.90
      272.0,      13.78,    18.04,    16.78,     8.39,    11.89
      273.0,      13.76,    18.02,    16.77,     8.37,    11.88
      274.0,      13.74,    18.00,    16.75,     8.35,    11.87
      275.0,      13.73,    17.98,    16.73,     8.33,    11.86
      276.0,      13.71,    17.97,    16.72,     8.30,    11.84
      277.0,      13.69,    17.95,    16.70,     8.28,    11.83
      278.0,      13.67,    17.93,    16.68,     8.26,    11.82
      279.0,      13.66,    17.91,    16.67,     8.24,    11.81
      280.0,      13.64,    17.89,    16.65,     8.22,    11.80
      281.0,      13.62,    17.87,    16.63,     8.20,    11.79
      282.0,      13.61,    17.86,    16.62,     8.17,    11.77
      283.0,      13.59,    17.84,    16.60,     8.15,    11.76
      284.0,      13.57,    17.82,    16.58,     8.13,    11.75
      285.0,      13.55,    17.80,    16.57,     8.11,    11.74
      286.0,      13.54,    17.78,    16.55,     8.09,    11.73
      287.0,      13.52,    17.77,    16.53,     8.07,    11.71
      288.0,      13.50,    17.75,    16.52,     8.05,    11.70
      289.0,      13.49,    17.73,    16.50,     8.03,    11.69
      290.0,      13.47,    17.71,    16.48,     8.01,    11.68
      291.0,      13.45,    17.70,    16.47,     7.98,    11.67
      292.0,      13.44,    17.68,    16.45,     7.96,    11.66
      293.0,      13.42,    17.66,    16.43,     7.94,    11.64
      294.0,      13.40,    17.64,    16.42,     7.92,    11.63
      295.0,      13.39,    17.62,    16.40,     7.90,    11.62
      296.0,      13.37,    17.61,    16.39,     7.88,    11.61
      297.0,      13.35,    17.59,    16.37,     7.86,    11.60
      298.0,      13.34,    17.57,    16.35,     7.84,    11.59
      299.0,      13.32,    17.55,    16.34,     7.82,    11.57
      300.0,      13.30,    17.54,    16.32,     7.80,    11.56
      301.0,      13.29,    17.52,    16.30,     7.78,    11.55
      302.0,      13.27,    17.50,    16.29,     7.76,    11.54
      303.0,      13.25,    17.48,    16.27,     7.74,    11.53
      304.0,      13.24,    17.47,    16.25,     7.72,    11.52
      305.0,      13.22,    17.45,    16.24,     7.70,    11.51
      306.0,      13.21,    17.43,    16.22,     7.68,    11.49
      307.0,      13.19,    17.41,    16.21,     7.66,    11.48
      308.0,      13.17,    17.40,    16.19,     7.64,    11.47
      309.0,      13.16,    17.38,    16.17,     7.62,    11.46
      310.0,      13.14,    17.36,    16.16,     7.60,    11.45
