Radius (km), Mean (m/s), NE (m/s), SE (m/s), SW (m/s), NW (m/s)
        0.0,       0.00,     0.00,     0.00,     0.00,     0.00
        1.0,       1.97,     1.91,     1.94,     2.08,     1.94
        2.0,       3.52,     3.46,     3.49,     3.63,     3.49
        3.0,       4.94,     4.89,     4.92,     5.02,     4.92
        4.0,       6.28,     6.26,     6.28,     6.31,     6.28
        5.0,       7.58,     7.58,     7.58,     7.55,     7.58
        6.0,       8.83,     8.87,     8.85,     8.74,     8.85
        7.0,      10.04,    10.12,    10.08,     9.88,    10.08
        8.0,      11.23,    11.35,    11.29,    11.00,    11.29
        9.0,      12.40,    12.56,    12.47,    12.09,    12.47
       10.0,      13.54,    13.74,    13.64,    13.15,    13.64
       11.0,      14.67,    14.91,    14.78,    14.19,    14.78
       12.0,      15.78,    16.07,    15.91,    15.22,    15.91
       13.0,      16.87,    17.21,    17.03,    16.23,    17.03
       14.0,      17.95,    18.34,    18.13,    17.22,    18.13
       15.0,      19.02,    19.46,    19.22,    18.20,    19.22
       16.0,      20.08,    20.57,    20.30,    19.16,    20.30
       17.0,      21.13,    21.67,    21.37,    20.11,    21.37
       18.0,      22.19,    22.80,    22.46,    21.06,    22.45
       19.0,      23.29,    23.99,    23.59,    22.01,    23.58
       20.0,      24.48,    25.29,    24.80,    23.01,    24.80
       21.0,      25.77,    26.71,    26.13,    24.09,    26.14
       22.0,      27.17,    28.25,    27.56,    25.27,    27.61
       23.0,      28.68,    29.88,    29.08,    26.56,    29.19
       24.0,      30.22,    31.53,    30.64,    27.92,    30.81
       25.0,      31.74,    33.12,    32.15,    29.30,    32.40
       26.0,      33.16,    34.58,    33.55,    30.63,    33.86
       27.0,      34.38,    35.82,    34.77,    31.81,    35.13
       28.0,      35.36,    36.79,    35.74,    32.78,    36.12
       29.0,      36.04,    37.45,    36.44,    33.48,    36.80
       30.0,      36.43,    37.82,    36.85,    33.89,    37.16
       31.0,      36.53,    37.91,    37.01,    34.00,    37.22
       32.0,      36.40,    37.78,    36.96,    33.84,    37.02
       33.0,      36.09,    37.50,    36.75,    33.48,    36.65
       34.0,      35.67,    37.12,    36.44,    32.97,    36.16
       35.0,      35.20,    36.71,    36.09,    32.37,    35.61
       36.0,      34.71,    36.30,    35.73,    31.76,    35.06
       37.0,      34.25,    35.91,    35.40,    31.16,    34.54
       38.0,      33.82,    35.54,    35.08,    30.59,    34.05
       39.0,      33.41,    35.20,    34.79,    30.07,    33.59
       40.0,      33.02,    34.86,    34.50,    29.58,    33.15
       41.0,      32.65,    34.54,    34.22,    29.12,    32.72
       42.0,      32.29,    34.23,    33.96,    28.67,    32.30
       43.0,      31.94,    33.93,    33.69,    28.23,    31.90
       44.0,      31.60,    33.64,    33.44,    27.81,    31.51
       45.0,      31.27,    33.35,    33.19,    27.40,    31.13
       46.0,      30.95,    33.08,    32.95,    27.01,    30.77
       47.0,      30.64,    32.81,    32.72,    26.63,    30.41
       48.0,      30.34,    32.55,    32.49,    26.26,    30.07
       49.0,      30.05,    32.30,    32.27,    25.90,    29.73
       50.0,      29.77,    32.06,    32.05,    25.56,    29.41
       51.0,      29.50,    31.82,    31.84,    25.23,    29.10
       52.0,      29.23,    31.59,    31.64,    24.90,    28.79
       53.0,      28.97,    31.37,    31.44,    24.59,    28.50
       54.0,      28.72,    31.15,    31.24,    24.29,    28.21
       55.0,      28.48,    30.94,    31.05,    24.00,    27.93
       56.0,      28.25,    30.74,    30.87,    23.71,    27.66
       57.0,      28.02,    30.54,    30.69,    23.44,    27.40
       58.0,      27.79,    30.35,    30.51,    23.17,    27.14
       59.0,      27.58,    30.16,    30.34,    22.92,    26.90
       60.0,      27.37,    29.98,    30.17,    22.67,    26.66
       61.0,      27.16,    29.80,    30.00,    22.42,    26.42
       62.0,      26.96,    29.62,    29.84,    22.19,    26.19
       63.0,      26.77,    29.45,    29.68,    21.96,    25.97
       64.0,      26.58,    29.29,    29.53,    21.74,    25.76
       65.0,      26.39,    29.13,    29.38,    21.52,    25.55
       66.0,      26.21,    28.97,    29.23,    21.31,    25.35
       67.0,      26.04,    28.82,    29.08,    21.11,    25.15
       68.0,      25.87,    28.67,    28.94,    20.91,    24.96
       69.0,      25.70,    28.52,    28.80,    20.72,    24.77
       70.0,      25.54,    28.38,    28.66,    20.53,    24.59
       71.0,      25.38,    28.24,    28.53,    20.35,    24.41
       72.0,      25.23,    28.11,    28.39,    20.18,    24.24
       73.0,      25.08,    27.97,    28.27,    20.00,    24.07
       74.0,      24.93,    27.84,    28.14,    19.84,    23.91
       75.0,      24.79,    27.72,    28.01,    19.67,    23.75
       76.0,      24.65,    27.59,    27.89,    19.52,    23.59
       77.0,      24.51,    27.47,    27.77,    19.36,    23.44
       78.0,      24.38,    27.35,    27.65,    19.21,    23.29
       79.0,      24.24,    27.23,    27.53,    19.06,    23.14
       80.0,      24.12,    27.12,    27.42,    18.92,    23.00
       81.0,      23.99,    27.01,    27.31,    18.78,    22.87
       82.0,      23.87,    26.90,    27.19,    18.64,    22.73
       83.0,      23.75,    26.79,    27.08,    18.51,    22.60
       84.0,      23.63,    26.68,    26.98,    18.38,    22.47
       85.0,      23.51,    26.58,    26.87,    18.25,    22.35
       86.0,      23.40,    26.48,    26.76,    18.13,    22.22
       87.0,      23.29,    26.38,    26.66,    18.01,    22.10
       88.0,      23.18,    26.28,    26.56,    17.89,    21.99
       89.0,      23.07,    26.18,    26.46,    17.77,    21.87
       90.0,      22.97,    26.08,    26.36,    17.66,    21.76
       91.0,      22.86,    25.99,    26.26,    17.55,    21.65
       92.0,      22.76,    25.90,    26.16,    17.44,    21.54
       93.0,      22.66,    25.81,    26.07,    17.33,    21.43
       94.0,      22.56,    25.72,    25.97,    17.23,    21.33
       95.0,      22.47,    25.63,    25.88,    17.13,    21.23
       96.0,      22.37,    25.54,    25.79,    17.03,    21.13
       97.0,      22.28,    25.46,    25.69,    16.93,    21.03
       98.0,      22.19,    25.37,    25.60,    16.83,    20.94
       99.0,      22.10,    25.29,    25.51,    16.74,    20.84
      100.0,      22.01,    25.21,    25.43,    16.64,    20.75
      101.0,      21.92,    25.13,    25.34,    16.55,    20.66
      102.0,      21.83,    25.04,    25.25,    16.46,    20.57
      103.0,      21.75,    24.97,    25.17,    16.37,    20.49
      104.0,      21.66,    24.89,    25.08,    16.29,    20.40
      105.0,      21.58,    24.81,    25.00,    16.20,    20.32
      106.0,      21.50,    24.73,    24.91,    16.12,    20.23
      107.0,      21.42,    24.66,    24.83,    16.04,    20.15
      108.0,      21.34,    24.58,    24.75,    15.96,    20.07
      109.0,      21.26,    24.51,    24.67,    15.88,    20.00
      110.0,      21.18,    24.44,    24.59,    15.80,    19.92
      111.0,      21.11,    24.37,    24.51,    15.72,    19.84
      112.0,      21.03,    24.29,    24.43,    15.64,    19.77
      113.0,      20.96,    24.22,    24.35,    15.57,    19.69
      114.0,      20.88,    24.15,    24.27,    15.49,    19.62
      115.0,      20.81,    24.08,    24.19,    15.42,    19.55
      116.0,      20.74,    24.01,    24.12,    15.35,    19.48
      117.0,      20.67,    23.95,    24.04,    15.28,    19.41
      118.0,      20.60,    23.88,    23.96,    15.21,    19.34
      119.0,      20.53,    23.81,    23.89,    15.14,    19.27
      120.0,      20.46,    23.75,    23.81,    15.07,    19.20
      121.0,      20.39,    23.68,    23.74,    15.00,    19.14
      122.0,      20.32,    23.61,    23.67,    14.93,    19.07
      123.0,      20.26,    23.55,    23.59,    14.87,    19.01
      124.0,      20.19,    23.49,    23.52,    14.80,    18.95
      125.0,      20.12,    23.42,    23.45,    14.74,    18.88
      126.0,      20.06,    23.36,    23.38,    14.67,    18.82
      127.0,      19.99,    23.30,    23.30,    14.61,    18.76
      128.0,      19.93,    23.23,    23.23,    14.55,    18.70
      129.0,      19.87,    23.17,    23.16,    14.49,    18.64
      130.0,      19.80,    23.11,    23.09,    14.43,    18.58
      131.0,      19.74,    23.05,    23.02,    14.37,    18.52
      132.0,      19.68,    22.99,    22.95,    14.31,    18.46
      133.0,      19.62,    22.93,    22.89,    14.25,    18.41
      134.0,      19.56,    22.87,    22.82,    14.19,    18.35
      135.0,      19.49,    22.81,    22.75,    14.13,    18.29
      136.0,      19.43,    22.75,    22.68,    14.07,    18.24
      137.0,      19.38,    22.69,    22.61,    14.01,    18.18
      138.0,      19.32,    22.63,    22.55,    13.96,    18.13
      139.0,      19.26,    22.57,    22.48,    13.90,    18.07
      140.0,      19.20,    22.52,    22.41,    13.85,    18.02
      141.0,      19.14,    22.46,    22.35,    13.79,    17.97
      142.0,      19.08,    22.40,    22.28,    13.74,    17.91
      143.0,      19.03,    22.35,    22.21,    13.68,    17.86
      144.0,      18.97,    22.29,    22.15,    13.63,    17.81
      145.0,      18.91,    22.23,    22.08,    13.57,    17.76
      146.0,      18.86,    22.18,    22.02,    13.52,    17.71
      147.0,      18.80,    22.12,    21.96,    13.47,    17.66
      148.0,      18.74,    22.07,    21.89,    13.42,    17.61
      149.0,      18.69,    22.01,    21.83,    13.36,    17.56
      150.0,      18.63,    21.95,    21.76,    13.31,    17.51
      151.0,      18.58,    21.90,    21.70,    13.26,    17.46
      152.0,      18.53,    21.85,    21.64,    13.21,    17.41
      153.0,      18.47,    21.79,    21.58,    13.16,    17.36
      154.0,      18.42,    21.74,    21.51,    13.11,    17.31
      155.0,      18.36,    21.68,    21.45,    13.06,    17.27
      156.0,      18.31,    21.63,    21.39,    13.01,    17.22
      157.0,      18.26,    21.58,    21.33,    12.96,    17.17
      158.0,      18.21,    21.52,    21.27,    12.91,    17.12
      159.0,      18.15,    21.47,    21.20,    12.86,    17.08
      160.0,      18.10,    21.42,    21.14,    12.82,    17.03
      161.0,      18.05,    21.37,    21.08,    12.77,    16.99
      162.0,      18.00,    21.31,    21.02,    12.72,    16.94
      163.0,      17.95,    21.26,    20.96,    12.67,    16.89
      164.0,      17.90,    21.21,    20.90,    12.63,    16.85
      165.0,      17.85,    21.16,    20.84,    12.58,    16.80
      166.0,      17.79,    21.11,    20.78,    12.53,    16.76
      167.0,      17.74,    21.05,    20.72,    12.49,    16.72
      168.0,      17.69,    21.00,    20.66,    12.44,    16.67
      169.0,      17.64,    20.95,    20.60,    12.39,    16.63
      170.0,      17.59,    20.90,    20.54,    12.35,    16.58
      171.0,      17.54,    20.85,    20.49,    12.30,    16.54
      172.0,      17.50,    20.80,    20.43,    12.26,    16.50
      173.0,      17.45,    20.75,    20.37,    12.21,    16.45
      174.0,      17.40,    20.70,    20.31,    12.17,    16.41
      175.0,      17.35,    20.65,    20.25,    12.12,    16.37
      176.0,      17.30,    20.60,    20.20,    12.08,    16.33
      177.0,      17.25,    20.55,    20.14,    12.04,    16.28
      178.0,      17.20,    20.50,    20.08,    11.99,    16.24
      179.0,      17.16,    20.45,    20.02,    11.95,    16.20
      180.0,      17.11,    20.40,    19.97,    11.90,    16.16
      181.0,      17.06,    20.35,    19.91,    11.86,    16.12
      182.0,      17.01,    20.31,    19.85,    11.82,    16.08
      183.0,      16.97,    20.26,    19.80,    11.78,    16.03
      184.0,      16.92,    20.21,    19.74,    11.73,    15.99
      185.0,      16.87,    20.16,    19.69,    11.69,    15.95
      186.0,      16.83,    20.11,    19.63,    11.65,    15.91
      187.0,      16.78,    20.06,    19.57,    11.61,    15.87
      188.0,      16.73,    20.02,    19.52,    11.57,    15.83
      189.0,      16.69,    19.97,    19.46,    11.52,    15.79
      190.0,      16.64,    19.92,    19.41,    11.48,    15.75
      191.0,      16.59,    19.87,    19.35,    11.44,    15.71
      192.0,      16.55,    19.82,    19.30,    11.40,    15.67
      193.0,      16.50,    19.78,    19.24,    11.36,    15.63
      194.0,      16.46,    19.73,    19.19,    11.32,    15.59
      195.0,      16.41,    19.68,    19.14,    11.28,    15.55
      196.0,      16.37,    19.64,    19.08,    11.24,    15.51
      197.0,      16.32,    19.59,    19.03,    11.20,    15.48
      198.0,      16.28,    19.54,    18.97,    11.16,    15.44
      199.0,      16.23,    19.50,    18.92,    11.12,    15.40
      200.0,      16.19,    19.45,    18.87,    11.08,    15.36
      201.0,      16.14,    19.40,    18.81,    11.04,    15.32
      202.0,      16.10,    19.36,    18.76,    11.00,    15.28
      203.0,      16.06,    19.31,    18.71,    10.96,    15.24
      204.0,      16.01,    19.27,    18.65,    10.92,    15.21
      205.0,      15.97,    19.22,    18.60,    10.88,    15.17
      206.0,      15.92,    19.17,    18.55,    10.84,    15.13
      207.0,      15.88,    19.13,    18.50,    10.81,    15.09
      208.0,      15.84,    19.08,    18.45,    10.77,    15.06
      209.0,      15.79,    19.04,    18.39,    10.73,    15.02
      210.0,      15.75,    18.99,    18.34,    10.69,    14.98
      211.0,      15.71,    18.95,    18.29,    10.65,    14.94
      212.0,      15.67,    18.90,    18.24,    10.61,    14.91
      213.0,      15.62,    18.86,    18.19,    10.58,    14.87
      214.0,      15.58,    18.81,    18.14,    10.54,    14.83
      215.0,      15.54,    18.77,    18.08,    10.50,    14.80
      216.0,      15.50,    18.72,    18.03,    10.47,    14.76
      217.0,      15.45,    18.68,    17.98,    10.43,    14.72
      218.0,      15.41,    18.64,    17.93,    10.39,    14.69
      219.0,      15.37,    18.59,    17.88,    10.35,    14.65
      220.0,      15.33,    18.55,    17.83,    10.32,    14.61
      221.0,      15.29,    18.50,    17.78,    10.28,    14.58
      222.0,      15.24,    18.46,    17.73,    10.24,    14.54
      223.0,      15.20,    18.42,    17.68,    10.21,    14.51
      224.0,      15.16,    18.37,    17.63,    10.17,    14.47
      225.0,      15.12,    18.33,    17.58,    10.14,    14.44
      226.0,      15.08,    18.29,    17.53,    10.10,    14.40
      227.0,      15.04,    18.24,    17.48,    10.07,    14.36
      228.0,      15.00,    18.20,    17.43,    10.03,    14.33
      229.0,      14.96,    18.16,    17.39,     9.99,    14.29
      230.0,      14.92,    18.11,    17.34,     9.96,    14.26
      231.0,      14.88,    18.07,    17.29,     9.92,    14.22
      232.0,      14.84,    18.03,    17.24,     9.89,    14.19
      233.0,      14.80,    17.98,    17.19,     9.85,    14.15
      234.0,      14.76,    17.94,    17.14,     9.82,    14.12
      235.0,      14.72,    17.90,    17.09,     9.78,    14.08
      236.0,      14.68,    17.86,    17.05,     9.75,    14.05
      237.0,      14.64,    17.81,    17.00,     9.72,    14.02
      238.0,      14.60,    17.77,    16.95,     9.68,    13.98
      239.0,      14.56,    17.73,    16.90,     9.65,    13.95
      240.0,      14.52,    17.69,    16.85,     9.61,    13.91
      241.0,      14.48,    17.65,    16.81,     9.58,    13.88
      242.0,      14.44,    17.61,    16.76,     9.55,    13.85
      243.0,      14.40,    17.56,    16.71,     9.51,    13.81
      244.0,      14.36,    17.52,    16.67,     9.48,    13.78
      245.0,      14.32,    17.48,    16.62,     9.45,    13.74
      246.0,      14.28,    17.44,    16.57,     9.41,    13.71
      247.0,      14.25,    17.40,    16.53,     9.38,    13.68
      248.0,      14.21,    17.36,    16.48,     9.35,    13.64
      249.0,      14.17,    17.32,    16.43,     9.31,    13.61
      250.0,      14.13,    17.28,    16.39,     9.28,    13.58
      251.0,      14.09,    17.23,    16.34,     9.25,    13.54
      252.0,      14.05,    17.19,    16.30,     9.22,    13.51
      253.0,      14.02,    17.15,    16.25,     9.18,    13.48
      254.0,      13.98,    17.11,    16.20,     9.15,    13.44
      255.0,      13.94,    17.07,    16.16,     9.12,    13.41
      256.0,      13.90,    17.03,    16.11,     9.09,    13.38
      257.0,      13.87,    16.99,    16.07,     9.05,    13.35
      258.0,      13.83,    16.95,    16.02,     9.02,    13.31
      259.0,      13.79,    16.91,    15.98,     8.99,    13.28
      260.0,      13.75,    16.87,    15.93,     8.96,    13.25
      261.0,      13.72,    16.83,    15.89,     8.93,    13.22
      262.0,      13.68,    16.79,    15.84,     8.90,    13.18
      263.0,      13.64,    16.75,    15.80,     8.87,    13.15
      264.0,      13.61,    16.71,    15.75,     8.83,    13.12
      265.0,      13.57,    16.67,    15.71,     8.80,    13.09
      266.0,      13.53,    16.63,    15.67,     8.77,    13.06
      267.0,      13.50,    16.60,    15.62,     8.74,    13.02
      268.0,      13.46,    16.56,    15.58,     8.71,    12.99
      269.0,      13.42,    16.52,    15.53,     8.68,    12.96
      270.0,      13.39,    16.48,    15.49,     8.65,    12.93
      271.0,      13.35,    16.44,    15.45,     8.62,    12.90
      272.0,      13.31,    16.40,    15.40,     8.59,    12.87
      273.0,      13.28,    16.36,    15.36,     8.56,    12.83
      274.0,      13.24,    16.32,    15.32,     8.53,    12.80
      275.0,      13.21,    16.28,    15.27,     8.50,    12.77
      276.0,      13.17,    16.25,    15.23,     8.47,    12.74
      277.0,      13.14,    16.21,    15.19,     8.44,    12.71
      278.0,      13.10,    16.17,    15.15,     8.41,    12.68
      279.0,      13.07,    16.13,    15.10,     8.38,    12.65
      280.0,      13.03,    16.09,    15.06,     8.35,    12.62
      281.0,      13.00,    16.06,    15.02,     8.32,    12.59
      282.0,      12.96,    16.02,    14.98,     8.29,    12.56
      283.0,      12.93,    15.98,    14.94,     8.26,    12.53
      284.0,      12.89,    15.94,    14.89,     8.23,    12.50
      285.0,      12.86,    15.90,    14.85,     8.20,    12.46
      286.0,      12.82,    15.87,    14.81,     8.18,    12.43
      287.0,      12.79,    15.83,    14.77,     8.15,    12.40
      288.0,      12.75,    15.79,    14.73,     8.12,    12.37
      289.0,      12.72,    15.75,    14.69,     8.09,    12.34
      290.0,      12.68,    15.72,    14.64,     8.06,    12.31
      291.0,      12.65,    15.68,    14.60,     8.03,    12.28
      292.0,      12.62,    15.64,    14.56,     8.00,    12.25
      293.0,      12.58,    15.61,    14.52,     7.98,    12.22
      294.0,      12.55,    15.57,    14.48,     7.95,    12.19
      295.0,      12.51,    15.53,    14.44,     7.92,    12.16
      296.0,      12.48,    15.50,    14.40,     7.89,    12.14
      297.0,      12.45,    15.46,    14.36,     7.87,    12.11
      298.0,      12.41,    15.42,    14.32,     7.84,    12.08
      299.0,      12.38,    15.39,    14.28,     7.81,    12.05
      300.0,      12.35,    15.35,    14.24,     7.78,    12.02
      301.0,      12.31,    15.31,    14.20,     7.76,    11.99
      302.0,      12.28,    15.28,    14.16,     7.73,    11.96
      303.0,      12.25,    15.24,    14.12,     7.70,    11.93
      304.0,      12.22,    15.21,    14.08,     7.67,    11.90
      305.0,      12.18,    15.17,    14.04,     7.65,    11.87
      306.0,      12.15,    15.13,    14.00,     7.62,    11.84
      307.0,      12.12,    15.10,    13.96,     7.59,    11.81
      308.0,      12.08,    15.06,    13.92,     7.57,    11.79
      309.0,      12.05,    15.03,    13.88,     7.54,    11.76
      310.0,      12.02,    14.99,    13.84,     7.51,    11.73
