Radius (km), Mean (m/s), NE (m/s), SE (m/s), SW (m/s), NW (m/s)
        0.0,       0.00,     0.00,     0.00,     0.00,     0.00
        1.0,       1.75,     1.27,     1.73,     2.25,     1.73
        2.0,       3.46,     2.83,     3.47,     4.06,     3.47
        3.0,       5.18,     4.53,     5.22,     5.74,     5.22
        4.0,       6.89,     6.31,     6.97,     7.33,     6.97
        5.0,       8.62,     8.17,     8.72,     8.86,     8.72
        6.0,      10.34,    10.09,    10.47,    10.35,    10.47
        7.0,      12.08,    12.06,    12.22,    11.81,    12.22
        8.0,      13.81,    14.07,    13.97,    13.23,    13.97
        9.0,      15.55,    16.12,    15.73,    14.62,    15.73
       10.0,      17.29,    18.21,    17.48,    16.00,    17.48
       11.0,      19.04,    20.33,    19.24,    17.35,    19.23
       12.0,      20.79,    22.49,    21.00,    18.69,    20.99
       13.0,      22.59,    24.77,    22.81,    20.01,    22.77
       14.0,      24.49,    27.26,    24.74,    21.34,    24.63
       15.0,      26.56,    30.05,    26.85,    22.73,    26.62
       16.0,      28.86,    33.23,    29.20,    24.22,    28.81
       17.0,      31.40,    36.78,    31.77,    25.85,    31.21
       18.0,      34.14,    40.61,    34.53,    27.62,    33.80
       19.0,      36.99,    44.58,    37.37,    29.50,    36.51
       20.0,      39.82,    48.48,    40.16,    31.42,    39.22
       21.0,      42.48,    52.07,    42.75,    33.28,    41.80
       22.0,      44.81,    55.16,    45.00,    34.98,    44.11
       23.0,      46.71,    57.58,    46.81,    36.40,    46.04
       24.0,      48.08,    59.24,    48.10,    37.49,    47.49
       25.0,      48.91,    60.13,    48.88,    38.18,    48.44
       26.0,      49.22,    60.31,    49.17,    38.49,    48.91
       27.0,      49.09,    59.91,    49.05,    38.44,    48.95
       28.0,      48.62,    59.09,    48.64,    38.10,    48.66
       29.0,      47.93,    58.00,    48.03,    37.56,    48.14
       30.0,      47.14,    56.81,    47.34,    36.89,    47.51
       31.0,      46.31,    55.61,    46.63,    36.18,    46.83
       32.0,      45.51,    54.47,    45.94,    35.48,    46.16
       33.0,      44.76,    53.40,    45.30,    34.82,    45.54
       34.0,      44.05,    52.38,    44.68,    34.21,    44.94
       35.0,      43.38,    51.41,    44.09,    33.64,    44.36
       36.0,      42.72,    50.48,    43.51,    33.09,    43.80
       37.0,      42.08,    49.58,    42.95,    32.57,    43.25
       38.0,      41.47,    48.71,    42.40,    32.06,    42.70
       39.0,      40.87,    47.87,    41.86,    31.56,    42.17
       40.0,      40.28,    47.06,    41.34,    31.09,    41.64
       41.0,      39.72,    46.28,    40.83,    30.63,    41.13
       42.0,      39.17,    45.53,    40.33,    30.18,    40.62
       43.0,      38.63,    44.80,    39.85,    29.75,    40.12
       44.0,      38.11,    44.10,    39.38,    29.34,    39.63
       45.0,      37.61,    43.43,    38.92,    28.94,    39.15
       46.0,      37.12,    42.78,    38.47,    28.55,    38.68
       47.0,      36.64,    42.15,    38.03,    28.17,    38.22
       48.0,      36.18,    41.54,    37.60,    27.80,    37.76
       49.0,      35.73,    40.95,    37.19,    27.45,    37.31
       50.0,      35.29,    40.39,    36.78,    27.11,    36.87
       51.0,      34.86,    39.84,    36.39,    26.78,    36.44
       52.0,      34.45,    39.32,    36.00,    26.46,    36.01
       53.0,      34.04,    38.81,    35.62,    26.14,    35.60
       54.0,      33.65,    38.32,    35.26,    25.84,    35.18
       55.0,      33.27,    37.84,    34.90,    25.55,    34.78
       56.0,      32.90,    37.38,    34.55,    25.27,    34.39
       57.0,      32.53,    36.94,    34.21,    24.99,    34.00
       58.0,      32.18,    36.51,    33.87,    24.72,    33.61
       59.0,      31.84,    36.10,    33.55,    24.46,    33.24
       60.0,      31.50,    35.70,    33.23,    24.21,    32.87
       61.0,      31.18,    35.31,    32.92,    23.97,    32.50
       62.0,      30.86,    34.94,    32.62,    23.73,    32.15
       63.0,      30.55,    34.58,    32.32,    23.50,    31.80
       64.0,      30.25,    34.23,    32.03,    23.27,    31.45
       65.0,      29.95,    33.89,    31.75,    23.06,    31.11
       66.0,      29.67,    33.56,    31.48,    22.84,    30.78
       67.0,      29.39,    33.25,    31.21,    22.64,    30.45
       68.0,      29.11,    32.94,    30.94,    22.44,    30.13
       69.0,      28.85,    32.64,    30.69,    22.24,    29.81
       70.0,      28.59,    32.35,    30.44,    22.05,    29.50
       71.0,      28.33,    32.08,    30.19,    21.86,    29.20
       72.0,      28.08,    31.81,    29.95,    21.68,    28.90
       73.0,      27.84,    31.55,    29.72,    21.51,    28.60
       74.0,      27.61,    31.29,    29.49,    21.33,    28.31
       75.0,      27.38,    31.05,    29.27,    21.17,    28.03
       76.0,      27.15,    30.81,    29.05,    21.00,    27.75
       77.0,      26.93,    30.58,    28.84,    20.84,    27.47
       78.0,      26.72,    30.35,    28.63,    20.69,    27.20
       79.0,      26.51,    30.14,    28.42,    20.54,    26.93
       80.0,      26.30,    29.92,    28.22,    20.39,    26.67
       81.0,      26.10,    29.72,    28.03,    20.24,    26.41
       82.0,      25.90,    29.52,    27.84,    20.10,    26.16
       83.0,      25.71,    29.33,    27.65,    19.96,    25.91
       84.0,      25.52,    29.14,    27.47,    19.82,    25.66
       85.0,      25.34,    28.96,    27.29,    19.69,    25.42
       86.0,      25.16,    28.78,    27.11,    19.56,    25.19
       87.0,      24.98,    28.61,    26.94,    19.43,    24.95
       88.0,      24.81,    28.44,    26.77,    19.31,    24.72
       89.0,      24.64,    28.28,    26.61,    19.19,    24.50
       90.0,      24.48,    28.12,    26.45,    19.07,    24.28
       91.0,      24.32,    27.96,    26.29,    18.95,    24.06
       92.0,      24.16,    27.81,    26.14,    18.83,    23.85
       93.0,      24.00,    27.66,    25.98,    18.72,    23.64
       94.0,      23.85,    27.52,    25.84,    18.61,    23.43
       95.0,      23.70,    27.38,    25.69,    18.50,    23.22
       96.0,      23.55,    27.25,    25.55,    18.39,    23.02
       97.0,      23.41,    27.11,    25.41,    18.29,    22.83
       98.0,      23.27,    26.98,    25.27,    18.19,    22.63
       99.0,      23.13,    26.86,    25.14,    18.08,    22.44
      100.0,      22.99,    26.73,    25.01,    17.99,    22.25
      101.0,      22.86,    26.61,    24.88,    17.89,    22.07
      102.0,      22.73,    26.50,    24.75,    17.79,    21.89
      103.0,      22.60,    26.38,    24.62,    17.70,    21.71
      104.0,      22.48,    26.27,    24.50,    17.60,    21.53
      105.0,      22.35,    26.16,    24.38,    17.51,    21.36
      106.0,      22.23,    26.05,    24.27,    17.42,    21.19
      107.0,      22.11,    25.95,    24.15,    17.33,    21.02
      108.0,      21.99,    25.84,    24.04,    17.24,    20.86
      109.0,      21.88,    25.74,    23.93,    17.16,    20.70
      110.0,      21.77,    25.64,    23.82,    17.07,    20.54
      111.0,      21.65,    25.55,    23.71,    16.99,    20.38
      112.0,      21.54,    25.45,    23.60,    16.90,    20.22
      113.0,      21.44,    25.36,    23.50,    16.82,    20.07
      114.0,      21.33,    25.27,    23.40,    16.74,    19.92
      115.0,      21.23,    25.18,    23.30,    16.66,    19.77
      116.0,      21.12,    25.09,    23.20,    16.58,    19.63
      117.0,      21.02,    25.00,    23.10,    16.50,    19.49
      118.0,      20.92,    24.92,    23.01,    16.42,    19.35
      119.0,      20.83,    24.83,    22.91,    16.35,    19.21
      120.0,      20.73,    24.75,    22.82,    16.27,    19.07
      121.0,      20.63,    24.67,    22.73,    16.20,    18.94
      122.0,      20.54,    24.59,    22.64,    16.12,    18.81
      123.0,      20.45,    24.51,    22.55,    16.05,    18.68
      124.0,      20.36,    24.44,    22.47,    15.98,    18.55
      125.0,      20.27,    24.36,    22.38,    15.91,    18.42
      126.0,      20.18,    24.29,    22.30,    15.84,    18.30
      127.0,      20.09,    24.21,    22.21,    15.77,    18.18
      128.0,      20.01,    24.14,    22.13,    15.70,    18.06
      129.0,      19.92,    24.07,    22.05,    15.63,    17.94
      130.0,      19.84,    24.00,    21.97,    15.56,    17.82
      131.0,      19.76,    23.93,    21.90,    15.49,    17.71
      132.0,      19.68,    23.86,    21.82,    15.43,    17.59
      133.0,      19.60,    23.79,    21.74,    15.36,    17.48
      134.0,      19.52,    23.73,    21.67,    15.30,    17.37
      135.0,      19.44,    23.66,    21.59,    15.23,    17.26
      136.0,      19.36,    23.60,    21.52,    15.17,    17.16
      137.0,      19.28,    23.53,    21.45,    15.10,    17.05
      138.0,      19.21,    23.47,    21.38,    15.04,    16.95
      139.0,      19.13,    23.41,    21.31,    14.98,    16.85
      140.0,      19.06,    23.34,    21.24,    14.91,    16.75
      141.0,      18.99,    23.28,    21.17,    14.85,    16.65
      142.0,      18.92,    23.22,    21.10,    14.79,    16.55
      143.0,      18.85,    23.16,    21.04,    14.73,    16.45
      144.0,      18.78,    23.10,    20.97,    14.67,    16.36
      145.0,      18.71,    23.04,    20.91,    14.61,    16.27
      146.0,      18.64,    22.99,    20.84,    14.55,    16.17
      147.0,      18.57,    22.93,    20.78,    14.49,    16.08
      148.0,      18.50,    22.87,    20.72,    14.43,    15.99
      149.0,      18.44,    22.81,    20.66,    14.38,    15.91
      150.0,      18.37,    22.76,    20.60,    14.32,    15.82
      151.0,      18.31,    22.70,    20.53,    14.26,    15.73
      152.0,      18.24,    22.65,    20.47,    14.20,    15.65
      153.0,      18.18,    22.59,    20.42,    14.15,    15.57
      154.0,      18.12,    22.54,    20.36,    14.09,    15.48
      155.0,      18.05,    22.48,    20.30,    14.03,    15.40
      156.0,      17.99,    22.43,    20.24,    13.98,    15.32
      157.0,      17.93,    22.38,    20.18,    13.92,    15.24
      158.0,      17.87,    22.33,    20.13,    13.87,    15.17
      159.0,      17.81,    22.27,    20.07,    13.81,    15.09
      160.0,      17.75,    22.22,    20.02,    13.76,    15.01
      161.0,      17.69,    22.17,    19.96,    13.71,    14.94
      162.0,      17.64,    22.12,    19.91,    13.65,    14.87
      163.0,      17.58,    22.07,    19.86,    13.60,    14.79
      164.0,      17.52,    22.02,    19.80,    13.54,    14.72
      165.0,      17.47,    21.97,    19.75,    13.49,    14.65
      166.0,      17.41,    21.92,    19.70,    13.44,    14.58
      167.0,      17.35,    21.87,    19.65,    13.39,    14.51
      168.0,      17.30,    21.82,    19.60,    13.34,    14.45
      169.0,      17.24,    21.77,    19.54,    13.28,    14.38
      170.0,      17.19,    21.72,    19.49,    13.23,    14.31
      171.0,      17.14,    21.67,    19.44,    13.18,    14.25
      172.0,      17.08,    21.62,    19.39,    13.13,    14.18
      173.0,      17.03,    21.58,    19.35,    13.08,    14.12
      174.0,      16.98,    21.53,    19.30,    13.03,    14.06
      175.0,      16.93,    21.48,    19.25,    12.98,    14.00
      176.0,      16.87,    21.43,    19.20,    12.93,    13.93
      177.0,      16.82,    21.39,    19.15,    12.88,    13.87
      178.0,      16.77,    21.34,    19.11,    12.83,    13.81
      179.0,      16.72,    21.29,    19.06,    12.78,    13.76
      180.0,      16.67,    21.25,    19.01,    12.73,    13.70
      181.0,      16.62,    21.20,    18.97,    12.68,    13.64
      182.0,      16.57,    21.15,    18.92,    12.64,    13.58
      183.0,      16.52,    21.11,    18.87,    12.59,    13.53
      184.0,      16.48,    21.06,    18.83,    12.54,    13.47
      185.0,      16.43,    21.02,    18.78,    12.49,    13.42
      186.0,      16.38,    20.97,    18.74,    12.44,    13.36
      187.0,      16.33,    20.93,    18.70,    12.40,    13.31
      188.0,      16.29,    20.88,    18.65,    12.35,    13.26
      189.0,      16.24,    20.84,    18.61,    12.30,    13.21
      190.0,      16.19,    20.79,    18.56,    12.26,    13.15
      191.0,      16.15,    20.75,    18.52,    12.21,    13.10
      192.0,      16.10,    20.71,    18.48,    12.16,    13.05
      193.0,      16.05,    20.66,    18.44,    12.12,    13.00
      194.0,      16.01,    20.62,    18.39,    12.07,    12.95
      195.0,      15.96,    20.58,    18.35,    12.03,    12.91
      196.0,      15.92,    20.53,    18.31,    11.98,    12.86
      197.0,      15.88,    20.49,    18.27,    11.94,    12.81
      198.0,      15.83,    20.45,    18.23,    11.89,    12.76
      199.0,      15.79,    20.40,    18.18,    11.85,    12.72
      200.0,      15.74,    20.36,    18.14,    11.80,    12.67
      201.0,      15.70,    20.32,    18.10,    11.76,    12.62
      202.0,      15.66,    20.27,    18.06,    11.71,    12.58
      203.0,      15.61,    20.23,    18.02,    11.67,    12.54
      204.0,      15.57,    20.19,    17.98,    11.63,    12.49
      205.0,      15.53,    20.15,    17.94,    11.58,    12.45
      206.0,      15.49,    20.11,    17.90,    11.54,    12.41
      207.0,      15.45,    20.06,    17.86,    11.49,    12.36
      208.0,      15.40,    20.02,    17.82,    11.45,    12.32
      209.0,      15.36,    19.98,    17.78,    11.41,    12.28
      210.0,      15.32,    19.94,    17.74,    11.37,    12.24
      211.0,      15.28,    19.90,    17.70,    11.32,    12.20
      212.0,      15.24,    19.86,    17.67,    11.28,    12.16
      213.0,      15.20,    19.81,    17.63,    11.24,    12.12
      214.0,      15.16,    19.77,    17.59,    11.20,    12.08
      215.0,      15.12,    19.73,    17.55,    11.15,    12.04
      216.0,      15.08,    19.69,    17.51,    11.11,    12.00
      217.0,      15.04,    19.65,    17.47,    11.07,    11.96
      218.0,      15.00,    19.61,    17.44,    11.03,    11.92
      219.0,      14.96,    19.57,    17.40,    10.99,    11.88
      220.0,      14.92,    19.53,    17.36,    10.95,    11.85
      221.0,      14.88,    19.49,    17.32,    10.91,    11.81
      222.0,      14.84,    19.45,    17.29,    10.86,    11.77
      223.0,      14.81,    19.41,    17.25,    10.82,    11.74
      224.0,      14.77,    19.37,    17.21,    10.78,    11.70
      225.0,      14.73,    19.33,    17.18,    10.74,    11.67
      226.0,      14.69,    19.29,    17.14,    10.70,    11.63
      227.0,      14.65,    19.25,    17.10,    10.66,    11.60
      228.0,      14.62,    19.21,    17.07,    10.62,    11.56
      229.0,      14.58,    19.17,    17.03,    10.58,    11.53
      230.0,      14.54,    19.13,    17.00,    10.54,    11.49
      231.0,      14.50,    19.09,    16.96,    10.50,    11.46
      232.0,      14.47,    19.05,    16.92,    10.47,    11.43
      233.0,      14.43,    19.01,    16.89,    10.43,    11.39
      234.0,      14.39,    18.98,    16.85,    10.39,    11.36
      235.0,      14.36,    18.94,    16.82,    10.35,    11.33
      236.0,      14.32,    18.90,    16.78,    10.31,    11.30
      237.0,      14.29,    18.86,    16.75,    10.27,    11.26
      238.0,      14.25,    18.82,    16.71,    10.23,    11.23
      239.0,      14.21,    18.78,    16.68,    10.20,    11.20
      240.0,      14.18,    18.74,    16.64,    10.16,    11.17
      241.0,      14.14,    18.70,    16.61,    10.12,    11.14
      242.0,      14.11,    18.67,    16.57,    10.08,    11.11
      243.0,      14.07,    18.63,    16.54,    10.04,    11.08
      244.0,      14.04,    18.59,    16.51,    10.01,    11.05
      245.0,      14.00,    18.55,    16.47,     9.97,    11.02
      246.0,      13.97,    18.51,    16.44,     9.93,    10.99
      247.0,      13.93,    18.48,    16.40,     9.90,    10.96
      248.0,      13.90,    18.44,    16.37,     9.86,    10.93
      249.0,      13.86,    18.40,    16.34,     9.82,    10.90
      250.0,      13.83,    18.36,    16.30,     9.78,    10.87
      251.0,      13.80,    18.33,    16.27,     9.75,    10.84
      252.0,      13.76,    18.29,    16.23,     9.71,    10.82
      253.0,      13.73,    18.25,    16.20,     9.68,    10.79
      254.0,      13.70,    18.21,    16.17,     9.64,    10.76
      255.0,      13.66,    18.18,    16.14,     9.60,    10.73
      256.0,      13.63,    18.14,    16.10,     9.57,    10.70
      257.0,      13.60,    18.10,    16.07,     9.53,    10.68
      258.0,      13.56,    18.07,    16.04,     9.50,    10.65
      259.0,      13.53,    18.03,    16.00,     9.46,    10.62
      260.0,      13.50,    17.99,    15.97,     9.43,    10.60
      261.0,      13.46,    17.96,    15.94,     9.39,    10.57
      262.0,      13.43,    17.92,    15.91,     9.36,    10.54
      263.0,      13.40,    17.88,    15.87,     9.32,    10.52
      264.0,      13.37,    17.85,    15.84,     9.29,    10.49
      265.0,      13.33,    17.81,    15.81,     9.25,    10.47
      266.0,      13.30,    17.77,    15.78,     9.22,    10.44
      267.0,      13.27,    17.74,    15.74,     9.18,    10.41
      268.0,      13.24,    17.70,    15.71,     9.15,    10.39
      269.0,      13.21,    17.67,    15.68,     9.12,    10.36
      270.0,      13.17,    17.63,    15.65,     9.08,    10.34
      271.0,      13.14,    17.59,    15.62,     9.05,    10.31
      272.0,      13.11,    17.56,    15.58,     9.01,    10.29
      273.0,      13.08,    17.52,    15.55,     8.98,    10.26
      274.0,      13.05,    17.49,    15.52,     8.95,    10.24
      275.0,      13.02,    17.45,    15.49,     8.91,    10.22
      276.0,      12.99,    17.41,    15.46,     8.88,    10.19
      277.0,      12.96,    17.38,    15.43,     8.85,    10.17
      278.0,      12.92,    17.34,    15.40,     8.81,    10.14
      279.0,      12.89,    17.31,    15.37,     8.78,    10.12
      280.0,      12.86,    17.27,    15.33,     8.75,    10.10
      281.0,      12.83,    17.24,    15.30,     8.72,    10.07
      282.0,      12.80,    17.20,    15.27,     8.68,    10.05
      283.0,      12.77,    17.17,    15.24,     8.65,    10.03
      284.0,      12.74,    17.13,    15.21,     8.62,    10.00
      285.0,      12.71,    17.10,    15.18,     8.59,     9.98
      286.0,      12.68,    17.06,    15.15,     8.56,     9.96
      287.0,      12.65,    17.03,    15.12,     8.52,     9.94
      288.0,      12.62,    16.99,    15.09,     8.49,     9.91
      289.0,      12.59,    16.96,    15.06,     8.46,     9.89
      290.0,      12.56,    16.93,    15.03,     8.43,     9.87
      291.0,      12.53,    16.89,    15.00,     8.40,     9.85
      292.0,      12.50,    16.86,    14.97,     8.37,     9.83
      293.0,      12.47,    16.82,    14.94,     8.34,     9.80
      294.0,      12.45,    16.79,    14.91,     8.30,     9.78
      295.0,      12.42,    16.75,    14.88,     8.27,     9.76
      296.0,      12.39,    16.72,    14.85,     8.24,     9.74
      297.0,      12.36,    16.69,    14.82,     8.21,     9.72
      298.0,      12.33,    16.65,    14.79,     8.18,     9.70
      299.0,      12.30,    16.62,    14.76,     8.15,     9.68
      300.0,      12.27,    16.58,    14.73,     8.12,     9.65
      301.0,      12.24,    16.55,    14.70,     8.09,     9.63
      302.0,      12.22,    16.52,    14.67,     8.06,     9.61
      303.0,      12.19,    16.48,    14.64,     8.03,     9.59
      304.0,      12.16,    16.45,    14.61,     8.00,     9.57
      305.0,      12.13,    16.42,    14.58,     7.97,     9.55
      306.0,      12.10,    16.38,    14.55,     7.94,     9.53
      307.0,      12.07,    16.35,    14.52,     7.91,     9.51
      308.0,      12.05,    16.32,    14.49,     7.88,     9.49
      309.0,      12.02,    16.28,    14.47,     7.85,     9.47
      310.0,      11.99,    16.25,    14.44,     7.82,     9.45
