Radius (km), Mean (m/s), NE (m/s), SE (m/s), SW (m/s), NW (m/s)
        0.0,       0.00,     0.00,     0.00,     0.00,     0.00
        1.0,       1.65,     1.21,     1.57,     2.11,     1.70
        2.0,       3.35,     2.75,     3.26,     3.93,     3.44
        3.0,       5.07,     4.43,     5.01,     5.65,     5.19
        4.0,       6.82,     6.22,     6.79,     7.31,     6.95
        5.0,       8.58,     8.10,     8.59,     8.92,     8.72
        6.0,      10.36,    10.04,    10.42,    10.50,    10.50
        7.0,      12.16,    12.04,    12.27,    12.06,    12.28
        8.0,      13.96,    14.09,    14.12,    13.59,    14.06
        9.0,      15.78,    16.19,    16.00,    15.10,    15.85
       10.0,      17.61,    18.33,    17.88,    16.59,    17.64
       11.0,      19.45,    20.51,    19.78,    18.06,    19.43
       12.0,      21.31,    22.77,    21.72,    19.53,    21.23
       13.0,      23.25,    25.20,    23.76,    20.99,    23.05
       14.0,      25.33,    27.91,    26.00,    22.48,    24.92
       15.0,      27.62,    30.98,    28.50,    24.07,    26.94
       16.0,      30.19,    34.46,    31.32,    25.81,    29.17
       17.0,      33.03,    38.30,    34.43,    27.72,    31.65
       18.0,      36.07,    42.39,    37.73,    29.80,    34.38
       19.0,      39.22,    46.55,    41.08,    31.99,    37.28
       20.0,      42.32,    50.55,    44.30,    34.19,    40.22
       21.0,      45.19,    54.18,    47.23,    36.30,    43.04
       22.0,      47.67,    57.24,    49.68,    38.18,    45.57
       23.0,      49.64,    59.58,    51.57,    39.73,    47.66
       24.0,      51.01,    61.15,    52.82,    40.87,    49.20
       25.0,      51.78,    61.96,    53.45,    41.57,    50.13
       26.0,      51.98,    62.09,    53.52,    41.83,    50.47
       27.0,      51.70,    61.69,    53.16,    41.70,    50.28
       28.0,      51.08,    60.90,    52.48,    41.26,    49.67
       29.0,      50.23,    59.90,    51.62,    40.61,    48.77
       30.0,      49.27,    58.82,    50.69,    39.85,    47.71
       31.0,      48.29,    57.74,    49.76,    39.06,    46.61
       32.0,      47.35,    56.70,    48.88,    38.28,    45.54
       33.0,      46.46,    55.71,    48.04,    37.55,    44.54
       34.0,      45.62,    54.76,    47.23,    36.87,    43.61
       35.0,      44.81,    53.83,    46.45,    36.22,    42.73
       36.0,      44.03,    52.93,    45.70,    35.60,    41.89
       37.0,      43.27,    52.04,    44.96,    35.00,    41.08
       38.0,      42.54,    51.18,    44.25,    34.41,    40.30
       39.0,      41.82,    50.34,    43.56,    33.85,    39.54
       40.0,      41.13,    49.52,    42.89,    33.30,    38.82
       41.0,      40.47,    48.73,    42.24,    32.77,    38.12
       42.0,      39.82,    47.95,    41.61,    32.26,    37.44
       43.0,      39.19,    47.19,    41.00,    31.77,    36.79
       44.0,      38.58,    46.45,    40.40,    31.29,    36.16
       45.0,      37.98,    45.73,    39.83,    30.82,    35.55
       46.0,      37.41,    45.03,    39.27,    30.37,    34.97
       47.0,      36.85,    44.34,    38.72,    29.93,    34.40
       48.0,      36.31,    43.68,    38.20,    29.51,    33.86
       49.0,      35.79,    43.03,    37.68,    29.10,    33.33
       50.0,      35.28,    42.39,    37.19,    28.70,    32.83
       51.0,      34.78,    41.77,    36.70,    28.32,    32.34
       52.0,      34.30,    41.17,    36.24,    27.94,    31.86
       53.0,      33.84,    40.58,    35.78,    27.58,    31.40
       54.0,      33.38,    40.00,    35.34,    27.23,    30.96
       55.0,      32.94,    39.44,    34.91,    26.89,    30.54
       56.0,      32.52,    38.90,    34.49,    26.56,    30.12
       57.0,      32.10,    38.36,    34.09,    26.24,    29.72
       58.0,      31.70,    37.85,    33.69,    25.93,    29.34
       59.0,      31.31,    37.34,    33.31,    25.63,    28.97
       60.0,      30.93,    36.84,    32.94,    25.33,    28.60
       61.0,      30.56,    36.36,    32.58,    25.05,    28.26
       62.0,      30.20,    35.89,    32.23,    24.77,    27.92
       63.0,      29.86,    35.43,    31.89,    24.51,    27.59
       64.0,      29.52,    34.99,    31.56,    24.25,    27.28
       65.0,      29.19,    34.55,    31.24,    23.99,    26.97
       66.0,      28.87,    34.13,    30.93,    23.75,    26.67
       67.0,      28.56,    33.71,    30.62,    23.51,    26.39
       68.0,      28.26,    33.31,    30.33,    23.28,    26.11
       69.0,      27.96,    32.91,    30.04,    23.05,    25.84
       70.0,      27.68,    32.53,    29.76,    22.83,    25.58
       71.0,      27.40,    32.15,    29.49,    22.62,    25.32
       72.0,      27.13,    31.78,    29.23,    22.41,    25.08
       73.0,      26.86,    31.43,    28.97,    22.21,    24.84
       74.0,      26.61,    31.08,    28.73,    22.02,    24.61
       75.0,      26.36,    30.74,    28.48,    21.83,    24.38
       76.0,      26.11,    30.41,    28.25,    21.64,    24.17
       77.0,      25.88,    30.08,    28.02,    21.46,    23.95
       78.0,      25.65,    29.76,    27.80,    21.28,    23.75
       79.0,      25.42,    29.46,    27.58,    21.11,    23.55
       80.0,      25.21,    29.16,    27.37,    20.94,    23.35
       81.0,      24.99,    28.86,    27.16,    20.78,    23.17
       82.0,      24.79,    28.57,    26.96,    20.62,    22.98
       83.0,      24.58,    28.29,    26.77,    20.47,    22.80
       84.0,      24.39,    28.02,    26.58,    20.32,    22.63
       85.0,      24.20,    27.75,    26.40,    20.17,    22.46
       86.0,      24.01,    27.49,    26.22,    20.03,    22.30
       87.0,      23.83,    27.24,    26.04,    19.89,    22.14
       88.0,      23.65,    26.99,    25.87,    19.75,    21.98
       89.0,      23.48,    26.75,    25.70,    19.62,    21.83
       90.0,      23.31,    26.51,    25.54,    19.49,    21.68
       91.0,      23.14,    26.28,    25.39,    19.36,    21.53
       92.0,      22.98,    26.06,    25.23,    19.24,    21.39
       93.0,      22.82,    25.84,    25.08,    19.12,    21.25
       94.0,      22.67,    25.62,    24.94,    19.00,    21.12
       95.0,      22.52,    25.41,    24.80,    18.88,    20.99
       96.0,      22.37,    25.21,    24.66,    18.77,    20.86
       97.0,      22.23,    25.01,    24.52,    18.66,    20.73
       98.0,      22.09,    24.81,    24.39,    18.55,    20.61
       99.0,      21.95,    24.62,    24.26,    18.44,    20.49
      100.0,      21.82,    24.44,    24.14,    18.34,    20.37
      101.0,      21.69,    24.25,    24.01,    18.24,    20.26
      102.0,      21.56,    24.08,    23.90,    18.14,    20.15
      103.0,      21.44,    23.90,    23.78,    18.04,    20.04
      104.0,      21.32,    23.73,    23.67,    17.95,    19.93
      105.0,      21.20,    23.57,    23.55,    17.85,    19.82
      106.0,      21.08,    23.41,    23.45,    17.76,    19.72
      107.0,      20.97,    23.25,    23.34,    17.67,    19.62
      108.0,      20.86,    23.09,    23.24,    17.58,    19.52
      109.0,      20.75,    22.94,    23.14,    17.49,    19.42
      110.0,      20.64,    22.79,    23.04,    17.41,    19.32
      111.0,      20.54,    22.65,    22.94,    17.33,    19.23
      112.0,      20.43,    22.51,    22.85,    17.24,    19.14
      113.0,      20.33,    22.37,    22.75,    17.16,    19.04
      114.0,      20.23,    22.24,    22.66,    17.08,    18.96
      115.0,      20.14,    22.11,    22.58,    17.01,    18.87
      116.0,      20.04,    21.98,    22.49,    16.93,    18.78
      117.0,      19.95,    21.85,    22.40,    16.85,    18.70
      118.0,      19.86,    21.73,    22.32,    16.78,    18.61
      119.0,      19.77,    21.61,    22.24,    16.71,    18.53
      120.0,      19.68,    21.49,    22.16,    16.63,    18.45
      121.0,      19.60,    21.37,    22.08,    16.56,    18.37
      122.0,      19.51,    21.26,    22.01,    16.49,    18.29
      123.0,      19.43,    21.15,    21.93,    16.43,    18.21
      124.0,      19.35,    21.04,    21.86,    16.36,    18.13
      125.0,      19.27,    20.94,    21.79,    16.29,    18.06
      126.0,      19.19,    20.83,    21.72,    16.23,    17.98
      127.0,      19.11,    20.73,    21.65,    16.16,    17.91
      128.0,      19.04,    20.63,    21.58,    16.10,    17.84
      129.0,      18.96,    20.54,    21.52,    16.04,    17.77
      130.0,      18.89,    20.44,    21.45,    15.97,    17.70
      131.0,      18.82,    20.35,    21.39,    15.91,    17.63
      132.0,      18.75,    20.26,    21.33,    15.85,    17.56
      133.0,      18.68,    20.17,    21.26,    15.79,    17.49
      134.0,      18.61,    20.08,    21.20,    15.73,    17.42
      135.0,      18.54,    20.00,    21.14,    15.68,    17.36
      136.0,      18.48,    19.92,    21.09,    15.62,    17.29
      137.0,      18.41,    19.83,    21.03,    15.56,    17.22
      138.0,      18.35,    19.75,    20.97,    15.50,    17.16
      139.0,      18.28,    19.67,    20.92,    15.45,    17.10
      140.0,      18.22,    19.60,    20.86,    15.39,    17.03
      141.0,      18.16,    19.52,    20.81,    15.34,    16.97
      142.0,      18.10,    19.45,    20.76,    15.29,    16.91
      143.0,      18.04,    19.38,    20.71,    15.23,    16.85
      144.0,      17.98,    19.31,    20.66,    15.18,    16.79
      145.0,      17.92,    19.24,    20.60,    15.13,    16.73
      146.0,      17.87,    19.17,    20.56,    15.08,    16.67
      147.0,      17.81,    19.10,    20.51,    15.03,    16.61
      148.0,      17.75,    19.04,    20.46,    14.98,    16.55
      149.0,      17.70,    18.97,    20.41,    14.93,    16.49
      150.0,      17.65,    18.91,    20.37,    14.88,    16.43
      151.0,      17.59,    18.85,    20.32,    14.83,    16.37
      152.0,      17.54,    18.79,    20.27,    14.78,    16.32
      153.0,      17.49,    18.73,    20.23,    14.73,    16.26
      154.0,      17.43,    18.67,    20.19,    14.68,    16.21
      155.0,      17.38,    18.61,    20.14,    14.63,    16.15
      156.0,      17.33,    18.55,    20.10,    14.59,    16.09
      157.0,      17.28,    18.50,    20.06,    14.54,    16.04
      158.0,      17.23,    18.44,    20.02,    14.49,    15.99
      159.0,      17.19,    18.39,    19.97,    14.45,    15.93
      160.0,      17.14,    18.34,    19.93,    14.40,    15.88
      161.0,      17.09,    18.29,    19.89,    14.36,    15.82
      162.0,      17.04,    18.24,    19.85,    14.31,    15.77
      163.0,      17.00,    18.19,    19.81,    14.27,    15.72
      164.0,      16.95,    18.14,    19.77,    14.22,    15.67
      165.0,      16.91,    18.09,    19.74,    14.18,    15.62
      166.0,      16.86,    18.04,    19.70,    14.14,    15.56
      167.0,      16.82,    18.00,    19.66,    14.09,    15.51
      168.0,      16.77,    17.95,    19.62,    14.05,    15.46
      169.0,      16.73,    17.91,    19.59,    14.01,    15.41
      170.0,      16.68,    17.86,    19.55,    13.96,    15.36
      171.0,      16.64,    17.82,    19.51,    13.92,    15.31
      172.0,      16.60,    17.77,    19.48,    13.88,    15.26
      173.0,      16.56,    17.73,    19.44,    13.84,    15.21
      174.0,      16.51,    17.69,    19.41,    13.80,    15.16
      175.0,      16.47,    17.65,    19.37,    13.76,    15.11
      176.0,      16.43,    17.61,    19.34,    13.72,    15.06
      177.0,      16.39,    17.57,    19.31,    13.67,    15.02
      178.0,      16.35,    17.53,    19.27,    13.63,    14.97
      179.0,      16.31,    17.49,    19.24,    13.59,    14.92
      180.0,      16.27,    17.46,    19.20,    13.55,    14.87
      181.0,      16.23,    17.42,    19.17,    13.51,    14.82
      182.0,      16.19,    17.38,    19.14,    13.47,    14.78
      183.0,      16.15,    17.35,    19.11,    13.44,    14.73
      184.0,      16.12,    17.31,    19.07,    13.40,    14.68
      185.0,      16.08,    17.28,    19.04,    13.36,    14.64
      186.0,      16.04,    17.24,    19.01,    13.32,    14.59
      187.0,      16.00,    17.21,    18.98,    13.28,    14.54
      188.0,      15.97,    17.17,    18.95,    13.24,    14.50
      189.0,      15.93,    17.14,    18.92,    13.20,    14.45
      190.0,      15.89,    17.11,    18.89,    13.17,    14.41
      191.0,      15.85,    17.07,    18.86,    13.13,    14.36
      192.0,      15.82,    17.04,    18.83,    13.09,    14.32
      193.0,      15.78,    17.01,    18.80,    13.05,    14.27
      194.0,      15.75,    16.98,    18.77,    13.01,    14.23
      195.0,      15.71,    16.95,    18.74,    12.98,    14.18
      196.0,      15.68,    16.92,    18.71,    12.94,    14.14
      197.0,      15.64,    16.89,    18.68,    12.90,    14.09
      198.0,      15.61,    16.86,    18.65,    12.87,    14.05
      199.0,      15.57,    16.83,    18.62,    12.83,    14.00
      200.0,      15.54,    16.80,    18.59,    12.79,    13.96
      201.0,      15.50,    16.77,    18.56,    12.76,    13.92
      202.0,      15.47,    16.75,    18.53,    12.72,    13.87
      203.0,      15.43,    16.72,    18.51,    12.69,    13.83
      204.0,      15.40,    16.69,    18.48,    12.65,    13.79
      205.0,      15.37,    16.66,    18.45,    12.61,    13.74
      206.0,      15.33,    16.64,    18.42,    12.58,    13.70
      207.0,      15.30,    16.61,    18.39,    12.54,    13.66
      208.0,      15.27,    16.58,    18.37,    12.51,    13.62
      209.0,      15.24,    16.56,    18.34,    12.47,    13.58
      210.0,      15.20,    16.53,    18.31,    12.44,    13.53
      211.0,      15.17,    16.50,    18.28,    12.40,    13.49
      212.0,      15.14,    16.48,    18.26,    12.37,    13.45
      213.0,      15.11,    16.45,    18.23,    12.33,    13.41
      214.0,      15.07,    16.43,    18.20,    12.30,    13.37
      215.0,      15.04,    16.41,    18.18,    12.27,    13.32
      216.0,      15.01,    16.38,    18.15,    12.23,    13.28
      217.0,      14.98,    16.36,    18.12,    12.20,    13.24
      218.0,      14.95,    16.33,    18.10,    12.16,    13.20
      219.0,      14.92,    16.31,    18.07,    12.13,    13.16
      220.0,      14.89,    16.29,    18.04,    12.10,    13.12
      221.0,      14.86,    16.26,    18.02,    12.06,    13.08
      222.0,      14.82,    16.24,    17.99,    12.03,    13.04
      223.0,      14.79,    16.22,    17.97,    12.00,    13.00
      224.0,      14.76,    16.19,    17.94,    11.96,    12.96
      225.0,      14.73,    16.17,    17.91,    11.93,    12.92
      226.0,      14.70,    16.15,    17.89,    11.90,    12.88
      227.0,      14.67,    16.13,    17.86,    11.86,    12.84
      228.0,      14.64,    16.10,    17.84,    11.83,    12.80
      229.0,      14.61,    16.08,    17.81,    11.80,    12.76
      230.0,      14.58,    16.06,    17.79,    11.77,    12.72
      231.0,      14.55,    16.04,    17.76,    11.73,    12.68
      232.0,      14.52,    16.02,    17.74,    11.70,    12.64
      233.0,      14.50,    16.00,    17.71,    11.67,    12.61
      234.0,      14.47,    15.98,    17.69,    11.64,    12.57
      235.0,      14.44,    15.96,    17.66,    11.61,    12.53
      236.0,      14.41,    15.94,    17.64,    11.57,    12.49
      237.0,      14.38,    15.91,    17.61,    11.54,    12.45
      238.0,      14.35,    15.89,    17.59,    11.51,    12.41
      239.0,      14.32,    15.87,    17.56,    11.48,    12.37
      240.0,      14.29,    15.85,    17.54,    11.45,    12.34
      241.0,      14.27,    15.83,    17.51,    11.42,    12.30
      242.0,      14.24,    15.81,    17.49,    11.38,    12.26
      243.0,      14.21,    15.79,    17.46,    11.35,    12.22
      244.0,      14.18,    15.77,    17.44,    11.32,    12.19
      245.0,      14.15,    15.76,    17.42,    11.29,    12.15
      246.0,      14.12,    15.74,    17.39,    11.26,    12.11
      247.0,      14.10,    15.72,    17.37,    11.23,    12.07
      248.0,      14.07,    15.70,    17.34,    11.20,    12.04
      249.0,      14.04,    15.68,    17.32,    11.17,    12.00
      250.0,      14.01,    15.66,    17.30,    11.14,    11.96
      251.0,      13.99,    15.64,    17.27,    11.11,    11.93
      252.0,      13.96,    15.62,    17.25,    11.08,    11.89
      253.0,      13.93,    15.60,    17.22,    11.05,    11.85
      254.0,      13.90,    15.58,    17.20,    11.02,    11.82
      255.0,      13.88,    15.57,    17.18,    10.99,    11.78
      256.0,      13.85,    15.55,    17.15,    10.96,    11.75
      257.0,      13.82,    15.53,    17.13,    10.93,    11.71
      258.0,      13.80,    15.51,    17.11,    10.90,    11.67
      259.0,      13.77,    15.49,    17.08,    10.87,    11.64
      260.0,      13.74,    15.47,    17.06,    10.84,    11.60
      261.0,      13.72,    15.46,    17.04,    10.81,    11.57
      262.0,      13.69,    15.44,    17.01,    10.78,    11.53
      263.0,      13.66,    15.42,    16.99,    10.75,    11.50
      264.0,      13.64,    15.40,    16.97,    10.72,    11.46
      265.0,      13.61,    15.39,    16.94,    10.69,    11.43
      266.0,      13.58,    15.37,    16.92,    10.66,    11.39
      267.0,      13.56,    15.35,    16.90,    10.63,    11.36
      268.0,      13.53,    15.33,    16.87,    10.60,    11.32
      269.0,      13.51,    15.32,    16.85,    10.57,    11.29
      270.0,      13.48,    15.30,    16.83,    10.54,    11.25
      271.0,      13.46,    15.28,    16.81,    10.52,    11.22
      272.0,      13.43,    15.26,    16.78,    10.49,    11.18
      273.0,      13.40,    15.25,    16.76,    10.46,    11.15
      274.0,      13.38,    15.23,    16.74,    10.43,    11.12
      275.0,      13.35,    15.21,    16.71,    10.40,    11.08
      276.0,      13.33,    15.20,    16.69,    10.37,    11.05
      277.0,      13.30,    15.18,    16.67,    10.34,    11.01
      278.0,      13.28,    15.16,    16.65,    10.32,    10.98
      279.0,      13.25,    15.15,    16.62,    10.29,    10.95
      280.0,      13.23,    15.13,    16.60,    10.26,    10.91
      281.0,      13.20,    15.11,    16.58,    10.23,    10.88
      282.0,      13.18,    15.10,    16.56,    10.20,    10.85
      283.0,      13.15,    15.08,    16.53,    10.18,    10.81
      284.0,      13.13,    15.06,    16.51,    10.15,    10.78
      285.0,      13.10,    15.05,    16.49,    10.12,    10.75
      286.0,      13.08,    15.03,    16.47,    10.09,    10.72
      287.0,      13.05,    15.01,    16.44,    10.07,    10.68
      288.0,      13.03,    15.00,    16.42,    10.04,    10.65
      289.0,      13.00,    14.98,    16.40,    10.01,    10.62
      290.0,      12.98,    14.97,    16.38,     9.98,    10.59
      291.0,      12.95,    14.95,    16.36,     9.96,    10.55
      292.0,      12.93,    14.93,    16.33,     9.93,    10.52
      293.0,      12.91,    14.92,    16.31,     9.90,    10.49
      294.0,      12.88,    14.90,    16.29,     9.88,    10.46
      295.0,      12.86,    14.89,    16.27,     9.85,    10.42
      296.0,      12.83,    14.87,    16.25,     9.82,    10.39
      297.0,      12.81,    14.85,    16.22,     9.80,    10.36
      298.0,      12.79,    14.84,    16.20,     9.77,    10.33
      299.0,      12.76,    14.82,    16.18,     9.74,    10.30
      300.0,      12.74,    14.81,    16.16,     9.72,    10.27
      301.0,      12.71,    14.79,    16.14,     9.69,    10.24
      302.0,      12.69,    14.78,    16.12,     9.66,    10.20
      303.0,      12.67,    14.76,    16.09,     9.64,    10.17
      304.0,      12.64,    14.74,    16.07,     9.61,    10.14
      305.0,      12.62,    14.73,    16.05,     9.59,    10.11
      306.0,      12.60,    14.71,    16.03,     9.56,    10.08
      307.0,      12.57,    14.70,    16.01,     9.53,    10.05
      308.0,      12.55,    14.68,    15.99,     9.51,    10.02
      309.0,      12.53,    14.67,    15.97,     9.48,     9.99
      310.0,      12.50,    14.65,    15.94,     9.46,     9.96
