Radius (km), Mean (m/s), NE (m/s), SE (m/s), SW (m/s), NW (m/s)
        0.0,       0.00,     0.00,     0.00,     0.00,     0.00
        1.0,       2.11,     2.02,     2.06,     2.30,     2.06
        2.0,       3.88,     3.79,     3.83,     4.06,     3.83
        3.0,       5.54,     5.48,     5.51,     5.67,     5.51
        4.0,       7.14,     7.11,     7.13,     7.19,     7.13
        5.0,       8.70,     8.71,     8.71,     8.64,     8.71
        6.0,      10.21,    10.28,    10.26,    10.04,    10.26
        7.0,      11.70,    11.83,    11.78,    11.40,    11.78
        8.0,      13.16,    13.36,    13.28,    12.73,    13.28
        9.0,      14.60,    14.86,    14.76,    14.02,    14.76
       10.0,      16.03,    16.36,    16.22,    15.29,    16.22
       11.0,      17.43,    17.84,    17.67,    16.54,    17.68
       12.0,      18.84,    19.32,    19.12,    17.78,    19.13
       13.0,      20.27,    20.82,    20.59,    19.04,    20.64
       14.0,      21.79,    22.41,    22.14,    20.36,    22.26
       15.0,      23.44,    24.14,    23.83,    21.78,    24.03
       16.0,      25.25,    26.03,    25.67,    23.32,    25.97
       17.0,      27.21,    28.10,    27.67,    24.99,    28.06
       18.0,      29.27,    30.29,    29.79,    26.74,    30.25
       19.0,      31.36,    32.54,    31.94,    28.51,    32.45
       20.0,      33.39,    34.72,    34.04,    30.23,    34.55
       21.0,      35.24,    36.74,    35.98,    31.81,    36.45
       22.0,      36.84,    38.49,    37.65,    33.16,    38.05
       23.0,      38.11,    39.88,    38.99,    34.24,    39.31
       24.0,      39.01,    40.88,    39.96,    35.01,    40.18
       25.0,      39.54,    41.47,    40.54,    35.48,    40.68
       26.0,      39.75,    41.70,    40.78,    35.66,    40.85
       27.0,      39.69,    41.62,    40.74,    35.62,    40.76
       28.0,      39.43,    41.32,    40.49,    35.41,    40.48
       29.0,      39.05,    40.89,    40.10,    35.10,    40.10
       30.0,      38.62,    40.39,    39.66,    34.74,    39.67
       31.0,      38.18,    39.89,    39.21,    34.37,    39.24
       32.0,      37.75,    39.41,    38.77,    34.01,    38.82
       33.0,      37.35,    38.95,    38.36,    33.66,    38.43
       34.0,      36.97,    38.53,    37.96,    33.33,    38.04
       35.0,      36.59,    38.12,    37.58,    33.01,    37.66
       36.0,      36.23,    37.73,    37.20,    32.68,    37.29
       37.0,      35.87,    37.34,    36.83,    32.37,    36.92
       38.0,      35.52,    36.98,    36.47,    32.06,    36.56
       39.0,      35.17,    36.62,    36.12,    31.75,    36.21
       40.0,      34.84,    36.27,    35.77,    31.45,    35.87
       41.0,      34.51,    35.94,    35.43,    31.15,    35.52
       42.0,      34.19,    35.61,    35.10,    30.85,    35.19
       43.0,      33.88,    35.30,    34.78,    30.56,    34.86
       44.0,      33.57,    34.99,    34.46,    30.28,    34.54
       45.0,      33.27,    34.70,    34.15,    30.00,    34.22
       46.0,      32.97,    34.41,    33.85,    29.72,    33.91
       47.0,      32.68,    34.13,    33.55,    29.45,    33.60
       48.0,      32.40,    33.86,    33.26,    29.18,    33.30
       49.0,      32.12,    33.60,    32.98,    28.91,    33.01
       50.0,      31.85,    33.35,    32.70,    28.65,    32.72
       51.0,      31.59,    33.10,    32.42,    28.39,    32.43
       52.0,      31.33,    32.87,    32.16,    28.14,    32.15
       53.0,      31.07,    32.63,    31.89,    27.89,    31.88
       54.0,      30.82,    32.41,    31.64,    27.64,    31.61
       55.0,      30.58,    32.19,    31.39,    27.40,    31.34
       56.0,      30.34,    31.98,    31.14,    27.16,    31.08
       57.0,      30.10,    31.77,    30.90,    26.92,    30.82
       58.0,      29.87,    31.57,    30.66,    26.69,    30.57
       59.0,      29.65,    31.37,    30.43,    26.46,    30.32
       60.0,      29.42,    31.18,    30.20,    26.23,    30.08
       61.0,      29.21,    30.99,    29.98,    26.01,    29.84
       62.0,      28.99,    30.81,    29.76,    25.79,    29.61
       63.0,      28.78,    30.64,    29.55,    25.57,    29.37
       64.0,      28.58,    30.47,    29.34,    25.36,    29.15
       65.0,      28.38,    30.30,    29.14,    25.15,    28.92
       66.0,      28.18,    30.13,    28.93,    24.94,    28.70
       67.0,      27.98,    29.98,    28.74,    24.73,    28.49
       68.0,      27.79,    29.82,    28.54,    24.53,    28.28
       69.0,      27.61,    29.67,    28.35,    24.33,    28.07
       70.0,      27.42,    29.52,    28.17,    24.14,    27.86
       71.0,      27.24,    29.37,    27.99,    23.94,    27.66
       72.0,      27.06,    29.23,    27.81,    23.75,    27.46
       73.0,      26.89,    29.09,    27.63,    23.56,    27.27
       74.0,      26.72,    28.96,    27.46,    23.38,    27.08
       75.0,      26.55,    28.83,    27.29,    23.20,    26.89
       76.0,      26.39,    28.70,    27.12,    23.02,    26.71
       77.0,      26.22,    28.57,    26.96,    22.84,    26.52
       78.0,      26.06,    28.45,    26.80,    22.66,    26.34
       79.0,      25.91,    28.32,    26.65,    22.49,    26.17
       80.0,      25.75,    28.21,    26.49,    22.32,    26.00
       81.0,      25.60,    28.09,    26.34,    22.15,    25.83
       82.0,      25.45,    27.97,    26.19,    21.99,    25.66
       83.0,      25.31,    27.86,    26.05,    21.82,    25.49
       84.0,      25.16,    27.75,    25.90,    21.66,    25.33
       85.0,      25.02,    27.64,    25.76,    21.51,    25.17
       86.0,      24.88,    27.54,    25.63,    21.35,    25.02
       87.0,      24.75,    27.43,    25.49,    21.19,    24.86
       88.0,      24.61,    27.33,    25.36,    21.04,    24.71
       89.0,      24.48,    27.23,    25.23,    20.89,    24.56
       90.0,      24.35,    27.13,    25.10,    20.75,    24.42
       91.0,      24.22,    27.03,    24.97,    20.60,    24.27
       92.0,      24.09,    26.93,    24.85,    20.46,    24.13
       93.0,      23.97,    26.84,    24.73,    20.31,    23.99
       94.0,      23.85,    26.74,    24.61,    20.17,    23.86
       95.0,      23.72,    26.65,    24.49,    20.04,    23.72
       96.0,      23.61,    26.56,    24.37,    19.90,    23.59
       97.0,      23.49,    26.47,    24.26,    19.77,    23.46
       98.0,      23.37,    26.39,    24.15,    19.63,    23.33
       99.0,      23.26,    26.30,    24.04,    19.50,    23.20
      100.0,      23.15,    26.21,    23.93,    19.38,    23.08
      101.0,      23.04,    26.13,    23.82,    19.25,    22.96
      102.0,      22.93,    26.04,    23.72,    19.12,    22.84
      103.0,      22.82,    25.96,    23.61,    19.00,    22.72
      104.0,      22.72,    25.88,    23.51,    18.88,    22.60
      105.0,      22.61,    25.80,    23.41,    18.76,    22.49
      106.0,      22.51,    25.72,    23.31,    18.64,    22.37
      107.0,      22.41,    25.64,    23.22,    18.52,    22.26
      108.0,      22.31,    25.56,    23.12,    18.41,    22.15
      109.0,      22.21,    25.49,    23.03,    18.30,    22.05
      110.0,      22.12,    25.41,    22.93,    18.18,    21.94
      111.0,      22.02,    25.34,    22.84,    18.07,    21.84
      112.0,      21.93,    25.26,    22.75,    17.96,    21.73
      113.0,      21.84,    25.19,    22.67,    17.86,    21.63
      114.0,      21.74,    25.12,    22.58,    17.75,    21.53
      115.0,      21.65,    25.04,    22.49,    17.65,    21.43
      116.0,      21.56,    24.97,    22.41,    17.54,    21.34
      117.0,      21.48,    24.90,    22.32,    17.44,    21.24
      118.0,      21.39,    24.83,    22.24,    17.34,    21.15
      119.0,      21.30,    24.76,    22.16,    17.24,    21.06
      120.0,      21.22,    24.69,    22.08,    17.14,    20.97
      121.0,      21.14,    24.62,    22.00,    17.05,    20.88
      122.0,      21.05,    24.56,    21.92,    16.95,    20.79
      123.0,      20.97,    24.49,    21.85,    16.86,    20.70
      124.0,      20.89,    24.42,    21.77,    16.77,    20.62
      125.0,      20.81,    24.35,    21.70,    16.67,    20.53
      126.0,      20.74,    24.29,    21.62,    16.58,    20.45
      127.0,      20.66,    24.22,    21.55,    16.50,    20.37
      128.0,      20.58,    24.16,    21.48,    16.41,    20.29
      129.0,      20.51,    24.09,    21.41,    16.32,    20.21
      130.0,      20.43,    24.03,    21.34,    16.24,    20.13
      131.0,      20.36,    23.97,    21.27,    16.15,    20.05
      132.0,      20.29,    23.90,    21.20,    16.07,    19.97
      133.0,      20.21,    23.84,    21.13,    15.99,    19.90
      134.0,      20.14,    23.78,    21.06,    15.90,    19.83
      135.0,      20.07,    23.72,    21.00,    15.82,    19.75
      136.0,      20.00,    23.65,    20.93,    15.75,    19.68
      137.0,      19.94,    23.59,    20.87,    15.67,    19.61
      138.0,      19.87,    23.53,    20.81,    15.59,    19.54
      139.0,      19.80,    23.47,    20.74,    15.52,    19.47
      140.0,      19.73,    23.41,    20.68,    15.44,    19.40
      141.0,      19.67,    23.35,    20.62,    15.37,    19.34
      142.0,      19.60,    23.29,    20.56,    15.29,    19.27
      143.0,      19.54,    23.23,    20.50,    15.22,    19.21
      144.0,      19.48,    23.17,    20.44,    15.15,    19.14
      145.0,      19.41,    23.12,    20.38,    15.08,    19.08
      146.0,      19.35,    23.06,    20.32,    15.01,    19.02
      147.0,      19.29,    23.00,    20.26,    14.94,    18.95
      148.0,      19.23,    22.94,    20.21,    14.87,    18.89
      149.0,      19.17,    22.88,    20.15,    14.81,    18.83
      150.0,      19.11,    22.83,    20.10,    14.74,    18.77
      151.0,      19.05,    22.77,    20.04,    14.68,    18.72
      152.0,      18.99,    22.71,    19.99,    14.61,    18.66
      153.0,      18.93,    22.66,    19.93,    14.55,    18.60
      154.0,      18.88,    22.60,    19.88,    14.49,    18.55
      155.0,      18.82,    22.54,    19.82,    14.42,    18.49
      156.0,      18.76,    22.49,    19.77,    14.36,    18.44
      157.0,      18.71,    22.43,    19.72,    14.30,    18.38
      158.0,      18.65,    22.38,    19.67,    14.24,    18.33
      159.0,      18.60,    22.32,    19.62,    14.18,    18.28
      160.0,      18.55,    22.27,    19.57,    14.13,    18.22
      161.0,      18.49,    22.21,    19.52,    14.07,    18.17
      162.0,      18.44,    22.16,    19.47,    14.01,    18.12
      163.0,      18.39,    22.10,    19.42,    13.96,    18.07
      164.0,      18.34,    22.05,    19.37,    13.90,    18.02
      165.0,      18.28,    22.00,    19.32,    13.85,    17.97
      166.0,      18.23,    21.94,    19.27,    13.79,    17.92
      167.0,      18.18,    21.89,    19.22,    13.74,    17.88
      168.0,      18.13,    21.84,    19.18,    13.69,    17.83
      169.0,      18.08,    21.78,    19.13,    13.63,    17.78
      170.0,      18.03,    21.73,    19.08,    13.58,    17.74
      171.0,      17.98,    21.68,    19.04,    13.53,    17.69
      172.0,      17.94,    21.62,    18.99,    13.48,    17.65
      173.0,      17.89,    21.57,    18.94,    13.43,    17.60
      174.0,      17.84,    21.52,    18.90,    13.38,    17.56
      175.0,      17.79,    21.47,    18.85,    13.33,    17.52
      176.0,      17.75,    21.42,    18.81,    13.29,    17.47
      177.0,      17.70,    21.36,    18.77,    13.24,    17.43
      178.0,      17.65,    21.31,    18.72,    13.19,    17.39
      179.0,      17.61,    21.26,    18.68,    13.15,    17.35
      180.0,      17.56,    21.21,    18.64,    13.10,    17.31
      181.0,      17.52,    21.16,    18.59,    13.06,    17.27
      182.0,      17.47,    21.11,    18.55,    13.01,    17.23
      183.0,      17.43,    21.06,    18.51,    12.97,    17.19
      184.0,      17.39,    21.01,    18.47,    12.92,    17.15
      185.0,      17.34,    20.96,    18.42,    12.88,    17.11
      186.0,      17.30,    20.91,    18.38,    12.84,    17.07
      187.0,      17.26,    20.86,    18.34,    12.80,    17.03
      188.0,      17.21,    20.81,    18.30,    12.75,    16.99
      189.0,      17.17,    20.76,    18.26,    12.71,    16.96
      190.0,      17.13,    20.71,    18.22,    12.67,    16.92
      191.0,      17.09,    20.66,    18.18,    12.63,    16.88
      192.0,      17.05,    20.61,    18.14,    12.59,    16.85
      193.0,      17.01,    20.56,    18.10,    12.55,    16.81
      194.0,      16.97,    20.51,    18.06,    12.52,    16.78
      195.0,      16.92,    20.46,    18.02,    12.48,    16.74
      196.0,      16.88,    20.41,    17.98,    12.44,    16.71
      197.0,      16.84,    20.36,    17.94,    12.40,    16.67
      198.0,      16.81,    20.31,    17.90,    12.36,    16.64
      199.0,      16.77,    20.27,    17.86,    12.33,    16.61
      200.0,      16.73,    20.22,    17.83,    12.29,    16.57
      201.0,      16.69,    20.17,    17.79,    12.26,    16.54
      202.0,      16.65,    20.12,    17.75,    12.22,    16.51
      203.0,      16.61,    20.07,    17.71,    12.18,    16.47
      204.0,      16.57,    20.03,    17.68,    12.15,    16.44
      205.0,      16.54,    19.98,    17.64,    12.12,    16.41
      206.0,      16.50,    19.93,    17.60,    12.08,    16.38
      207.0,      16.46,    19.88,    17.56,    12.05,    16.35
      208.0,      16.42,    19.84,    17.53,    12.01,    16.32
      209.0,      16.39,    19.79,    17.49,    11.98,    16.29
      210.0,      16.35,    19.74,    17.45,    11.95,    16.26
      211.0,      16.31,    19.69,    17.42,    11.92,    16.23
      212.0,      16.28,    19.65,    17.38,    11.88,    16.20
      213.0,      16.24,    19.60,    17.35,    11.85,    16.17
      214.0,      16.21,    19.55,    17.31,    11.82,    16.14
      215.0,      16.17,    19.51,    17.28,    11.79,    16.11
      216.0,      16.13,    19.46,    17.24,    11.76,    16.08
      217.0,      16.10,    19.42,    17.20,    11.73,    16.05
      218.0,      16.06,    19.37,    17.17,    11.70,    16.02
      219.0,      16.03,    19.32,    17.13,    11.67,    15.99
      220.0,      16.00,    19.28,    17.10,    11.64,    15.97
      221.0,      15.96,    19.23,    17.07,    11.61,    15.94
      222.0,      15.93,    19.19,    17.03,    11.58,    15.91
      223.0,      15.89,    19.14,    17.00,    11.55,    15.88
      224.0,      15.86,    19.10,    16.96,    11.52,    15.86
      225.0,      15.83,    19.05,    16.93,    11.50,    15.83
      226.0,      15.79,    19.01,    16.89,    11.47,    15.80
      227.0,      15.76,    18.96,    16.86,    11.44,    15.78
      228.0,      15.73,    18.92,    16.83,    11.41,    15.75
      229.0,      15.69,    18.87,    16.79,    11.39,    15.72
      230.0,      15.66,    18.83,    16.76,    11.36,    15.70
      231.0,      15.63,    18.78,    16.73,    11.33,    15.67
      232.0,      15.60,    18.74,    16.69,    11.31,    15.65
      233.0,      15.56,    18.69,    16.66,    11.28,    15.62
      234.0,      15.53,    18.65,    16.63,    11.26,    15.60
      235.0,      15.50,    18.60,    16.60,    11.23,    15.57
      236.0,      15.47,    18.56,    16.56,    11.21,    15.55
      237.0,      15.44,    18.52,    16.53,    11.18,    15.52
      238.0,      15.41,    18.47,    16.50,    11.16,    15.50
      239.0,      15.37,    18.43,    16.47,    11.13,    15.47
      240.0,      15.34,    18.38,    16.43,    11.11,    15.45
      241.0,      15.31,    18.34,    16.40,    11.08,    15.42
      242.0,      15.28,    18.30,    16.37,    11.06,    15.40
      243.0,      15.25,    18.25,    16.34,    11.04,    15.38
      244.0,      15.22,    18.21,    16.31,    11.01,    15.35
      245.0,      15.19,    18.17,    16.27,    10.99,    15.33
      246.0,      15.16,    18.13,    16.24,    10.97,    15.31
      247.0,      15.13,    18.08,    16.21,    10.94,    15.28
      248.0,      15.10,    18.04,    16.18,    10.92,    15.26
      249.0,      15.07,    18.00,    16.15,    10.90,    15.24
      250.0,      15.04,    17.95,    16.12,    10.88,    15.22
      251.0,      15.01,    17.91,    16.09,    10.85,    15.19
      252.0,      14.98,    17.87,    16.05,    10.83,    15.17
      253.0,      14.95,    17.83,    16.02,    10.81,    15.15
      254.0,      14.92,    17.78,    15.99,    10.79,    15.13
      255.0,      14.89,    17.74,    15.96,    10.77,    15.10
      256.0,      14.87,    17.70,    15.93,    10.75,    15.08
      257.0,      14.84,    17.66,    15.90,    10.73,    15.06
      258.0,      14.81,    17.62,    15.87,    10.70,    15.04
      259.0,      14.78,    17.58,    15.84,    10.68,    15.02
      260.0,      14.75,    17.53,    15.81,    10.66,    15.00
      261.0,      14.72,    17.49,    15.78,    10.64,    14.97
      262.0,      14.69,    17.45,    15.75,    10.62,    14.95
      263.0,      14.67,    17.41,    15.72,    10.60,    14.93
      264.0,      14.64,    17.37,    15.69,    10.58,    14.91
      265.0,      14.61,    17.33,    15.66,    10.56,    14.89
      266.0,      14.58,    17.29,    15.63,    10.54,    14.87
      267.0,      14.56,    17.25,    15.60,    10.52,    14.85
      268.0,      14.53,    17.21,    15.57,    10.51,    14.83
      269.0,      14.50,    17.16,    15.54,    10.49,    14.81
      270.0,      14.47,    17.12,    15.51,    10.47,    14.79
      271.0,      14.45,    17.08,    15.48,    10.45,    14.77
      272.0,      14.42,    17.04,    15.45,    10.43,    14.75
      273.0,      14.39,    17.00,    15.42,    10.41,    14.73
      274.0,      14.36,    16.96,    15.40,    10.39,    14.71
      275.0,      14.34,    16.92,    15.37,    10.37,    14.69
      276.0,      14.31,    16.88,    15.34,    10.36,    14.67
      277.0,      14.28,    16.84,    15.31,    10.34,    14.65
      278.0,      14.26,    16.80,    15.28,    10.32,    14.63
      279.0,      14.23,    16.76,    15.25,    10.30,    14.61
      280.0,      14.20,    16.72,    15.22,    10.29,    14.59
      281.0,      14.18,    16.68,    15.19,    10.27,    14.57
      282.0,      14.15,    16.64,    15.17,    10.25,    14.55
      283.0,      14.13,    16.60,    15.14,    10.23,    14.53
      284.0,      14.10,    16.57,    15.11,    10.22,    14.51
      285.0,      14.07,    16.53,    15.08,    10.20,    14.49
      286.0,      14.05,    16.49,    15.05,    10.18,    14.47
      287.0,      14.02,    16.45,    15.02,    10.17,    14.45
      288.0,      14.00,    16.41,    15.00,    10.15,    14.44
      289.0,      13.97,    16.37,    14.97,    10.13,    14.42
      290.0,      13.95,    16.33,    14.94,    10.12,    14.40
      291.0,      13.92,    16.29,    14.91,    10.10,    14.38
      292.0,      13.90,    16.26,    14.88,    10.08,    14.36
      293.0,      13.87,    16.22,    14.86,    10.07,    14.34
      294.0,      13.85,    16.18,    14.83,    10.05,    14.32
      295.0,      13.82,    16.14,    14.80,    10.04,    14.31
      296.0,      13.80,    16.10,    14.77,    10.02,    14.29
      297.0,      13.77,    16.06,    14.75,    10.00,    14.27
      298.0,      13.75,    16.03,    14.72,     9.99,    14.25
      299.0,      13.72,    15.99,    14.69,     9.97,    14.23
      300.0,      13.70,    15.95,    14.66,     9.96,    14.21
      301.0,      13.67,    15.91,    14.64,     9.94,    14.20
      302.0,      13.65,    15.88,    14.61,     9.93,    14.18
      303.0,      13.62,    15.84,    14.58,     9.91,    14.16
      304.0,      13.60,    15.80,    14.55,     9.90,    14.14
      305.0,      13.57,    15.76,    14.53,     9.88,    14.13
      306.0,      13.55,    15.73,    14.50,     9.87,    14.11
      307.0,      13.53,    15.69,    14.47,     9.85,    14.09
      308.0,      13.50,    15.65,    14.45,     9.84,    14.07
      309.0,      13.48,    15.61,    14.42,     9.82,    14.05
      310.0,      13.45,    15.58,    14.39,     9.81,    14.04
