Radius (km), Mean (m/s), NE (m/s), SE (m/s), SW (m/s), NW (m/s)
        0.0,       0.00,     0.00,     0.00,     0.00,     0.00
        1.0,       1.80,     1.38,     1.80,     2.25,     1.80
        2.0,       3.53,     2.98,     3.55,     4.05,     3.55
        3.0,       5.24,     4.69,     5.28,     5.71,     5.28
        4.0,       6.94,     6.47,     7.00,     7.28,     7.00
        5.0,       8.63,     8.30,     8.72,     8.80,     8.72
        6.0,      10.32,    10.17,    10.43,    10.27,    10.43
        7.0,      12.01,    12.08,    12.13,    11.70,    12.13
        8.0,      13.70,    14.03,    13.83,    13.10,    13.83
        9.0,      15.38,    16.00,    15.53,    14.47,    15.53
       10.0,      17.07,    18.00,    17.22,    15.83,    17.22
       11.0,      18.75,    20.02,    18.91,    17.16,    18.91
       12.0,      20.47,    22.11,    20.63,    18.49,    20.64
       13.0,      22.27,    24.32,    22.44,    19.87,    22.45
       14.0,      24.23,    26.75,    24.39,    21.36,    24.42
       15.0,      26.42,    29.48,    26.57,    23.01,    26.63
       16.0,      28.87,    32.54,    28.97,    24.87,    29.10
       17.0,      31.54,    35.89,    31.59,    26.91,    31.79
       18.0,      34.37,    39.44,    34.35,    29.07,    34.63
       19.0,      37.23,    43.05,    37.12,    31.25,    37.50
       20.0,      39.96,    46.52,    39.78,    33.32,    40.23
       21.0,      42.43,    49.68,    42.18,    35.18,    42.69
       22.0,      44.50,    52.36,    44.20,    36.69,    44.73
       23.0,      46.07,    54.45,    45.75,    37.80,    46.28
       24.0,      47.11,    55.89,    46.81,    38.47,    47.28
       25.0,      47.63,    56.70,    47.38,    38.71,    47.76
       26.0,      47.70,    56.94,    47.51,    38.56,    47.78
       27.0,      47.39,    56.73,    47.30,    38.11,    47.42
       28.0,      46.83,    56.19,    46.85,    37.45,    46.82
       29.0,      46.12,    55.48,    46.27,    36.67,    46.07
       30.0,      45.36,    54.68,    45.62,    35.86,    45.26
       31.0,      44.59,    53.88,    44.98,    35.05,    44.47
       32.0,      43.86,    53.11,    44.36,    34.29,    43.70
       33.0,      43.17,    52.38,    43.77,    33.57,    42.97
       34.0,      42.50,    51.66,    43.19,    32.88,    42.26
       35.0,      41.85,    50.97,    42.63,    32.22,    41.58
       36.0,      41.21,    50.28,    42.08,    31.59,    40.91
       37.0,      40.60,    49.61,    41.54,    30.98,    40.26
       38.0,      40.00,    48.96,    41.01,    30.39,    39.63
       39.0,      39.41,    48.31,    40.50,    29.83,    39.01
       40.0,      38.84,    47.68,    39.99,    29.29,    38.42
       41.0,      38.29,    47.06,    39.50,    28.76,    37.83
       42.0,      37.75,    46.46,    39.01,    28.26,    37.27
       43.0,      37.22,    45.86,    38.54,    27.78,    36.71
       44.0,      36.71,    45.28,    38.07,    27.31,    36.18
       45.0,      36.21,    44.71,    37.62,    26.87,    35.65
       46.0,      35.73,    44.15,    37.17,    26.44,    35.14
       47.0,      35.25,    43.60,    36.73,    26.02,    34.65
       48.0,      34.79,    43.07,    36.31,    25.62,    34.17
       49.0,      34.34,    42.54,    35.89,    25.24,    33.70
       50.0,      33.90,    42.02,    35.48,    24.87,    33.24
       51.0,      33.48,    41.52,    35.08,    24.51,    32.79
       52.0,      33.06,    41.02,    34.69,    24.17,    32.36
       53.0,      32.65,    40.54,    34.30,    23.84,    31.94
       54.0,      32.26,    40.06,    33.92,    23.52,    31.53
       55.0,      31.87,    39.59,    33.56,    23.22,    31.13
       56.0,      31.50,    39.13,    33.19,    22.92,    30.74
       57.0,      31.13,    38.68,    32.84,    22.64,    30.36
       58.0,      30.77,    38.24,    32.49,    22.37,    29.99
       59.0,      30.42,    37.81,    32.15,    22.10,    29.63
       60.0,      30.09,    37.39,    31.82,    21.85,    29.28
       61.0,      29.75,    36.98,    31.50,    21.61,    28.94
       62.0,      29.43,    36.57,    31.18,    21.37,    28.61
       63.0,      29.11,    36.17,    30.86,    21.14,    28.28
       64.0,      28.81,    35.78,    30.56,    20.92,    27.97
       65.0,      28.51,    35.40,    30.26,    20.71,    27.66
       66.0,      28.21,    35.02,    29.97,    20.51,    27.36
       67.0,      27.93,    34.65,    29.68,    20.31,    27.07
       68.0,      27.65,    34.29,    29.40,    20.12,    26.78
       69.0,      27.38,    33.94,    29.12,    19.94,    26.51
       70.0,      27.11,    33.59,    28.85,    19.77,    26.24
       71.0,      26.85,    33.25,    28.58,    19.60,    25.98
       72.0,      26.60,    32.92,    28.32,    19.43,    25.72
       73.0,      26.35,    32.59,    28.07,    19.28,    25.47
       74.0,      26.11,    32.27,    27.82,    19.12,    25.23
       75.0,      25.87,    31.95,    27.58,    18.98,    24.99
       76.0,      25.64,    31.64,    27.34,    18.83,    24.76
       77.0,      25.42,    31.34,    27.10,    18.70,    24.54
       78.0,      25.20,    31.04,    26.87,    18.56,    24.32
       79.0,      24.99,    30.75,    26.65,    18.44,    24.11
       80.0,      24.78,    30.47,    26.43,    18.31,    23.90
       81.0,      24.57,    30.19,    26.21,    18.19,    23.69
       82.0,      24.37,    29.91,    26.00,    18.08,    23.50
       83.0,      24.18,    29.64,    25.79,    17.97,    23.30
       84.0,      23.99,    29.38,    25.59,    17.86,    23.12
       85.0,      23.80,    29.12,    25.39,    17.75,    22.93
       86.0,      23.62,    28.87,    25.19,    17.65,    22.75
       87.0,      23.44,    28.62,    25.00,    17.55,    22.58
       88.0,      23.26,    28.37,    24.81,    17.46,    22.41
       89.0,      23.09,    28.13,    24.63,    17.37,    22.25
       90.0,      22.93,    27.90,    24.45,    17.28,    22.08
       91.0,      22.76,    27.67,    24.27,    17.19,    21.93
       92.0,      22.61,    27.44,    24.10,    17.11,    21.77
       93.0,      22.45,    27.22,    23.93,    17.03,    21.62
       94.0,      22.30,    27.00,    23.76,    16.95,    21.48
       95.0,      22.15,    26.79,    23.60,    16.88,    21.33
       96.0,      22.00,    26.58,    23.44,    16.80,    21.20
       97.0,      21.86,    26.37,    23.28,    16.73,    21.06
       98.0,      21.72,    26.17,    23.13,    16.66,    20.93
       99.0,      21.58,    25.97,    22.98,    16.60,    20.80
      100.0,      21.45,    25.77,    22.83,    16.53,    20.67
      101.0,      21.32,    25.58,    22.68,    16.47,    20.55
      102.0,      21.19,    25.40,    22.54,    16.41,    20.43
      103.0,      21.07,    25.21,    22.40,    16.35,    20.31
      104.0,      20.95,    25.03,    22.26,    16.29,    20.20
      105.0,      20.83,    24.86,    22.13,    16.23,    20.08
      106.0,      20.71,    24.68,    22.00,    16.18,    19.97
      107.0,      20.59,    24.51,    21.87,    16.12,    19.87
      108.0,      20.48,    24.34,    21.74,    16.07,    19.76
      109.0,      20.37,    24.18,    21.62,    16.02,    19.66
      110.0,      20.26,    24.02,    21.49,    15.97,    19.56
      111.0,      20.16,    23.86,    21.37,    15.92,    19.47
      112.0,      20.05,    23.70,    21.26,    15.88,    19.37
      113.0,      19.95,    23.55,    21.14,    15.83,    19.28
      114.0,      19.85,    23.40,    21.03,    15.79,    19.19
      115.0,      19.75,    23.26,    20.92,    15.74,    19.10
      116.0,      19.66,    23.11,    20.81,    15.70,    19.01
      117.0,      19.56,    22.97,    20.70,    15.66,    18.93
      118.0,      19.47,    22.83,    20.60,    15.62,    18.84
      119.0,      19.38,    22.69,    20.49,    15.58,    18.76
      120.0,      19.29,    22.56,    20.39,    15.54,    18.68
      121.0,      19.21,    22.43,    20.29,    15.51,    18.61
      122.0,      19.12,    22.30,    20.19,    15.47,    18.53
      123.0,      19.04,    22.17,    20.10,    15.43,    18.46
      124.0,      18.96,    22.05,    20.00,    15.40,    18.38
      125.0,      18.88,    21.92,    19.91,    15.36,    18.31
      126.0,      18.80,    21.80,    19.82,    15.33,    18.24
      127.0,      18.72,    21.68,    19.73,    15.30,    18.18
      128.0,      18.65,    21.57,    19.64,    15.26,    18.11
      129.0,      18.57,    21.45,    19.56,    15.23,    18.04
      130.0,      18.50,    21.34,    19.47,    15.20,    17.98
      131.0,      18.43,    21.23,    19.39,    15.17,    17.92
      132.0,      18.36,    21.12,    19.31,    15.14,    17.86
      133.0,      18.29,    21.02,    19.23,    15.11,    17.80
      134.0,      18.22,    20.91,    19.15,    15.08,    17.74
      135.0,      18.15,    20.81,    19.07,    15.05,    17.68
      136.0,      18.09,    20.71,    19.00,    15.02,    17.62
      137.0,      18.02,    20.61,    18.92,    15.00,    17.57
      138.0,      17.96,    20.51,    18.85,    14.97,    17.51
      139.0,      17.90,    20.42,    18.78,    14.94,    17.46
      140.0,      17.84,    20.32,    18.71,    14.92,    17.41
      141.0,      17.78,    20.23,    18.64,    14.89,    17.36
      142.0,      17.72,    20.14,    18.57,    14.86,    17.31
      143.0,      17.66,    20.05,    18.50,    14.84,    17.26
      144.0,      17.61,    19.96,    18.43,    14.81,    17.21
      145.0,      17.55,    19.88,    18.37,    14.79,    17.16
      146.0,      17.49,    19.79,    18.30,    14.77,    17.12
      147.0,      17.44,    19.71,    18.24,    14.74,    17.07
      148.0,      17.39,    19.63,    18.18,    14.72,    17.03
      149.0,      17.33,    19.54,    18.12,    14.69,    16.98
      150.0,      17.28,    19.46,    18.06,    14.67,    16.94
      151.0,      17.23,    19.39,    18.00,    14.65,    16.90
      152.0,      17.18,    19.31,    17.94,    14.63,    16.86
      153.0,      17.13,    19.23,    17.88,    14.60,    16.81
      154.0,      17.09,    19.16,    17.83,    14.58,    16.77
      155.0,      17.04,    19.09,    17.77,    14.56,    16.73
      156.0,      16.99,    19.01,    17.72,    14.54,    16.70
      157.0,      16.95,    18.94,    17.66,    14.52,    16.66
      158.0,      16.90,    18.87,    17.61,    14.50,    16.62
      159.0,      16.86,    18.80,    17.56,    14.48,    16.58
      160.0,      16.81,    18.74,    17.51,    14.45,    16.55
      161.0,      16.77,    18.67,    17.46,    14.43,    16.51
      162.0,      16.73,    18.61,    17.41,    14.41,    16.48
      163.0,      16.68,    18.54,    17.36,    14.39,    16.44
      164.0,      16.64,    18.48,    17.31,    14.37,    16.41
      165.0,      16.60,    18.41,    17.26,    14.35,    16.37
      166.0,      16.56,    18.35,    17.22,    14.33,    16.34
      167.0,      16.52,    18.29,    17.17,    14.31,    16.31
      168.0,      16.48,    18.23,    17.12,    14.30,    16.27
      169.0,      16.44,    18.17,    17.08,    14.28,    16.24
      170.0,      16.40,    18.12,    17.03,    14.26,    16.21
      171.0,      16.37,    18.06,    16.99,    14.24,    16.18
      172.0,      16.33,    18.00,    16.95,    14.22,    16.15
      173.0,      16.29,    17.95,    16.91,    14.20,    16.12
      174.0,      16.26,    17.89,    16.86,    14.18,    16.09
      175.0,      16.22,    17.84,    16.82,    14.16,    16.06
      176.0,      16.19,    17.79,    16.78,    14.15,    16.03
      177.0,      16.15,    17.74,    16.74,    14.13,    16.00
      178.0,      16.12,    17.68,    16.70,    14.11,    15.98
      179.0,      16.08,    17.63,    16.66,    14.09,    15.95
      180.0,      16.05,    17.58,    16.63,    14.07,    15.92
      181.0,      16.02,    17.53,    16.59,    14.05,    15.89
      182.0,      15.99,    17.49,    16.55,    14.04,    15.87
      183.0,      15.95,    17.44,    16.51,    14.02,    15.84
      184.0,      15.92,    17.39,    16.48,    14.00,    15.82
      185.0,      15.89,    17.34,    16.44,    13.98,    15.79
      186.0,      15.86,    17.30,    16.41,    13.97,    15.76
      187.0,      15.83,    17.25,    16.37,    13.95,    15.74
      188.0,      15.80,    17.21,    16.34,    13.93,    15.71
      189.0,      15.77,    17.16,    16.30,    13.92,    15.69
      190.0,      15.74,    17.12,    16.27,    13.90,    15.67
      191.0,      15.71,    17.08,    16.23,    13.88,    15.64
      192.0,      15.68,    17.04,    16.20,    13.86,    15.62
      193.0,      15.65,    16.99,    16.17,    13.85,    15.59
      194.0,      15.62,    16.95,    16.14,    13.83,    15.57
      195.0,      15.59,    16.91,    16.10,    13.81,    15.55
      196.0,      15.57,    16.87,    16.07,    13.80,    15.52
      197.0,      15.54,    16.83,    16.04,    13.78,    15.50
      198.0,      15.51,    16.79,    16.01,    13.76,    15.48
      199.0,      15.49,    16.76,    15.98,    13.75,    15.46
      200.0,      15.46,    16.72,    15.95,    13.73,    15.44
      201.0,      15.43,    16.68,    15.92,    13.71,    15.41
      202.0,      15.41,    16.64,    15.89,    13.70,    15.39
      203.0,      15.38,    16.61,    15.86,    13.68,    15.37
      204.0,      15.35,    16.57,    15.83,    13.66,    15.35
      205.0,      15.33,    16.53,    15.81,    13.65,    15.33
      206.0,      15.30,    16.50,    15.78,    13.63,    15.31
      207.0,      15.28,    16.46,    15.75,    13.62,    15.29
      208.0,      15.25,    16.43,    15.72,    13.60,    15.27
      209.0,      15.23,    16.39,    15.70,    13.58,    15.25
      210.0,      15.21,    16.36,    15.67,    13.57,    15.23
      211.0,      15.18,    16.33,    15.64,    13.55,    15.21
      212.0,      15.16,    16.29,    15.62,    13.54,    15.19
      213.0,      15.13,    16.26,    15.59,    13.52,    15.17
      214.0,      15.11,    16.23,    15.56,    13.50,    15.15
      215.0,      15.09,    16.20,    15.54,    13.49,    15.13
      216.0,      15.06,    16.17,    15.51,    13.47,    15.11
      217.0,      15.04,    16.14,    15.49,    13.46,    15.09
      218.0,      15.02,    16.10,    15.46,    13.44,    15.07
      219.0,      15.00,    16.07,    15.44,    13.42,    15.05
      220.0,      14.97,    16.04,    15.41,    13.41,    15.03
      221.0,      14.95,    16.01,    15.39,    13.39,    15.01
      222.0,      14.93,    15.98,    15.36,    13.38,    15.00
      223.0,      14.91,    15.96,    15.34,    13.36,    14.98
      224.0,      14.89,    15.93,    15.32,    13.35,    14.96
      225.0,      14.87,    15.90,    15.29,    13.33,    14.94
      226.0,      14.84,    15.87,    15.27,    13.32,    14.92
      227.0,      14.82,    15.84,    15.25,    13.30,    14.90
      228.0,      14.80,    15.81,    15.22,    13.28,    14.89
      229.0,      14.78,    15.79,    15.20,    13.27,    14.87
      230.0,      14.76,    15.76,    15.18,    13.25,    14.85
      231.0,      14.74,    15.73,    15.16,    13.24,    14.83
      232.0,      14.72,    15.70,    15.13,    13.22,    14.82
      233.0,      14.70,    15.68,    15.11,    13.21,    14.80
      234.0,      14.68,    15.65,    15.09,    13.19,    14.78
      235.0,      14.66,    15.63,    15.07,    13.18,    14.76
      236.0,      14.64,    15.60,    15.05,    13.16,    14.75
      237.0,      14.62,    15.57,    15.03,    13.15,    14.73
      238.0,      14.60,    15.55,    15.01,    13.13,    14.71
      239.0,      14.58,    15.52,    14.98,    13.12,    14.70
      240.0,      14.56,    15.50,    14.96,    13.10,    14.68
      241.0,      14.54,    15.47,    14.94,    13.09,    14.66
      242.0,      14.52,    15.45,    14.92,    13.07,    14.65
      243.0,      14.50,    15.43,    14.90,    13.06,    14.63
      244.0,      14.48,    15.40,    14.88,    13.04,    14.61
      245.0,      14.47,    15.38,    14.86,    13.03,    14.60
      246.0,      14.45,    15.35,    14.84,    13.01,    14.58
      247.0,      14.43,    15.33,    14.82,    13.00,    14.56
      248.0,      14.41,    15.31,    14.80,    12.98,    14.55
      249.0,      14.39,    15.29,    14.78,    12.97,    14.53
      250.0,      14.37,    15.26,    14.76,    12.95,    14.51
      251.0,      14.35,    15.24,    14.74,    12.94,    14.50
      252.0,      14.34,    15.22,    14.72,    12.92,    14.48
      253.0,      14.32,    15.19,    14.70,    12.91,    14.47
      254.0,      14.30,    15.17,    14.69,    12.89,    14.45
      255.0,      14.28,    15.15,    14.67,    12.88,    14.43
      256.0,      14.26,    15.13,    14.65,    12.86,    14.42
      257.0,      14.25,    15.11,    14.63,    12.85,    14.40
      258.0,      14.23,    15.09,    14.61,    12.83,    14.39
      259.0,      14.21,    15.06,    14.59,    12.82,    14.37
      260.0,      14.19,    15.04,    14.57,    12.80,    14.36
      261.0,      14.18,    15.02,    14.56,    12.79,    14.34
      262.0,      14.16,    15.00,    14.54,    12.77,    14.32
      263.0,      14.14,    14.98,    14.52,    12.76,    14.31
      264.0,      14.12,    14.96,    14.50,    12.74,    14.29
      265.0,      14.11,    14.94,    14.48,    12.73,    14.28
      266.0,      14.09,    14.92,    14.47,    12.72,    14.26
      267.0,      14.07,    14.90,    14.45,    12.70,    14.25
      268.0,      14.06,    14.88,    14.43,    12.69,    14.23
      269.0,      14.04,    14.86,    14.41,    12.67,    14.22
      270.0,      14.02,    14.84,    14.40,    12.66,    14.20
      271.0,      14.01,    14.82,    14.38,    12.64,    14.19
      272.0,      13.99,    14.80,    14.36,    12.63,    14.17
      273.0,      13.97,    14.78,    14.34,    12.61,    14.16
      274.0,      13.96,    14.76,    14.33,    12.60,    14.14
      275.0,      13.94,    14.74,    14.31,    12.58,    14.13
      276.0,      13.92,    14.72,    14.29,    12.57,    14.11
      277.0,      13.91,    14.70,    14.28,    12.56,    14.10
      278.0,      13.89,    14.68,    14.26,    12.54,    14.08
      279.0,      13.88,    14.66,    14.24,    12.53,    14.07
      280.0,      13.86,    14.65,    14.23,    12.51,    14.05
      281.0,      13.84,    14.63,    14.21,    12.50,    14.04
      282.0,      13.83,    14.61,    14.19,    12.48,    14.02
      283.0,      13.81,    14.59,    14.18,    12.47,    14.01
      284.0,      13.80,    14.57,    14.16,    12.46,    13.99
      285.0,      13.78,    14.55,    14.14,    12.44,    13.98
      286.0,      13.76,    14.54,    14.13,    12.43,    13.97
      287.0,      13.75,    14.52,    14.11,    12.41,    13.95
      288.0,      13.73,    14.50,    14.09,    12.40,    13.94
      289.0,      13.72,    14.48,    14.08,    12.38,    13.92
      290.0,      13.70,    14.46,    14.06,    12.37,    13.91
      291.0,      13.69,    14.45,    14.05,    12.36,    13.89
      292.0,      13.67,    14.43,    14.03,    12.34,    13.88
      293.0,      13.65,    14.41,    14.01,    12.33,    13.86
      294.0,      13.64,    14.39,    14.00,    12.31,    13.85
      295.0,      13.62,    14.38,    13.98,    12.30,    13.84
      296.0,      13.61,    14.36,    13.97,    12.29,    13.82
      297.0,      13.59,    14.34,    13.95,    12.27,    13.81
      298.0,      13.58,    14.32,    13.94,    12.26,    13.79
      299.0,      13.56,    14.31,    13.92,    12.24,    13.78
      300.0,      13.55,    14.29,    13.91,    12.23,    13.76
      301.0,      13.53,    14.27,    13.89,    12.22,    13.75
      302.0,      13.52,    14.26,    13.87,    12.20,    13.74
      303.0,      13.50,    14.24,    13.86,    12.19,    13.72
      304.0,      13.49,    14.22,    13.84,    12.17,    13.71
      305.0,      13.47,    14.21,    13.83,    12.16,    13.69
      306.0,      13.46,    14.19,    13.81,    12.15,    13.68
      307.0,      13.44,    14.17,    13.80,    12.13,    13.67
      308.0,      13.43,    14.16,    13.78,    12.12,    13.65
      309.0,      13.41,    14.14,    13.77,    12.11,    13.64
      310.0,      13.40,    14.12,    13.75,    12.09,    13.62
