Radius (km), Mean (m/s), NE (m/s), SE (m/s), SW (m/s), NW (m/s)
        0.0,       0.00,     0.00,     0.00,     0.00,     0.00
        1.0,       1.62,     1.20,     1.52,     2.07,     1.69
        2.0,       3.31,     2.73,     3.20,     3.88,     3.43
        3.0,       5.04,     4.42,     4.94,     5.61,     5.18
        4.0,       6.79,     6.21,     6.72,     7.29,     6.95
        5.0,       8.57,     8.08,     8.54,     8.93,     8.72
        6.0,      10.36,    10.03,    10.39,    10.54,    10.50
        7.0,      12.18,    12.03,    12.26,    12.12,    12.29
        8.0,      14.00,    14.09,    14.15,    13.68,    14.08
        9.0,      15.84,    16.20,    16.06,    15.23,    15.88
       10.0,      17.69,    18.35,    17.98,    16.76,    17.67
       11.0,      19.56,    20.55,    19.92,    18.28,    19.48
       12.0,      21.45,    22.82,    21.89,    19.79,    21.28
       13.0,      23.40,    25.26,    23.95,    21.29,    23.10
       14.0,      25.50,    27.98,    26.19,    22.83,    24.99
       15.0,      27.81,    31.06,    28.71,    24.48,    27.01
       16.0,      30.40,    34.55,    31.54,    26.28,    29.25
       17.0,      33.27,    38.40,    34.68,    28.27,    31.74
       18.0,      36.37,    42.51,    38.05,    30.45,    34.47
       19.0,      39.58,    46.69,    41.51,    32.74,    37.37
       20.0,      42.74,    50.72,    44.88,    35.05,    40.31
       21.0,      45.68,    54.37,    47.97,    37.25,    43.14
       22.0,      48.24,    57.46,    50.59,    39.22,    45.68
       23.0,      50.27,    59.84,    52.62,    40.84,    47.78
       24.0,      51.69,    61.44,    53.99,    42.01,    49.33
       25.0,      52.49,    62.27,    54.70,    42.72,    50.28
       26.0,      52.71,    62.43,    54.80,    42.96,    50.64
       27.0,      52.43,    62.04,    54.41,    42.80,    50.48
       28.0,      51.78,    61.27,    53.67,    42.31,    49.89
       29.0,      50.90,    60.28,    52.71,    41.60,    49.01
       30.0,      49.90,    59.20,    51.67,    40.77,    47.98
       31.0,      48.89,    58.13,    50.63,    39.90,    46.90
       32.0,      47.91,    57.10,    49.64,    39.06,    45.84
       33.0,      46.99,    56.12,    48.71,    38.28,    44.86
       34.0,      46.12,    55.17,    47.82,    37.54,    43.94
       35.0,      45.28,    54.24,    46.97,    36.85,    43.07
       36.0,      44.48,    53.34,    46.15,    36.18,    42.24
       37.0,      43.70,    52.47,    45.35,    35.54,    41.44
       38.0,      42.94,    51.61,    44.59,    34.92,    40.66
       39.0,      42.21,    50.77,    43.85,    34.32,    39.91
       40.0,      41.51,    49.96,    43.14,    33.74,    39.19
       41.0,      40.82,    49.16,    42.45,    33.19,    38.50
       42.0,      40.16,    48.39,    41.78,    32.65,    37.82
       43.0,      39.52,    47.63,    41.14,    32.13,    37.18
       44.0,      38.90,    46.89,    40.52,    31.63,    36.55
       45.0,      38.30,    46.17,    39.92,    31.14,    35.94
       46.0,      37.71,    45.47,    39.34,    30.68,    35.36
       47.0,      37.15,    44.79,    38.78,    30.22,    34.79
       48.0,      36.60,    44.12,    38.25,    29.79,    34.25
       49.0,      36.07,    43.47,    37.72,    29.37,    33.72
       50.0,      35.56,    42.83,    37.22,    28.96,    33.21
       51.0,      35.06,    42.21,    36.73,    28.56,    32.72
       52.0,      34.57,    41.61,    36.26,    28.18,    32.24
       53.0,      34.11,    41.02,    35.81,    27.81,    31.78
       54.0,      33.65,    40.44,    35.37,    27.46,    31.34
       55.0,      33.21,    39.88,    34.94,    27.11,    30.91
       56.0,      32.78,    39.33,    34.53,    26.78,    30.49
       57.0,      32.37,    38.80,    34.13,    26.46,    30.09
       58.0,      31.97,    38.27,    33.75,    26.14,    29.70
       59.0,      31.58,    37.77,    33.38,    25.84,    29.32
       60.0,      31.20,    37.27,    33.02,    25.55,    28.95
       61.0,      30.83,    36.78,    32.67,    25.27,    28.60
       62.0,      30.47,    36.31,    32.33,    24.99,    28.26
       63.0,      30.13,    35.85,    32.01,    24.72,    27.93
       64.0,      29.79,    35.40,    31.69,    24.47,    27.60
       65.0,      29.46,    34.96,    31.39,    24.22,    27.29
       66.0,      29.15,    34.53,    31.09,    23.97,    26.99
       67.0,      28.84,    34.11,    30.81,    23.74,    26.70
       68.0,      28.54,    33.71,    30.53,    23.51,    26.41
       69.0,      28.25,    33.31,    30.26,    23.29,    26.14
       70.0,      27.97,    32.92,    30.00,    23.08,    25.87
       71.0,      27.69,    32.54,    29.75,    22.87,    25.61
       72.0,      27.43,    32.17,    29.50,    22.67,    25.36
       73.0,      27.17,    31.81,    29.27,    22.47,    25.12
       74.0,      26.91,    31.46,    29.04,    22.28,    24.88
       75.0,      26.67,    31.11,    28.82,    22.09,    24.65
       76.0,      26.43,    30.77,    28.60,    21.91,    24.43
       77.0,      26.20,    30.45,    28.39,    21.74,    24.21
       78.0,      25.97,    30.13,    28.19,    21.57,    24.00
       79.0,      25.75,    29.81,    27.99,    21.40,    23.79
       80.0,      25.54,    29.51,    27.80,    21.24,    23.59
       81.0,      25.33,    29.21,    27.61,    21.08,    23.40
       82.0,      25.12,    28.92,    27.43,    20.93,    23.21
       83.0,      24.93,    28.64,    27.26,    20.78,    23.03
       84.0,      24.73,    28.36,    27.08,    20.64,    22.85
       85.0,      24.54,    28.09,    26.92,    20.50,    22.67
       86.0,      24.36,    27.82,    26.76,    20.36,    22.50
       87.0,      24.18,    27.56,    26.60,    20.23,    22.34
       88.0,      24.01,    27.31,    26.45,    20.10,    22.18
       89.0,      23.84,    27.07,    26.30,    19.97,    22.02
       90.0,      23.67,    26.83,    26.16,    19.84,    21.87
       91.0,      23.51,    26.59,    26.02,    19.72,    21.72
       92.0,      23.35,    26.36,    25.88,    19.60,    21.57
       93.0,      23.20,    26.14,    25.75,    19.49,    21.43
       94.0,      23.05,    25.92,    25.62,    19.37,    21.29
       95.0,      22.90,    25.71,    25.49,    19.26,    21.15
       96.0,      22.76,    25.50,    25.37,    19.15,    21.02
       97.0,      22.62,    25.29,    25.25,    19.05,    20.89
       98.0,      22.48,    25.09,    25.13,    18.94,    20.76
       99.0,      22.35,    24.90,    25.02,    18.84,    20.64
      100.0,      22.22,    24.71,    24.91,    18.74,    20.52
      101.0,      22.09,    24.52,    24.80,    18.65,    20.40
      102.0,      21.97,    24.34,    24.69,    18.55,    20.28
      103.0,      21.84,    24.16,    24.59,    18.46,    20.17
      104.0,      21.72,    23.99,    24.49,    18.37,    20.06
      105.0,      21.61,    23.82,    24.39,    18.28,    19.95
      106.0,      21.49,    23.65,    24.29,    18.19,    19.84
      107.0,      21.38,    23.49,    24.20,    18.10,    19.73
      108.0,      21.27,    23.33,    24.10,    18.02,    19.63
      109.0,      21.16,    23.18,    24.01,    17.93,    19.53
      110.0,      21.06,    23.03,    23.92,    17.85,    19.43
      111.0,      20.96,    22.88,    23.84,    17.77,    19.33
      112.0,      20.85,    22.73,    23.75,    17.69,    19.24
      113.0,      20.75,    22.59,    23.67,    17.61,    19.14
      114.0,      20.66,    22.46,    23.59,    17.54,    19.05
      115.0,      20.56,    22.32,    23.51,    17.46,    18.96
      116.0,      20.47,    22.19,    23.43,    17.39,    18.87
      117.0,      20.38,    22.06,    23.35,    17.32,    18.78
      118.0,      20.29,    21.93,    23.28,    17.24,    18.69
      119.0,      20.20,    21.81,    23.20,    17.17,    18.61
      120.0,      20.11,    21.69,    23.13,    17.10,    18.53
      121.0,      20.03,    21.57,    23.06,    17.03,    18.44
      122.0,      19.94,    21.45,    22.99,    16.97,    18.36
      123.0,      19.86,    21.34,    22.92,    16.90,    18.28
      124.0,      19.78,    21.23,    22.85,    16.83,    18.20
      125.0,      19.70,    21.12,    22.79,    16.77,    18.13
      126.0,      19.62,    21.01,    22.72,    16.70,    18.05
      127.0,      19.54,    20.91,    22.66,    16.64,    17.97
      128.0,      19.47,    20.81,    22.59,    16.58,    17.90
      129.0,      19.39,    20.71,    22.53,    16.52,    17.82
      130.0,      19.32,    20.61,    22.47,    16.46,    17.75
      131.0,      19.25,    20.51,    22.41,    16.40,    17.68
      132.0,      19.18,    20.42,    22.35,    16.34,    17.61
      133.0,      19.11,    20.33,    22.29,    16.28,    17.54
      134.0,      19.04,    20.24,    22.23,    16.22,    17.47
      135.0,      18.97,    20.15,    22.17,    16.16,    17.40
      136.0,      18.90,    20.06,    22.12,    16.10,    17.33
      137.0,      18.84,    19.98,    22.06,    16.05,    17.27
      138.0,      18.77,    19.90,    22.01,    15.99,    17.20
      139.0,      18.71,    19.81,    21.95,    15.94,    17.14
      140.0,      18.65,    19.74,    21.90,    15.88,    17.07
      141.0,      18.58,    19.66,    21.85,    15.83,    17.01
      142.0,      18.52,    19.58,    21.79,    15.77,    16.94
      143.0,      18.46,    19.51,    21.74,    15.72,    16.88
      144.0,      18.40,    19.43,    21.69,    15.67,    16.82
      145.0,      18.34,    19.36,    21.64,    15.61,    16.76
      146.0,      18.28,    19.29,    21.59,    15.56,    16.70
      147.0,      18.23,    19.22,    21.54,    15.51,    16.63
      148.0,      18.17,    19.15,    21.49,    15.46,    16.57
      149.0,      18.11,    19.09,    21.44,    15.41,    16.52
      150.0,      18.06,    19.02,    21.39,    15.36,    16.46
      151.0,      18.00,    18.96,    21.35,    15.31,    16.40
      152.0,      17.95,    18.89,    21.30,    15.26,    16.34
      153.0,      17.89,    18.83,    21.25,    15.21,    16.28
      154.0,      17.84,    18.77,    21.21,    15.16,    16.23
      155.0,      17.79,    18.71,    21.16,    15.11,    16.17
      156.0,      17.74,    18.65,    21.12,    15.07,    16.11
      157.0,      17.69,    18.60,    21.07,    15.02,    16.06
      158.0,      17.63,    18.54,    21.03,    14.97,    16.00
      159.0,      17.58,    18.48,    20.98,    14.92,    15.95
      160.0,      17.53,    18.43,    20.94,    14.88,    15.89
      161.0,      17.49,    18.38,    20.89,    14.83,    15.84
      162.0,      17.44,    18.32,    20.85,    14.79,    15.79
      163.0,      17.39,    18.27,    20.81,    14.74,    15.73
      164.0,      17.34,    18.22,    20.76,    14.69,    15.68
      165.0,      17.29,    18.17,    20.72,    14.65,    15.63
      166.0,      17.24,    18.12,    20.68,    14.60,    15.57
      167.0,      17.20,    18.07,    20.64,    14.56,    15.52
      168.0,      17.15,    18.03,    20.60,    14.51,    15.47
      169.0,      17.11,    17.98,    20.56,    14.47,    15.42
      170.0,      17.06,    17.93,    20.51,    14.43,    15.37
      171.0,      17.02,    17.89,    20.47,    14.38,    15.32
      172.0,      16.97,    17.84,    20.43,    14.34,    15.27
      173.0,      16.93,    17.80,    20.39,    14.30,    15.22
      174.0,      16.88,    17.76,    20.35,    14.25,    15.17
      175.0,      16.84,    17.72,    20.31,    14.21,    15.12
      176.0,      16.80,    17.67,    20.27,    14.17,    15.07
      177.0,      16.75,    17.63,    20.23,    14.12,    15.02
      178.0,      16.71,    17.59,    20.19,    14.08,    14.97
      179.0,      16.67,    17.55,    20.16,    14.04,    14.92
      180.0,      16.63,    17.51,    20.12,    14.00,    14.87
      181.0,      16.58,    17.47,    20.08,    13.96,    14.83
      182.0,      16.54,    17.44,    20.04,    13.92,    14.78
      183.0,      16.50,    17.40,    20.00,    13.87,    14.73
      184.0,      16.46,    17.36,    19.96,    13.83,    14.68
      185.0,      16.42,    17.33,    19.92,    13.79,    14.64
      186.0,      16.38,    17.29,    19.89,    13.75,    14.59
      187.0,      16.34,    17.25,    19.85,    13.71,    14.54
      188.0,      16.30,    17.22,    19.81,    13.67,    14.50
      189.0,      16.26,    17.19,    19.77,    13.63,    14.45
      190.0,      16.22,    17.15,    19.74,    13.59,    14.40
      191.0,      16.18,    17.12,    19.70,    13.55,    14.36
      192.0,      16.14,    17.08,    19.66,    13.51,    14.31
      193.0,      16.10,    17.05,    19.63,    13.47,    14.27
      194.0,      16.07,    17.02,    19.59,    13.43,    14.22
      195.0,      16.03,    16.99,    19.55,    13.39,    14.18
      196.0,      15.99,    16.96,    19.52,    13.35,    14.13
      197.0,      15.95,    16.93,    19.48,    13.31,    14.09
      198.0,      15.92,    16.89,    19.45,    13.28,    14.04
      199.0,      15.88,    16.86,    19.41,    13.24,    14.00
      200.0,      15.84,    16.83,    19.37,    13.20,    13.96
      201.0,      15.80,    16.80,    19.34,    13.16,    13.91
      202.0,      15.77,    16.78,    19.30,    13.12,    13.87
      203.0,      15.73,    16.75,    19.27,    13.08,    13.82
      204.0,      15.69,    16.72,    19.23,    13.05,    13.78
      205.0,      15.66,    16.69,    19.20,    13.01,    13.74
      206.0,      15.62,    16.66,    19.16,    12.97,    13.70
      207.0,      15.59,    16.63,    19.13,    12.93,    13.65
      208.0,      15.55,    16.61,    19.09,    12.90,    13.61
      209.0,      15.52,    16.58,    19.06,    12.86,    13.57
      210.0,      15.48,    16.55,    19.02,    12.82,    13.53
      211.0,      15.45,    16.53,    18.99,    12.78,    13.48
      212.0,      15.41,    16.50,    18.95,    12.75,    13.44
      213.0,      15.38,    16.47,    18.92,    12.71,    13.40
      214.0,      15.34,    16.45,    18.89,    12.67,    13.36
      215.0,      15.31,    16.42,    18.85,    12.64,    13.32
      216.0,      15.27,    16.40,    18.82,    12.60,    13.27
      217.0,      15.24,    16.37,    18.78,    12.57,    13.23
      218.0,      15.21,    16.35,    18.75,    12.53,    13.19
      219.0,      15.17,    16.32,    18.72,    12.49,    13.15
      220.0,      15.14,    16.30,    18.68,    12.46,    13.11
      221.0,      15.10,    16.28,    18.65,    12.42,    13.07
      222.0,      15.07,    16.25,    18.62,    12.39,    13.03
      223.0,      15.04,    16.23,    18.58,    12.35,    12.99
      224.0,      15.00,    16.20,    18.55,    12.32,    12.95
      225.0,      14.97,    16.18,    18.52,    12.28,    12.91
      226.0,      14.94,    16.16,    18.48,    12.25,    12.87
      227.0,      14.91,    16.14,    18.45,    12.21,    12.83
      228.0,      14.87,    16.11,    18.42,    12.18,    12.79
      229.0,      14.84,    16.09,    18.38,    12.14,    12.75
      230.0,      14.81,    16.07,    18.35,    12.11,    12.71
      231.0,      14.78,    16.05,    18.32,    12.07,    12.67
      232.0,      14.74,    16.02,    18.28,    12.04,    12.63
      233.0,      14.71,    16.00,    18.25,    12.00,    12.59
      234.0,      14.68,    15.98,    18.22,    11.97,    12.56
      235.0,      14.65,    15.96,    18.19,    11.93,    12.52
      236.0,      14.62,    15.94,    18.15,    11.90,    12.48
      237.0,      14.59,    15.92,    18.12,    11.87,    12.44
      238.0,      14.55,    15.90,    18.09,    11.83,    12.40
      239.0,      14.52,    15.87,    18.06,    11.80,    12.36
      240.0,      14.49,    15.85,    18.03,    11.76,    12.32
      241.0,      14.46,    15.83,    17.99,    11.73,    12.29
      242.0,      14.43,    15.81,    17.96,    11.70,    12.25
      243.0,      14.40,    15.79,    17.93,    11.66,    12.21
      244.0,      14.37,    15.77,    17.90,    11.63,    12.17
      245.0,      14.34,    15.75,    17.87,    11.60,    12.14
      246.0,      14.31,    15.73,    17.83,    11.56,    12.10
      247.0,      14.28,    15.71,    17.80,    11.53,    12.06
      248.0,      14.25,    15.69,    17.77,    11.50,    12.03
      249.0,      14.22,    15.67,    17.74,    11.47,    11.99
      250.0,      14.19,    15.65,    17.71,    11.43,    11.95
      251.0,      14.16,    15.63,    17.68,    11.40,    11.91
      252.0,      14.13,    15.61,    17.65,    11.37,    11.88
      253.0,      14.10,    15.60,    17.61,    11.34,    11.84
      254.0,      14.07,    15.58,    17.58,    11.30,    11.81
      255.0,      14.04,    15.56,    17.55,    11.27,    11.77
      256.0,      14.01,    15.54,    17.52,    11.24,    11.73
      257.0,      13.98,    15.52,    17.49,    11.21,    11.70
      258.0,      13.95,    15.50,    17.46,    11.18,    11.66
      259.0,      13.92,    15.48,    17.43,    11.14,    11.63
      260.0,      13.89,    15.46,    17.40,    11.11,    11.59
      261.0,      13.86,    15.45,    17.37,    11.08,    11.55
      262.0,      13.83,    15.43,    17.34,    11.05,    11.52
      263.0,      13.80,    15.41,    17.30,    11.02,    11.48
      264.0,      13.78,    15.39,    17.27,    10.99,    11.45
      265.0,      13.75,    15.37,    17.24,    10.96,    11.41
      266.0,      13.72,    15.36,    17.21,    10.92,    11.38
      267.0,      13.69,    15.34,    17.18,    10.89,    11.34
      268.0,      13.66,    15.32,    17.15,    10.86,    11.31
      269.0,      13.63,    15.30,    17.12,    10.83,    11.27
      270.0,      13.60,    15.28,    17.09,    10.80,    11.24
      271.0,      13.58,    15.27,    17.06,    10.77,    11.20
      272.0,      13.55,    15.25,    17.03,    10.74,    11.17
      273.0,      13.52,    15.23,    17.00,    10.71,    11.14
      274.0,      13.49,    15.21,    16.97,    10.68,    11.10
      275.0,      13.46,    15.20,    16.94,    10.65,    11.07
      276.0,      13.44,    15.18,    16.91,    10.62,    11.03
      277.0,      13.41,    15.16,    16.88,    10.59,    11.00
      278.0,      13.38,    15.15,    16.85,    10.56,    10.97
      279.0,      13.35,    15.13,    16.82,    10.53,    10.93
      280.0,      13.33,    15.11,    16.79,    10.50,    10.90
      281.0,      13.30,    15.09,    16.76,    10.47,    10.87
      282.0,      13.27,    15.08,    16.73,    10.44,    10.83
      283.0,      13.24,    15.06,    16.70,    10.41,    10.80
      284.0,      13.22,    15.04,    16.67,    10.38,    10.77
      285.0,      13.19,    15.03,    16.65,    10.35,    10.73
      286.0,      13.16,    15.01,    16.62,    10.32,    10.70
      287.0,      13.13,    14.99,    16.59,    10.29,    10.67
      288.0,      13.11,    14.98,    16.56,    10.26,    10.64
      289.0,      13.08,    14.96,    16.53,    10.23,    10.60
      290.0,      13.05,    14.94,    16.50,    10.20,    10.57
      291.0,      13.03,    14.93,    16.47,    10.17,    10.54
      292.0,      13.00,    14.91,    16.44,    10.15,    10.51
      293.0,      12.97,    14.89,    16.41,    10.12,    10.47
      294.0,      12.95,    14.88,    16.38,    10.09,    10.44
      295.0,      12.92,    14.86,    16.35,    10.06,    10.41
      296.0,      12.90,    14.85,    16.33,    10.03,    10.38
      297.0,      12.87,    14.83,    16.30,    10.00,    10.35
      298.0,      12.84,    14.81,    16.27,     9.97,    10.31
      299.0,      12.82,    14.80,    16.24,     9.95,    10.28
      300.0,      12.79,    14.78,    16.21,     9.92,    10.25
      301.0,      12.76,    14.77,    16.18,     9.89,    10.22
      302.0,      12.74,    14.75,    16.15,     9.86,    10.19
      303.0,      12.71,    14.73,    16.13,     9.83,    10.16
      304.0,      12.69,    14.72,    16.10,     9.81,    10.13
      305.0,      12.66,    14.70,    16.07,     9.78,    10.10
      306.0,      12.64,    14.69,    16.04,     9.75,    10.06
      307.0,      12.61,    14.67,    16.01,     9.72,    10.03
      308.0,      12.58,    14.66,    15.98,     9.69,    10.00
      309.0,      12.56,    14.64,    15.96,     9.67,     9.97
      310.0,      12.53,    14.62,    15.93,     9.64,     9.94
