Radius (km), Mean (m/s), NE (m/s), SE (m/s), SW (m/s), NW (m/s)
        0.0,       0.00,     0.00,     0.00,     0.00,     0.00
        1.0,       1.77,     1.31,     1.76,     2.25,     1.76
        2.0,       3.49,     2.89,     3.50,     4.06,     3.50
        3.0,       5.20,     4.59,     5.24,     5.72,     5.24
        4.0,       6.91,     6.38,     6.98,     7.31,     6.98
        5.0,       8.63,     8.22,     8.72,     8.84,     8.72
        6.0,      10.34,    10.13,    10.45,    10.32,    10.45
        7.0,      12.05,    12.07,    12.19,    11.76,    12.19
        8.0,      13.77,    14.06,    13.92,    13.18,    13.92
        9.0,      15.48,    16.08,    15.65,    14.56,    15.65
       10.0,      17.20,    18.13,    17.38,    15.93,    17.38
       11.0,      18.92,    20.21,    19.11,    17.27,    19.11
       12.0,      20.66,    22.34,    20.85,    18.60,    20.84
       13.0,      22.43,    24.57,    22.63,    19.94,    22.58
       14.0,      24.31,    27.01,    24.51,    21.34,    24.40
       15.0,      26.38,    29.74,    26.57,    22.85,    26.34
       16.0,      28.66,    32.83,    28.85,    24.51,    28.47
       17.0,      31.19,    36.27,    31.34,    26.33,    30.81
       18.0,      33.90,    39.97,    34.01,    28.28,    33.35
       19.0,      36.71,    43.79,    36.75,    30.30,    36.01
       20.0,      39.49,    47.53,    39.44,    32.28,    38.69
       21.0,      42.07,    50.98,    41.95,    34.12,    41.24
       22.0,      44.33,    53.95,    44.14,    35.71,    43.53
       23.0,      46.15,    56.27,    45.91,    36.97,    45.44
       24.0,      47.46,    57.88,    47.20,    37.86,    46.88
       25.0,      48.23,    58.77,    48.00,    38.35,    47.82
       26.0,      48.51,    58.98,    48.33,    38.47,    48.26
       27.0,      48.37,    58.65,    48.28,    38.28,    48.27
       28.0,      47.91,    57.92,    47.94,    37.85,    47.94
       29.0,      47.26,    56.95,    47.42,    37.28,    47.37
       30.0,      46.50,    55.87,    46.81,    36.63,    46.68
       31.0,      45.72,    54.79,    46.19,    35.97,    45.94
       32.0,      44.97,    53.75,    45.58,    35.33,    45.22
       33.0,      44.26,    52.77,    45.01,    34.73,    44.53
       34.0,      43.59,    51.84,    44.46,    34.15,    43.89
       35.0,      42.94,    50.94,    43.93,    33.60,    43.27
       36.0,      42.30,    50.07,    43.42,    33.06,    42.66
       37.0,      41.69,    49.23,    42.91,    32.53,    42.07
       38.0,      41.09,    48.42,    42.42,    32.02,    41.49
       39.0,      40.50,    47.63,    41.93,    31.53,    40.92
       40.0,      39.93,    46.86,    41.46,    31.04,    40.36
       41.0,      39.38,    46.12,    41.00,    30.57,    39.82
       42.0,      38.83,    45.40,    40.54,    30.11,    39.29
       43.0,      38.31,    44.70,    40.10,    29.67,    38.76
       44.0,      37.79,    44.02,    39.67,    29.23,    38.25
       45.0,      37.29,    43.36,    39.24,    28.81,    37.75
       46.0,      36.80,    42.73,    38.83,    28.40,    37.26
       47.0,      36.33,    42.11,    38.42,    28.00,    36.78
       48.0,      35.86,    41.51,    38.02,    27.61,    36.31
       49.0,      35.41,    40.94,    37.63,    27.23,    35.84
       50.0,      34.97,    40.37,    37.25,    26.86,    35.39
       51.0,      34.54,    39.83,    36.88,    26.50,    34.95
       52.0,      34.12,    39.30,    36.52,    26.15,    34.52
       53.0,      33.71,    38.79,    36.16,    25.81,    34.09
       54.0,      33.31,    38.29,    35.81,    25.48,    33.67
       55.0,      32.93,    37.81,    35.47,    25.16,    33.27
       56.0,      32.55,    37.34,    35.14,    24.84,    32.87
       57.0,      32.18,    36.89,    34.81,    24.54,    32.48
       58.0,      31.82,    36.44,    34.49,    24.24,    32.09
       59.0,      31.46,    36.02,    34.17,    23.95,    31.72
       60.0,      31.12,    35.60,    33.87,    23.67,    31.35
       61.0,      30.79,    35.20,    33.57,    23.39,    30.99
       62.0,      30.46,    34.81,    33.27,    23.12,    30.63
       63.0,      30.14,    34.43,    32.98,    22.86,    30.29
       64.0,      29.83,    34.06,    32.70,    22.61,    29.95
       65.0,      29.52,    33.70,    32.42,    22.36,    29.61
       66.0,      29.23,    33.35,    32.15,    22.12,    29.29
       67.0,      28.94,    33.02,    31.89,    21.88,    28.97
       68.0,      28.65,    32.69,    31.62,    21.65,    28.65
       69.0,      28.38,    32.37,    31.37,    21.43,    28.35
       70.0,      28.11,    32.06,    31.12,    21.21,    28.05
       71.0,      27.85,    31.76,    30.87,    21.00,    27.75
       72.0,      27.59,    31.47,    30.63,    20.79,    27.46
       73.0,      27.34,    31.19,    30.40,    20.59,    27.18
       74.0,      27.09,    30.91,    30.17,    20.39,    26.90
       75.0,      26.85,    30.64,    29.94,    20.20,    26.63
       76.0,      26.62,    30.38,    29.72,    20.01,    26.36
       77.0,      26.39,    30.13,    29.50,    19.83,    26.10
       78.0,      26.17,    29.88,    29.29,    19.65,    25.84
       79.0,      25.95,    29.64,    29.08,    19.48,    25.59
       80.0,      25.73,    29.41,    28.88,    19.31,    25.34
       81.0,      25.52,    29.18,    28.68,    19.14,    25.10
       82.0,      25.32,    28.96,    28.48,    18.98,    24.86
       83.0,      25.12,    28.74,    28.29,    18.83,    24.63
       84.0,      24.93,    28.54,    28.10,    18.67,    24.40
       85.0,      24.73,    28.33,    27.91,    18.52,    24.17
       86.0,      24.55,    28.13,    27.73,    18.38,    23.95
       87.0,      24.37,    27.94,    27.55,    18.23,    23.74
       88.0,      24.19,    27.75,    27.37,    18.10,    23.52
       89.0,      24.01,    27.57,    27.20,    17.96,    23.32
       90.0,      23.84,    27.39,    27.03,    17.83,    23.11
       91.0,      23.67,    27.22,    26.87,    17.70,    22.91
       92.0,      23.51,    27.05,    26.70,    17.57,    22.71
       93.0,      23.35,    26.88,    26.54,    17.45,    22.52
       94.0,      23.19,    26.72,    26.39,    17.33,    22.33
       95.0,      23.04,    26.56,    26.23,    17.21,    22.15
       96.0,      22.89,    26.41,    26.08,    17.10,    21.96
       97.0,      22.74,    26.26,    25.93,    16.99,    21.79
       98.0,      22.60,    26.11,    25.79,    16.88,    21.61
       99.0,      22.45,    25.97,    25.64,    16.77,    21.44
      100.0,      22.32,    25.83,    25.50,    16.66,    21.27
      101.0,      22.18,    25.70,    25.36,    16.56,    21.10
      102.0,      22.05,    25.56,    25.23,    16.46,    20.94
      103.0,      21.92,    25.43,    25.09,    16.36,    20.78
      104.0,      21.79,    25.31,    24.96,    16.27,    20.62
      105.0,      21.66,    25.18,    24.83,    16.18,    20.47
      106.0,      21.54,    25.06,    24.70,    16.09,    20.31
      107.0,      21.42,    24.94,    24.58,    16.00,    20.17
      108.0,      21.30,    24.83,    24.46,    15.91,    20.02
      109.0,      21.19,    24.71,    24.34,    15.82,    19.87
      110.0,      21.07,    24.60,    24.22,    15.74,    19.73
      111.0,      20.96,    24.50,    24.10,    15.66,    19.59
      112.0,      20.85,    24.39,    23.98,    15.58,    19.46
      113.0,      20.75,    24.29,    23.87,    15.50,    19.32
      114.0,      20.64,    24.18,    23.76,    15.42,    19.19
      115.0,      20.54,    24.08,    23.65,    15.35,    19.06
      116.0,      20.43,    23.99,    23.54,    15.27,    18.94
      117.0,      20.34,    23.89,    23.44,    15.20,    18.81
      118.0,      20.24,    23.80,    23.33,    15.13,    18.69
      119.0,      20.14,    23.71,    23.23,    15.06,    18.57
      120.0,      20.05,    23.62,    23.13,    15.00,    18.45
      121.0,      19.95,    23.53,    23.03,    14.93,    18.33
      122.0,      19.86,    23.44,    22.93,    14.86,    18.22
      123.0,      19.77,    23.36,    22.83,    14.80,    18.10
      124.0,      19.68,    23.27,    22.74,    14.74,    17.99
      125.0,      19.60,    23.19,    22.64,    14.68,    17.88
      126.0,      19.51,    23.11,    22.55,    14.62,    17.77
      127.0,      19.43,    23.03,    22.46,    14.56,    17.67
      128.0,      19.35,    22.95,    22.37,    14.50,    17.56
      129.0,      19.27,    22.88,    22.28,    14.44,    17.46
      130.0,      19.19,    22.80,    22.19,    14.39,    17.36
      131.0,      19.11,    22.73,    22.11,    14.33,    17.26
      132.0,      19.03,    22.66,    22.02,    14.28,    17.16
      133.0,      18.95,    22.58,    21.94,    14.23,    17.07
      134.0,      18.88,    22.51,    21.85,    14.17,    16.97
      135.0,      18.81,    22.44,    21.77,    14.12,    16.88
      136.0,      18.73,    22.38,    21.69,    14.07,    16.79
      137.0,      18.66,    22.31,    21.61,    14.03,    16.70
      138.0,      18.59,    22.24,    21.53,    13.98,    16.61
      139.0,      18.52,    22.18,    21.46,    13.93,    16.52
      140.0,      18.45,    22.11,    21.38,    13.88,    16.44
      141.0,      18.39,    22.05,    21.30,    13.84,    16.35
      142.0,      18.32,    21.99,    21.23,    13.79,    16.27
      143.0,      18.25,    21.93,    21.15,    13.75,    16.19
      144.0,      18.19,    21.87,    21.08,    13.70,    16.10
      145.0,      18.13,    21.81,    21.01,    13.66,    16.02
      146.0,      18.06,    21.75,    20.94,    13.62,    15.95
      147.0,      18.00,    21.69,    20.87,    13.58,    15.87
      148.0,      17.94,    21.63,    20.80,    13.54,    15.79
      149.0,      17.88,    21.58,    20.73,    13.50,    15.72
      150.0,      17.82,    21.52,    20.66,    13.46,    15.64
      151.0,      17.76,    21.46,    20.60,    13.42,    15.57
      152.0,      17.70,    21.41,    20.53,    13.38,    15.50
      153.0,      17.65,    21.35,    20.47,    13.34,    15.43
      154.0,      17.59,    21.30,    20.40,    13.30,    15.35
      155.0,      17.53,    21.25,    20.34,    13.27,    15.29
      156.0,      17.48,    21.20,    20.27,    13.23,    15.22
      157.0,      17.42,    21.14,    20.21,    13.20,    15.15
      158.0,      17.37,    21.09,    20.15,    13.16,    15.08
      159.0,      17.32,    21.04,    20.09,    13.13,    15.02
      160.0,      17.27,    20.99,    20.03,    13.09,    14.95
      161.0,      17.21,    20.94,    19.97,    13.06,    14.89
      162.0,      17.16,    20.89,    19.91,    13.02,    14.83
      163.0,      17.11,    20.84,    19.85,    12.99,    14.76
      164.0,      17.06,    20.80,    19.79,    12.96,    14.70
      165.0,      17.01,    20.75,    19.73,    12.93,    14.64
      166.0,      16.96,    20.70,    19.68,    12.89,    14.58
      167.0,      16.91,    20.65,    19.62,    12.86,    14.52
      168.0,      16.87,    20.61,    19.56,    12.83,    14.46
      169.0,      16.82,    20.56,    19.51,    12.80,    14.41
      170.0,      16.77,    20.52,    19.45,    12.77,    14.35
      171.0,      16.73,    20.47,    19.40,    12.74,    14.29
      172.0,      16.68,    20.43,    19.34,    12.71,    14.24
      173.0,      16.63,    20.38,    19.29,    12.68,    14.18
      174.0,      16.59,    20.34,    19.24,    12.65,    14.13
      175.0,      16.54,    20.29,    19.18,    12.62,    14.08
      176.0,      16.50,    20.25,    19.13,    12.60,    14.02
      177.0,      16.46,    20.21,    19.08,    12.57,    13.97
      178.0,      16.41,    20.16,    19.03,    12.54,    13.92
      179.0,      16.37,    20.12,    18.98,    12.51,    13.87
      180.0,      16.33,    20.08,    18.93,    12.48,    13.82
      181.0,      16.28,    20.04,    18.88,    12.46,    13.77
      182.0,      16.24,    19.99,    18.83,    12.43,    13.72
      183.0,      16.20,    19.95,    18.78,    12.40,    13.67
      184.0,      16.16,    19.91,    18.73,    12.38,    13.62
      185.0,      16.12,    19.87,    18.68,    12.35,    13.57
      186.0,      16.08,    19.83,    18.63,    12.33,    13.52
      187.0,      16.04,    19.79,    18.59,    12.30,    13.48
      188.0,      16.00,    19.75,    18.54,    12.28,    13.43
      189.0,      15.96,    19.71,    18.49,    12.25,    13.38
      190.0,      15.92,    19.67,    18.45,    12.23,    13.34
      191.0,      15.88,    19.63,    18.40,    12.20,    13.29
      192.0,      15.84,    19.59,    18.35,    12.18,    13.25
      193.0,      15.80,    19.55,    18.31,    12.15,    13.21
      194.0,      15.77,    19.51,    18.26,    12.13,    13.16
      195.0,      15.73,    19.47,    18.22,    12.10,    13.12
      196.0,      15.69,    19.43,    18.17,    12.08,    13.08
      197.0,      15.65,    19.40,    18.13,    12.06,    13.03
      198.0,      15.62,    19.36,    18.08,    12.03,    12.99
      199.0,      15.58,    19.32,    18.04,    12.01,    12.95
      200.0,      15.54,    19.28,    18.00,    11.99,    12.91
      201.0,      15.51,    19.24,    17.95,    11.97,    12.87
      202.0,      15.47,    19.21,    17.91,    11.94,    12.83
      203.0,      15.44,    19.17,    17.87,    11.92,    12.79
      204.0,      15.40,    19.13,    17.82,    11.90,    12.75
      205.0,      15.37,    19.10,    17.78,    11.88,    12.71
      206.0,      15.33,    19.06,    17.74,    11.85,    12.67
      207.0,      15.30,    19.02,    17.70,    11.83,    12.63
      208.0,      15.26,    18.99,    17.66,    11.81,    12.59
      209.0,      15.23,    18.95,    17.62,    11.79,    12.55
      210.0,      15.19,    18.91,    17.57,    11.77,    12.52
      211.0,      15.16,    18.88,    17.53,    11.75,    12.48
      212.0,      15.13,    18.84,    17.49,    11.72,    12.44
      213.0,      15.09,    18.81,    17.45,    11.70,    12.41
      214.0,      15.06,    18.77,    17.41,    11.68,    12.37
      215.0,      15.03,    18.73,    17.37,    11.66,    12.33
      216.0,      14.99,    18.70,    17.33,    11.64,    12.30
      217.0,      14.96,    18.66,    17.29,    11.62,    12.26
      218.0,      14.93,    18.63,    17.25,    11.60,    12.23
      219.0,      14.89,    18.59,    17.22,    11.58,    12.19
      220.0,      14.86,    18.56,    17.18,    11.56,    12.16
      221.0,      14.83,    18.52,    17.14,    11.54,    12.12
      222.0,      14.80,    18.49,    17.10,    11.52,    12.09
      223.0,      14.77,    18.45,    17.06,    11.50,    12.05
      224.0,      14.74,    18.42,    17.02,    11.48,    12.02
      225.0,      14.70,    18.39,    16.98,    11.46,    11.99
      226.0,      14.67,    18.35,    16.95,    11.44,    11.95
      227.0,      14.64,    18.32,    16.91,    11.42,    11.92
      228.0,      14.61,    18.28,    16.87,    11.40,    11.89
      229.0,      14.58,    18.25,    16.83,    11.38,    11.85
      230.0,      14.55,    18.22,    16.80,    11.36,    11.82
      231.0,      14.52,    18.18,    16.76,    11.34,    11.79
      232.0,      14.49,    18.15,    16.72,    11.32,    11.76
      233.0,      14.46,    18.12,    16.69,    11.30,    11.73
      234.0,      14.43,    18.08,    16.65,    11.28,    11.69
      235.0,      14.40,    18.05,    16.61,    11.27,    11.66
      236.0,      14.37,    18.02,    16.58,    11.25,    11.63
      237.0,      14.34,    17.98,    16.54,    11.23,    11.60
      238.0,      14.31,    17.95,    16.51,    11.21,    11.57
      239.0,      14.28,    17.92,    16.47,    11.19,    11.54
      240.0,      14.25,    17.88,    16.44,    11.17,    11.51
      241.0,      14.22,    17.85,    16.40,    11.15,    11.48
      242.0,      14.19,    17.82,    16.36,    11.13,    11.45
      243.0,      14.16,    17.79,    16.33,    11.12,    11.42
      244.0,      14.13,    17.75,    16.29,    11.10,    11.39
      245.0,      14.11,    17.72,    16.26,    11.08,    11.36
      246.0,      14.08,    17.69,    16.22,    11.06,    11.33
      247.0,      14.05,    17.66,    16.19,    11.04,    11.30
      248.0,      14.02,    17.62,    16.16,    11.02,    11.27
      249.0,      13.99,    17.59,    16.12,    11.01,    11.24
      250.0,      13.96,    17.56,    16.09,    10.99,    11.22
      251.0,      13.93,    17.53,    16.05,    10.97,    11.19
      252.0,      13.91,    17.50,    16.02,    10.95,    11.16
      253.0,      13.88,    17.46,    15.98,    10.94,    11.13
      254.0,      13.85,    17.43,    15.95,    10.92,    11.10
      255.0,      13.82,    17.40,    15.92,    10.90,    11.08
      256.0,      13.80,    17.37,    15.88,    10.88,    11.05
      257.0,      13.77,    17.34,    15.85,    10.86,    11.02
      258.0,      13.74,    17.31,    15.82,    10.85,    10.99
      259.0,      13.71,    17.28,    15.78,    10.83,    10.97
      260.0,      13.69,    17.24,    15.75,    10.81,    10.94
      261.0,      13.66,    17.21,    15.72,    10.80,    10.91
      262.0,      13.63,    17.18,    15.69,    10.78,    10.88
      263.0,      13.61,    17.15,    15.65,    10.76,    10.86
      264.0,      13.58,    17.12,    15.62,    10.74,    10.83
      265.0,      13.55,    17.09,    15.59,    10.73,    10.80
      266.0,      13.53,    17.06,    15.55,    10.71,    10.78
      267.0,      13.50,    17.03,    15.52,    10.69,    10.75
      268.0,      13.47,    17.00,    15.49,    10.67,    10.73
      269.0,      13.45,    16.97,    15.46,    10.66,    10.70
      270.0,      13.42,    16.94,    15.43,    10.64,    10.67
      271.0,      13.39,    16.90,    15.39,    10.62,    10.65
      272.0,      13.37,    16.87,    15.36,    10.61,    10.62
      273.0,      13.34,    16.84,    15.33,    10.59,    10.60
      274.0,      13.31,    16.81,    15.30,    10.57,    10.57
      275.0,      13.29,    16.78,    15.27,    10.56,    10.55
      276.0,      13.26,    16.75,    15.24,    10.54,    10.52
      277.0,      13.24,    16.72,    15.20,    10.52,    10.50
      278.0,      13.21,    16.69,    15.17,    10.51,    10.47
      279.0,      13.19,    16.66,    15.14,    10.49,    10.45
      280.0,      13.16,    16.63,    15.11,    10.47,    10.42
      281.0,      13.13,    16.60,    15.08,    10.46,    10.40
      282.0,      13.11,    16.57,    15.05,    10.44,    10.37
      283.0,      13.08,    16.54,    15.02,    10.42,    10.35
      284.0,      13.06,    16.51,    14.99,    10.41,    10.32
      285.0,      13.03,    16.48,    14.96,    10.39,    10.30
      286.0,      13.01,    16.45,    14.93,    10.38,    10.28
      287.0,      12.98,    16.42,    14.90,    10.36,    10.25
      288.0,      12.96,    16.40,    14.87,    10.34,    10.23
      289.0,      12.93,    16.37,    14.84,    10.33,    10.20
      290.0,      12.91,    16.34,    14.80,    10.31,    10.18
      291.0,      12.88,    16.31,    14.77,    10.29,    10.16
      292.0,      12.86,    16.28,    14.74,    10.28,    10.13
      293.0,      12.83,    16.25,    14.71,    10.26,    10.11
      294.0,      12.81,    16.22,    14.68,    10.25,    10.09
      295.0,      12.78,    16.19,    14.65,    10.23,    10.06
      296.0,      12.76,    16.16,    14.63,    10.21,    10.04
      297.0,      12.74,    16.13,    14.60,    10.20,    10.02
      298.0,      12.71,    16.10,    14.57,    10.18,     9.99
      299.0,      12.69,    16.08,    14.54,    10.17,     9.97
      300.0,      12.66,    16.05,    14.51,    10.15,     9.95
      301.0,      12.64,    16.02,    14.48,    10.13,     9.92
      302.0,      12.61,    15.99,    14.45,    10.12,     9.90
      303.0,      12.59,    15.96,    14.42,    10.10,     9.88
      304.0,      12.57,    15.93,    14.39,    10.09,     9.86
      305.0,      12.54,    15.90,    14.36,    10.07,     9.83
      306.0,      12.52,    15.87,    14.33,    10.06,     9.81
      307.0,      12.49,    15.85,    14.30,    10.04,     9.79
      308.0,      12.47,    15.82,    14.27,    10.02,     9.77
      309.0,      12.45,    15.79,    14.25,    10.01,     9.74
      310.0,      12.42,    15.76,    14.22,     9.99,     9.72
