Radius (km), Mean (m/s), NE (m/s), SE (m/s), SW (m/s), NW (m/s)
        0.0,       0.00,     0.00,     0.00,     0.00,     0.00
        1.0,       1.82,     1.40,     1.81,     2.25,     1.81
        2.0,       3.54,     3.01,     3.56,     4.05,     3.56
        3.0,       5.25,     4.72,     5.29,     5.70,     5.29
        4.0,       6.95,     6.50,     7.01,     7.27,     7.01
        5.0,       8.64,     8.32,     8.72,     8.78,     8.72
        6.0,      10.32,    10.19,    10.42,    10.25,    10.42
        7.0,      12.00,    12.09,    12.11,    11.68,    12.11
        8.0,      13.67,    14.02,    13.80,    13.07,    13.80
        9.0,      15.35,    15.97,    15.49,    14.44,    15.49
       10.0,      17.02,    17.95,    17.17,    15.79,    17.17
       11.0,      18.69,    19.96,    18.85,    17.12,    18.85
       12.0,      20.39,    22.02,    20.55,    18.43,    20.56
       13.0,      22.17,    24.22,    22.34,    19.78,    22.35
       14.0,      24.11,    26.63,    24.27,    21.21,    24.32
       15.0,      26.26,    29.34,    26.42,    22.79,    26.52
       16.0,      28.67,    32.37,    28.79,    24.55,    28.98
       17.0,      31.30,    35.69,    31.37,    26.49,    31.67
       18.0,      34.09,    39.20,    34.08,    28.57,    34.50
       19.0,      36.91,    42.76,    36.81,    30.70,    37.36
       20.0,      39.61,    46.19,    39.42,    32.76,    40.09
       21.0,      42.06,    49.29,    41.79,    34.63,    42.53
       22.0,      44.12,    51.92,    43.78,    36.20,    44.56
       23.0,      45.69,    53.96,    45.33,    37.38,    46.08
       24.0,      46.73,    55.37,    46.38,    38.12,    47.06
       25.0,      47.26,    56.14,    46.96,    38.44,    47.50
       26.0,      47.33,    56.36,    47.11,    38.36,    47.48
       27.0,      47.03,    56.14,    46.92,    37.96,    47.10
       28.0,      46.47,    55.60,    46.51,    37.33,    46.46
       29.0,      45.77,    54.89,    45.95,    36.57,    45.67
       30.0,      45.00,    54.10,    45.34,    35.75,    44.83
       31.0,      44.24,    53.30,    44.72,    34.93,    44.00
       32.0,      43.51,    52.54,    44.13,    34.16,    43.20
       33.0,      42.81,    51.81,    43.57,    33.43,    42.45
       34.0,      42.14,    51.11,    43.02,    32.73,    41.71
       35.0,      41.49,    50.42,    42.48,    32.07,    41.01
       36.0,      40.86,    49.74,    41.96,    31.43,    40.32
       37.0,      40.25,    49.08,    41.44,    30.82,    39.65
       38.0,      39.65,    48.43,    40.93,    30.23,    39.00
       39.0,      39.06,    47.79,    40.44,    29.66,    38.37
       40.0,      38.50,    47.17,    39.95,    29.11,    37.75
       41.0,      37.94,    46.56,    39.48,    28.59,    37.15
       42.0,      37.41,    45.96,    39.01,    28.08,    36.57
       43.0,      36.88,    45.38,    38.56,    27.59,    36.01
       44.0,      36.37,    44.80,    38.11,    27.12,    35.46
       45.0,      35.88,    44.24,    37.67,    26.67,    34.93
       46.0,      35.39,    43.69,    37.24,    26.24,    34.41
       47.0,      34.92,    43.15,    36.82,    25.82,    33.91
       48.0,      34.46,    42.62,    36.40,    25.41,    33.42
       49.0,      34.02,    42.10,    36.00,    25.03,    32.95
       50.0,      33.58,    41.59,    35.60,    24.65,    32.48
       51.0,      33.16,    41.10,    35.21,    24.29,    32.03
       52.0,      32.75,    40.61,    34.83,    23.95,    31.60
       53.0,      32.34,    40.13,    34.46,    23.61,    31.17
       54.0,      31.95,    39.66,    34.09,    23.29,    30.76
       55.0,      31.57,    39.20,    33.73,    22.98,    30.36
       56.0,      31.20,    38.75,    33.38,    22.68,    29.97
       57.0,      30.83,    38.31,    33.04,    22.39,    29.59
       58.0,      30.48,    37.88,    32.70,    22.12,    29.22
       59.0,      30.13,    37.46,    32.37,    21.85,    28.86
       60.0,      29.80,    37.04,    32.04,    21.59,    28.52
       61.0,      29.47,    36.64,    31.72,    21.34,    28.18
       62.0,      29.15,    36.24,    31.41,    21.10,    27.85
       63.0,      28.84,    35.85,    31.10,    20.87,    27.53
       64.0,      28.53,    35.47,    30.80,    20.65,    27.22
       65.0,      28.24,    35.09,    30.51,    20.44,    26.91
       66.0,      27.95,    34.72,    30.22,    20.23,    26.62
       67.0,      27.66,    34.36,    29.93,    20.03,    26.33
       68.0,      27.39,    34.01,    29.66,    19.84,    26.05
       69.0,      27.12,    33.66,    29.38,    19.65,    25.78
       70.0,      26.86,    33.33,    29.12,    19.47,    25.52
       71.0,      26.60,    32.99,    28.86,    19.30,    25.26
       72.0,      26.35,    32.67,    28.60,    19.13,    25.01
       73.0,      26.11,    32.35,    28.35,    18.97,    24.77
       74.0,      25.87,    32.03,    28.10,    18.81,    24.53
       75.0,      25.64,    31.73,    27.86,    18.66,    24.30
       76.0,      25.41,    31.43,    27.62,    18.52,    24.08
       77.0,      25.19,    31.13,    27.39,    18.38,    23.86
       78.0,      24.97,    30.84,    27.16,    18.24,    23.65
       79.0,      24.76,    30.56,    26.93,    18.11,    23.44
       80.0,      24.55,    30.28,    26.71,    17.98,    23.24
       81.0,      24.35,    30.01,    26.50,    17.86,    23.04
       82.0,      24.16,    29.74,    26.29,    17.74,    22.85
       83.0,      23.96,    29.48,    26.08,    17.62,    22.67
       84.0,      23.78,    29.22,    25.88,    17.51,    22.49
       85.0,      23.59,    28.97,    25.68,    17.40,    22.31
       86.0,      23.41,    28.73,    25.48,    17.30,    22.14
       87.0,      23.24,    28.48,    25.29,    17.20,    21.98
       88.0,      23.06,    28.25,    25.10,    17.10,    21.81
       89.0,      22.90,    28.01,    24.91,    17.01,    21.66
       90.0,      22.73,    27.78,    24.73,    16.91,    21.50
       91.0,      22.57,    27.56,    24.56,    16.82,    21.35
       92.0,      22.42,    27.34,    24.38,    16.74,    21.21
       93.0,      22.26,    27.13,    24.21,    16.65,    21.06
       94.0,      22.11,    26.92,    24.04,    16.57,    20.93
       95.0,      21.97,    26.71,    23.88,    16.49,    20.79
       96.0,      21.82,    26.50,    23.71,    16.42,    20.66
       97.0,      21.68,    26.31,    23.55,    16.34,    20.53
       98.0,      21.55,    26.11,    23.40,    16.27,    20.41
       99.0,      21.41,    25.92,    23.25,    16.20,    20.28
      100.0,      21.28,    25.73,    23.10,    16.13,    20.17
      101.0,      21.15,    25.55,    22.95,    16.06,    20.05
      102.0,      21.03,    25.37,    22.80,    16.00,    19.94
      103.0,      20.90,    25.19,    22.66,    15.94,    19.83
      104.0,      20.78,    25.01,    22.52,    15.87,    19.72
      105.0,      20.66,    24.84,    22.38,    15.82,    19.61
      106.0,      20.55,    24.67,    22.25,    15.76,    19.51
      107.0,      20.44,    24.51,    22.12,    15.70,    19.41
      108.0,      20.32,    24.35,    21.99,    15.65,    19.32
      109.0,      20.22,    24.19,    21.86,    15.59,    19.22
      110.0,      20.11,    24.03,    21.74,    15.54,    19.13
      111.0,      20.01,    23.88,    21.61,    15.49,    19.04
      112.0,      19.90,    23.73,    21.49,    15.44,    18.95
      113.0,      19.80,    23.59,    21.37,    15.39,    18.86
      114.0,      19.71,    23.44,    21.26,    15.34,    18.78
      115.0,      19.61,    23.30,    21.14,    15.30,    18.70
      116.0,      19.52,    23.16,    21.03,    15.25,    18.62
      117.0,      19.42,    23.02,    20.92,    15.21,    18.54
      118.0,      19.33,    22.89,    20.81,    15.16,    18.46
      119.0,      19.24,    22.76,    20.71,    15.12,    18.39
      120.0,      19.16,    22.63,    20.60,    15.08,    18.31
      121.0,      19.07,    22.50,    20.50,    15.04,    18.24
      122.0,      18.99,    22.38,    20.40,    15.00,    18.17
      123.0,      18.91,    22.26,    20.30,    14.96,    18.11
      124.0,      18.82,    22.14,    20.20,    14.92,    18.04
      125.0,      18.75,    22.02,    20.11,    14.88,    17.97
      126.0,      18.67,    21.90,    20.01,    14.85,    17.91
      127.0,      18.59,    21.79,    19.92,    14.81,    17.85
      128.0,      18.52,    21.68,    19.83,    14.77,    17.79
      129.0,      18.44,    21.57,    19.74,    14.74,    17.73
      130.0,      18.37,    21.46,    19.65,    14.70,    17.67
      131.0,      18.30,    21.36,    19.57,    14.67,    17.61
      132.0,      18.23,    21.25,    19.48,    14.64,    17.56
      133.0,      18.16,    21.15,    19.40,    14.60,    17.50
      134.0,      18.10,    21.05,    19.32,    14.57,    17.45
      135.0,      18.03,    20.95,    19.24,    14.54,    17.39
      136.0,      17.97,    20.85,    19.16,    14.51,    17.34
      137.0,      17.90,    20.76,    19.08,    14.48,    17.29
      138.0,      17.84,    20.67,    19.00,    14.45,    17.24
      139.0,      17.78,    20.57,    18.93,    14.42,    17.19
      140.0,      17.72,    20.48,    18.86,    14.39,    17.15
      141.0,      17.66,    20.39,    18.78,    14.36,    17.10
      142.0,      17.60,    20.31,    18.71,    14.33,    17.05
      143.0,      17.54,    20.22,    18.64,    14.30,    17.01
      144.0,      17.49,    20.14,    18.57,    14.28,    16.97
      145.0,      17.43,    20.05,    18.50,    14.25,    16.92
      146.0,      17.38,    19.97,    18.44,    14.22,    16.88
      147.0,      17.32,    19.89,    18.37,    14.20,    16.84
      148.0,      17.27,    19.81,    18.30,    14.17,    16.80
      149.0,      17.22,    19.74,    18.24,    14.14,    16.76
      150.0,      17.17,    19.66,    18.18,    14.12,    16.72
      151.0,      17.12,    19.59,    18.12,    14.09,    16.68
      152.0,      17.07,    19.51,    18.05,    14.07,    16.64
      153.0,      17.02,    19.44,    17.99,    14.04,    16.60
      154.0,      16.97,    19.37,    17.94,    14.02,    16.57
      155.0,      16.92,    19.30,    17.88,    13.99,    16.53
      156.0,      16.88,    19.23,    17.82,    13.97,    16.50
      157.0,      16.83,    19.16,    17.76,    13.94,    16.46
      158.0,      16.79,    19.09,    17.71,    13.92,    16.43
      159.0,      16.74,    19.03,    17.65,    13.90,    16.39
      160.0,      16.70,    18.96,    17.60,    13.87,    16.36
      161.0,      16.66,    18.90,    17.55,    13.85,    16.33
      162.0,      16.61,    18.84,    17.49,    13.83,    16.30
      163.0,      16.57,    18.78,    17.44,    13.80,    16.26
      164.0,      16.53,    18.72,    17.39,    13.78,    16.23
      165.0,      16.49,    18.66,    17.34,    13.76,    16.20
      166.0,      16.45,    18.60,    17.29,    13.74,    16.17
      167.0,      16.41,    18.54,    17.24,    13.71,    16.14
      168.0,      16.37,    18.48,    17.20,    13.69,    16.11
      169.0,      16.33,    18.43,    17.15,    13.67,    16.08
      170.0,      16.29,    18.37,    17.10,    13.65,    16.05
      171.0,      16.26,    18.32,    17.06,    13.63,    16.03
      172.0,      16.22,    18.26,    17.01,    13.60,    16.00
      173.0,      16.18,    18.21,    16.97,    13.58,    15.97
      174.0,      16.15,    18.16,    16.92,    13.56,    15.94
      175.0,      16.11,    18.10,    16.88,    13.54,    15.92
      176.0,      16.07,    18.05,    16.84,    13.52,    15.89
      177.0,      16.04,    18.00,    16.79,    13.50,    15.86
      178.0,      16.01,    17.95,    16.75,    13.48,    15.84
      179.0,      15.97,    17.91,    16.71,    13.46,    15.81
      180.0,      15.94,    17.86,    16.67,    13.44,    15.79
      181.0,      15.91,    17.81,    16.63,    13.42,    15.76
      182.0,      15.87,    17.76,    16.59,    13.40,    15.74
      183.0,      15.84,    17.72,    16.55,    13.38,    15.71
      184.0,      15.81,    17.67,    16.51,    13.36,    15.69
      185.0,      15.78,    17.63,    16.47,    13.34,    15.67
      186.0,      15.75,    17.59,    16.44,    13.32,    15.64
      187.0,      15.71,    17.54,    16.40,    13.30,    15.62
      188.0,      15.68,    17.50,    16.36,    13.28,    15.60
      189.0,      15.65,    17.46,    16.33,    13.26,    15.57
      190.0,      15.62,    17.41,    16.29,    13.24,    15.55
      191.0,      15.59,    17.37,    16.26,    13.22,    15.53
      192.0,      15.56,    17.33,    16.22,    13.20,    15.51
      193.0,      15.54,    17.29,    16.19,    13.18,    15.49
      194.0,      15.51,    17.25,    16.15,    13.16,    15.46
      195.0,      15.48,    17.21,    16.12,    13.14,    15.44
      196.0,      15.45,    17.18,    16.09,    13.12,    15.42
      197.0,      15.42,    17.14,    16.05,    13.10,    15.40
      198.0,      15.40,    17.10,    16.02,    13.08,    15.38
      199.0,      15.37,    17.06,    15.99,    13.06,    15.36
      200.0,      15.34,    17.03,    15.96,    13.04,    15.34
      201.0,      15.31,    16.99,    15.93,    13.02,    15.32
      202.0,      15.29,    16.95,    15.89,    13.01,    15.30
      203.0,      15.26,    16.92,    15.86,    12.99,    15.28
      204.0,      15.24,    16.88,    15.83,    12.97,    15.26
      205.0,      15.21,    16.85,    15.80,    12.95,    15.24
      206.0,      15.18,    16.82,    15.77,    12.93,    15.22
      207.0,      15.16,    16.78,    15.74,    12.91,    15.20
      208.0,      15.13,    16.75,    15.72,    12.89,    15.18
      209.0,      15.11,    16.71,    15.69,    12.87,    15.16
      210.0,      15.08,    16.68,    15.66,    12.86,    15.14
      211.0,      15.06,    16.65,    15.63,    12.84,    15.12
      212.0,      15.04,    16.62,    15.60,    12.82,    15.10
      213.0,      15.01,    16.59,    15.57,    12.80,    15.08
      214.0,      14.99,    16.56,    15.55,    12.78,    15.07
      215.0,      14.96,    16.52,    15.52,    12.76,    15.05
      216.0,      14.94,    16.49,    15.49,    12.75,    15.03
      217.0,      14.92,    16.46,    15.47,    12.73,    15.01
      218.0,      14.89,    16.43,    15.44,    12.71,    14.99
      219.0,      14.87,    16.40,    15.41,    12.69,    14.98
      220.0,      14.85,    16.38,    15.39,    12.67,    14.96
      221.0,      14.83,    16.35,    15.36,    12.66,    14.94
      222.0,      14.80,    16.32,    15.34,    12.64,    14.92
      223.0,      14.78,    16.29,    15.31,    12.62,    14.90
      224.0,      14.76,    16.26,    15.29,    12.60,    14.89
      225.0,      14.74,    16.23,    15.26,    12.58,    14.87
      226.0,      14.72,    16.21,    15.24,    12.57,    14.85
      227.0,      14.69,    16.18,    15.21,    12.55,    14.84
      228.0,      14.67,    16.15,    15.19,    12.53,    14.82
      229.0,      14.65,    16.12,    15.17,    12.51,    14.80
      230.0,      14.63,    16.10,    15.14,    12.50,    14.78
      231.0,      14.61,    16.07,    15.12,    12.48,    14.77
      232.0,      14.59,    16.05,    15.10,    12.46,    14.75
      233.0,      14.57,    16.02,    15.07,    12.44,    14.73
      234.0,      14.55,    15.99,    15.05,    12.43,    14.72
      235.0,      14.53,    15.97,    15.03,    12.41,    14.70
      236.0,      14.51,    15.94,    15.01,    12.39,    14.68
      237.0,      14.49,    15.92,    14.98,    12.37,    14.67
      238.0,      14.47,    15.89,    14.96,    12.36,    14.65
      239.0,      14.45,    15.87,    14.94,    12.34,    14.64
      240.0,      14.43,    15.85,    14.92,    12.32,    14.62
      241.0,      14.41,    15.82,    14.90,    12.30,    14.60
      242.0,      14.39,    15.80,    14.88,    12.29,    14.59
      243.0,      14.37,    15.77,    14.85,    12.27,    14.57
      244.0,      14.35,    15.75,    14.83,    12.25,    14.55
      245.0,      14.33,    15.73,    14.81,    12.24,    14.54
      246.0,      14.31,    15.70,    14.79,    12.22,    14.52
      247.0,      14.29,    15.68,    14.77,    12.20,    14.51
      248.0,      14.27,    15.66,    14.75,    12.18,    14.49
      249.0,      14.25,    15.63,    14.73,    12.17,    14.48
      250.0,      14.23,    15.61,    14.71,    12.15,    14.46
      251.0,      14.21,    15.59,    14.69,    12.13,    14.44
      252.0,      14.20,    15.57,    14.67,    12.12,    14.43
      253.0,      14.18,    15.55,    14.65,    12.10,    14.41
      254.0,      14.16,    15.52,    14.63,    12.08,    14.40
      255.0,      14.14,    15.50,    14.61,    12.06,    14.38
      256.0,      14.12,    15.48,    14.59,    12.05,    14.37
      257.0,      14.10,    15.46,    14.57,    12.03,    14.35
      258.0,      14.09,    15.44,    14.55,    12.01,    14.34
      259.0,      14.07,    15.42,    14.53,    12.00,    14.32
      260.0,      14.05,    15.40,    14.51,    11.98,    14.31
      261.0,      14.03,    15.38,    14.49,    11.96,    14.29
      262.0,      14.01,    15.36,    14.48,    11.95,    14.28
      263.0,      14.00,    15.33,    14.46,    11.93,    14.26
      264.0,      13.98,    15.31,    14.44,    11.91,    14.25
      265.0,      13.96,    15.29,    14.42,    11.90,    14.23
      266.0,      13.94,    15.27,    14.40,    11.88,    14.22
      267.0,      13.93,    15.25,    14.38,    11.86,    14.20
      268.0,      13.91,    15.23,    14.37,    11.85,    14.19
      269.0,      13.89,    15.21,    14.35,    11.83,    14.17
      270.0,      13.87,    15.19,    14.33,    11.81,    14.16
      271.0,      13.86,    15.17,    14.31,    11.80,    14.14
      272.0,      13.84,    15.16,    14.29,    11.78,    14.13
      273.0,      13.82,    15.14,    14.28,    11.77,    14.11
      274.0,      13.81,    15.12,    14.26,    11.75,    14.10
      275.0,      13.79,    15.10,    14.24,    11.73,    14.08
      276.0,      13.77,    15.08,    14.22,    11.72,    14.07
      277.0,      13.75,    15.06,    14.21,    11.70,    14.05
      278.0,      13.74,    15.04,    14.19,    11.68,    14.04
      279.0,      13.72,    15.02,    14.17,    11.67,    14.02
      280.0,      13.70,    15.00,    14.15,    11.65,    14.01
      281.0,      13.69,    14.98,    14.14,    11.63,    14.00
      282.0,      13.67,    14.97,    14.12,    11.62,    13.98
      283.0,      13.65,    14.95,    14.10,    11.60,    13.97
      284.0,      13.64,    14.93,    14.09,    11.59,    13.95
      285.0,      13.62,    14.91,    14.07,    11.57,    13.94
      286.0,      13.61,    14.89,    14.05,    11.55,    13.92
      287.0,      13.59,    14.88,    14.04,    11.54,    13.91
      288.0,      13.57,    14.86,    14.02,    11.52,    13.89
      289.0,      13.56,    14.84,    14.00,    11.51,    13.88
      290.0,      13.54,    14.82,    13.99,    11.49,    13.87
      291.0,      13.53,    14.80,    13.97,    11.47,    13.85
      292.0,      13.51,    14.79,    13.95,    11.46,    13.84
      293.0,      13.49,    14.77,    13.94,    11.44,    13.82
      294.0,      13.48,    14.75,    13.92,    11.43,    13.81
      295.0,      13.46,    14.73,    13.91,    11.41,    13.80
      296.0,      13.45,    14.72,    13.89,    11.39,    13.78
      297.0,      13.43,    14.70,    13.87,    11.38,    13.77
      298.0,      13.41,    14.68,    13.86,    11.36,    13.75
      299.0,      13.40,    14.67,    13.84,    11.35,    13.74
      300.0,      13.38,    14.65,    13.83,    11.33,    13.73
      301.0,      13.37,    14.63,    13.81,    11.32,    13.71
      302.0,      13.35,    14.61,    13.79,    11.30,    13.70
      303.0,      13.34,    14.60,    13.78,    11.28,    13.68
      304.0,      13.32,    14.58,    13.76,    11.27,    13.67
      305.0,      13.30,    14.56,    13.75,    11.25,    13.66
      306.0,      13.29,    14.55,    13.73,    11.24,    13.64
      307.0,      13.27,    14.53,    13.72,    11.22,    13.63
      308.0,      13.26,    14.51,    13.70,    11.21,    13.61
      309.0,      13.24,    14.50,    13.69,    11.19,    13.60
      310.0,      13.23,    14.48,    13.67,    11.17,    13.59
