Radius (km), Mean (m/s), NE (m/s), SE (m/s), SW (m/s), NW (m/s)
        0.0,       0.00,     0.00,     0.00,     0.00,     0.00
        1.0,       2.08,     2.03,     2.04,     2.23,     2.04
        2.0,       3.77,     3.72,     3.73,     3.91,     3.73
        3.0,       5.34,     5.30,     5.31,     5.43,     5.31
        4.0,       6.83,     6.82,     6.83,     6.86,     6.83
        5.0,       8.27,     8.29,     8.29,     8.23,     8.29
        6.0,       9.67,     9.72,     9.71,     9.54,     9.71
        7.0,      11.04,    11.13,    11.11,    10.81,    11.11
        8.0,      12.38,    12.51,    12.48,    12.05,    12.48
        9.0,      13.69,    13.86,    13.82,    13.26,    13.82
       10.0,      14.99,    15.20,    15.15,    14.44,    15.15
       11.0,      16.26,    16.53,    16.46,    15.61,    16.46
       12.0,      17.52,    17.83,    17.76,    16.75,    17.76
       13.0,      18.77,    19.13,    19.04,    17.87,    19.05
       14.0,      20.03,    20.43,    20.33,    18.99,    20.36
       15.0,      21.32,    21.77,    21.66,    20.10,    21.74
       16.0,      22.69,    23.19,    23.08,    21.25,    23.24
       17.0,      24.18,    24.75,    24.63,    22.47,    24.88
       18.0,      25.80,    26.45,    26.32,    23.79,    26.66
       19.0,      27.54,    28.28,    28.13,    25.21,    28.56
       20.0,      29.36,    30.19,    30.02,    26.72,    30.51
       21.0,      31.17,    32.10,    31.91,    28.27,    32.42
       22.0,      32.90,    33.93,    33.70,    29.78,    34.19
       23.0,      34.46,    35.57,    35.32,    31.20,    35.75
       24.0,      35.77,    36.95,    36.66,    32.43,    37.02
       25.0,      36.77,    38.01,    37.70,    33.42,    37.96
       26.0,      37.46,    38.72,    38.40,    34.13,    38.57
       27.0,      37.83,    39.11,    38.77,    34.56,    38.86
       28.0,      37.92,    39.20,    38.86,    34.73,    38.89
       29.0,      37.79,    39.06,    38.72,    34.67,    38.73
       30.0,      37.52,    38.76,    38.43,    34.43,    38.43
       31.0,      37.15,    38.38,    38.06,    34.09,    38.07
       32.0,      36.75,    37.97,    37.65,    33.70,    37.69
       33.0,      36.36,    37.56,    37.25,    33.30,    37.32
       34.0,      35.98,    37.18,    36.86,    32.91,    36.96
       35.0,      35.62,    36.82,    36.50,    32.54,    36.61
       36.0,      35.27,    36.48,    36.15,    32.19,    36.27
       37.0,      34.94,    36.15,    35.80,    31.85,    35.94
       38.0,      34.61,    35.83,    35.47,    31.52,    35.61
       39.0,      34.28,    35.52,    35.14,    31.20,    35.29
       40.0,      33.97,    35.22,    34.81,    30.88,    34.97
       41.0,      33.66,    34.92,    34.49,    30.56,    34.66
       42.0,      33.36,    34.64,    34.18,    30.25,    34.36
       43.0,      33.06,    34.37,    33.88,    29.95,    34.06
       44.0,      32.77,    34.10,    33.58,    29.65,    33.76
       45.0,      32.49,    33.85,    33.29,    29.36,    33.47
       46.0,      32.21,    33.60,    33.00,    29.07,    33.18
       47.0,      31.94,    33.35,    32.72,    28.79,    32.90
       48.0,      31.68,    33.12,    32.45,    28.51,    32.62
       49.0,      31.41,    32.89,    32.18,    28.24,    32.35
       50.0,      31.16,    32.67,    31.92,    27.97,    32.08
       51.0,      30.91,    32.45,    31.66,    27.71,    31.82
       52.0,      30.66,    32.24,    31.41,    27.45,    31.56
       53.0,      30.42,    32.04,    31.16,    27.19,    31.30
       54.0,      30.19,    31.84,    30.91,    26.94,    31.05
       55.0,      29.96,    31.64,    30.68,    26.69,    30.81
       56.0,      29.73,    31.46,    30.44,    26.45,    30.56
       57.0,      29.51,    31.27,    30.21,    26.21,    30.32
       58.0,      29.29,    31.09,    29.99,    25.98,    30.09
       59.0,      29.07,    30.92,    29.77,    25.75,    29.86
       60.0,      28.86,    30.75,    29.55,    25.52,    29.63
       61.0,      28.66,    30.58,    29.34,    25.30,    29.41
       62.0,      28.46,    30.42,    29.13,    25.08,    29.19
       63.0,      28.26,    30.27,    28.93,    24.87,    28.97
       64.0,      28.06,    30.11,    28.73,    24.66,    28.76
       65.0,      27.87,    29.96,    28.53,    24.45,    28.55
       66.0,      27.68,    29.81,    28.34,    24.25,    28.34
       67.0,      27.50,    29.67,    28.15,    24.04,    28.14
       68.0,      27.32,    29.53,    27.97,    23.85,    27.94
       69.0,      27.14,    29.39,    27.78,    23.65,    27.74
       70.0,      26.97,    29.26,    27.61,    23.46,    27.55
       71.0,      26.80,    29.13,    27.43,    23.27,    27.36
       72.0,      26.63,    29.00,    27.26,    23.09,    27.17
       73.0,      26.46,    28.88,    27.09,    22.91,    26.98
       74.0,      26.30,    28.75,    26.92,    22.73,    26.80
       75.0,      26.14,    28.63,    26.76,    22.55,    26.62
       76.0,      25.98,    28.51,    26.60,    22.38,    26.45
       77.0,      25.83,    28.40,    26.45,    22.21,    26.27
       78.0,      25.68,    28.28,    26.29,    22.04,    26.10
       79.0,      25.53,    28.17,    26.14,    21.87,    25.94
       80.0,      25.38,    28.06,    25.99,    21.71,    25.77
       81.0,      25.24,    27.96,    25.85,    21.55,    25.61
       82.0,      25.10,    27.85,    25.70,    21.39,    25.45
       83.0,      24.96,    27.75,    25.56,    21.24,    25.29
       84.0,      24.82,    27.64,    25.43,    21.09,    25.14
       85.0,      24.69,    27.54,    25.29,    20.94,    24.98
       86.0,      24.56,    27.45,    25.16,    20.79,    24.83
       87.0,      24.43,    27.35,    25.03,    20.64,    24.69
       88.0,      24.30,    27.25,    24.90,    20.50,    24.54
       89.0,      24.17,    27.16,    24.77,    20.36,    24.40
       90.0,      24.05,    27.07,    24.65,    20.22,    24.26
       91.0,      23.92,    26.97,    24.52,    20.08,    24.12
       92.0,      23.80,    26.88,    24.40,    19.95,    23.98
       93.0,      23.68,    26.80,    24.28,    19.81,    23.84
       94.0,      23.57,    26.71,    24.17,    19.68,    23.71
       95.0,      23.45,    26.62,    24.05,    19.56,    23.58
       96.0,      23.34,    26.54,    23.94,    19.43,    23.45
       97.0,      23.23,    26.45,    23.83,    19.30,    23.33
       98.0,      23.12,    26.37,    23.72,    19.18,    23.20
       99.0,      23.01,    26.29,    23.61,    19.06,    23.08
      100.0,      22.90,    26.21,    23.51,    18.94,    22.96
      101.0,      22.80,    26.13,    23.41,    18.82,    22.84
      102.0,      22.69,    26.05,    23.30,    18.71,    22.72
      103.0,      22.59,    25.97,    23.20,    18.59,    22.61
      104.0,      22.49,    25.89,    23.10,    18.48,    22.49
      105.0,      22.39,    25.82,    23.01,    18.37,    22.38
      106.0,      22.30,    25.74,    22.91,    18.26,    22.27
      107.0,      22.20,    25.67,    22.82,    18.15,    22.16
      108.0,      22.10,    25.59,    22.72,    18.05,    22.05
      109.0,      22.01,    25.52,    22.63,    17.94,    21.95
      110.0,      21.92,    25.45,    22.54,    17.84,    21.84
      111.0,      21.83,    25.37,    22.45,    17.74,    21.74
      112.0,      21.74,    25.30,    22.36,    17.64,    21.64
      113.0,      21.65,    25.23,    22.28,    17.54,    21.54
      114.0,      21.56,    25.16,    22.19,    17.44,    21.44
      115.0,      21.47,    25.09,    22.11,    17.34,    21.35
      116.0,      21.39,    25.02,    22.03,    17.25,    21.25
      117.0,      21.30,    24.96,    21.95,    17.16,    21.16
      118.0,      21.22,    24.89,    21.86,    17.06,    21.06
      119.0,      21.14,    24.82,    21.79,    16.97,    20.97
      120.0,      21.06,    24.75,    21.71,    16.88,    20.88
      121.0,      20.98,    24.69,    21.63,    16.79,    20.79
      122.0,      20.90,    24.62,    21.55,    16.71,    20.71
      123.0,      20.82,    24.56,    21.48,    16.62,    20.62
      124.0,      20.74,    24.49,    21.41,    16.53,    20.54
      125.0,      20.67,    24.43,    21.33,    16.45,    20.45
      126.0,      20.59,    24.36,    21.26,    16.37,    20.37
      127.0,      20.52,    24.30,    21.19,    16.29,    20.29
      128.0,      20.44,    24.24,    21.12,    16.20,    20.21
      129.0,      20.37,    24.17,    21.05,    16.12,    20.13
      130.0,      20.30,    24.11,    20.98,    16.05,    20.05
      131.0,      20.23,    24.05,    20.91,    15.97,    19.98
      132.0,      20.16,    23.99,    20.85,    15.89,    19.90
      133.0,      20.09,    23.93,    20.78,    15.82,    19.82
      134.0,      20.02,    23.87,    20.72,    15.74,    19.75
      135.0,      19.95,    23.81,    20.65,    15.67,    19.68
      136.0,      19.88,    23.75,    20.59,    15.59,    19.61
      137.0,      19.82,    23.69,    20.53,    15.52,    19.54
      138.0,      19.75,    23.63,    20.46,    15.45,    19.47
      139.0,      19.69,    23.57,    20.40,    15.38,    19.40
      140.0,      19.62,    23.51,    20.34,    15.31,    19.33
      141.0,      19.56,    23.45,    20.28,    15.24,    19.26
      142.0,      19.50,    23.39,    20.22,    15.17,    19.20
      143.0,      19.43,    23.33,    20.16,    15.11,    19.13
      144.0,      19.37,    23.28,    20.11,    15.04,    19.07
      145.0,      19.31,    23.22,    20.05,    14.97,    19.00
      146.0,      19.25,    23.16,    19.99,    14.91,    18.94
      147.0,      19.19,    23.11,    19.94,    14.85,    18.88
      148.0,      19.13,    23.05,    19.88,    14.78,    18.82
      149.0,      19.07,    22.99,    19.83,    14.72,    18.76
      150.0,      19.02,    22.94,    19.77,    14.66,    18.70
      151.0,      18.96,    22.88,    19.72,    14.60,    18.64
      152.0,      18.90,    22.82,    19.66,    14.54,    18.58
      153.0,      18.85,    22.77,    19.61,    14.48,    18.53
      154.0,      18.79,    22.71,    19.56,    14.42,    18.47
      155.0,      18.73,    22.66,    19.51,    14.36,    18.41
      156.0,      18.68,    22.60,    19.46,    14.30,    18.36
      157.0,      18.63,    22.55,    19.41,    14.24,    18.30
      158.0,      18.57,    22.49,    19.36,    14.19,    18.25
      159.0,      18.52,    22.44,    19.31,    14.13,    18.20
      160.0,      18.47,    22.39,    19.26,    14.08,    18.15
      161.0,      18.41,    22.33,    19.21,    14.02,    18.09
      162.0,      18.36,    22.28,    19.16,    13.97,    18.04
      163.0,      18.31,    22.23,    19.11,    13.91,    17.99
      164.0,      18.26,    22.17,    19.06,    13.86,    17.94
      165.0,      18.21,    22.12,    19.02,    13.81,    17.89
      166.0,      18.16,    22.07,    18.97,    13.75,    17.84
      167.0,      18.11,    22.01,    18.92,    13.70,    17.80
      168.0,      18.06,    21.96,    18.88,    13.65,    17.75
      169.0,      18.01,    21.91,    18.83,    13.60,    17.70
      170.0,      17.96,    21.86,    18.79,    13.55,    17.66
      171.0,      17.91,    21.80,    18.74,    13.50,    17.61
      172.0,      17.87,    21.75,    18.70,    13.45,    17.57
      173.0,      17.82,    21.70,    18.66,    13.40,    17.52
      174.0,      17.77,    21.65,    18.61,    13.35,    17.48
      175.0,      17.73,    21.60,    18.57,    13.31,    17.43
      176.0,      17.68,    21.55,    18.53,    13.26,    17.39
      177.0,      17.63,    21.50,    18.48,    13.21,    17.35
      178.0,      17.59,    21.44,    18.44,    13.17,    17.30
      179.0,      17.54,    21.39,    18.40,    13.12,    17.26
      180.0,      17.50,    21.34,    18.36,    13.07,    17.22
      181.0,      17.45,    21.29,    18.31,    13.03,    17.18
      182.0,      17.41,    21.24,    18.27,    12.98,    17.14
      183.0,      17.37,    21.19,    18.23,    12.94,    17.10
      184.0,      17.32,    21.14,    18.19,    12.89,    17.06
      185.0,      17.28,    21.09,    18.15,    12.85,    17.02
      186.0,      17.24,    21.04,    18.11,    12.81,    16.98
      187.0,      17.19,    20.99,    18.07,    12.76,    16.95
      188.0,      17.15,    20.94,    18.03,    12.72,    16.91
      189.0,      17.11,    20.89,    17.99,    12.68,    16.87
      190.0,      17.07,    20.84,    17.95,    12.64,    16.83
      191.0,      17.03,    20.80,    17.92,    12.60,    16.80
      192.0,      16.99,    20.75,    17.88,    12.56,    16.76
      193.0,      16.94,    20.70,    17.84,    12.51,    16.72
      194.0,      16.90,    20.65,    17.80,    12.47,    16.69
      195.0,      16.86,    20.60,    17.76,    12.43,    16.65
      196.0,      16.82,    20.55,    17.73,    12.39,    16.62
      197.0,      16.78,    20.50,    17.69,    12.35,    16.59
      198.0,      16.74,    20.46,    17.65,    12.31,    16.55
      199.0,      16.70,    20.41,    17.61,    12.28,    16.52
      200.0,      16.66,    20.36,    17.58,    12.24,    16.48
      201.0,      16.63,    20.31,    17.54,    12.20,    16.45
      202.0,      16.59,    20.26,    17.51,    12.16,    16.42
      203.0,      16.55,    20.22,    17.47,    12.12,    16.39
      204.0,      16.51,    20.17,    17.43,    12.09,    16.35
      205.0,      16.47,    20.12,    17.40,    12.05,    16.32
      206.0,      16.43,    20.08,    17.36,    12.01,    16.29
      207.0,      16.40,    20.03,    17.33,    11.97,    16.26
      208.0,      16.36,    19.98,    17.29,    11.94,    16.23
      209.0,      16.32,    19.93,    17.26,    11.90,    16.20
      210.0,      16.29,    19.89,    17.22,    11.87,    16.17
      211.0,      16.25,    19.84,    17.19,    11.83,    16.14
      212.0,      16.21,    19.79,    17.15,    11.79,    16.11
      213.0,      16.18,    19.75,    17.12,    11.76,    16.08
      214.0,      16.14,    19.70,    17.09,    11.72,    16.05
      215.0,      16.10,    19.66,    17.05,    11.69,    16.02
      216.0,      16.07,    19.61,    17.02,    11.66,    15.99
      217.0,      16.03,    19.56,    16.98,    11.62,    15.96
      218.0,      16.00,    19.52,    16.95,    11.59,    15.93
      219.0,      15.96,    19.47,    16.92,    11.55,    15.91
      220.0,      15.93,    19.43,    16.88,    11.52,    15.88
      221.0,      15.89,    19.38,    16.85,    11.49,    15.85
      222.0,      15.86,    19.34,    16.82,    11.45,    15.82
      223.0,      15.82,    19.29,    16.79,    11.42,    15.80
      224.0,      15.79,    19.25,    16.75,    11.39,    15.77
      225.0,      15.76,    19.20,    16.72,    11.35,    15.74
      226.0,      15.72,    19.16,    16.69,    11.32,    15.72
      227.0,      15.69,    19.11,    16.66,    11.29,    15.69
      228.0,      15.65,    19.07,    16.62,    11.26,    15.66
      229.0,      15.62,    19.02,    16.59,    11.23,    15.64
      230.0,      15.59,    18.98,    16.56,    11.19,    15.61
      231.0,      15.55,    18.93,    16.53,    11.16,    15.59
      232.0,      15.52,    18.89,    16.50,    11.13,    15.56
      233.0,      15.49,    18.85,    16.47,    11.10,    15.54
      234.0,      15.45,    18.80,    16.44,    11.07,    15.51
      235.0,      15.42,    18.76,    16.40,    11.04,    15.49
      236.0,      15.39,    18.71,    16.37,    11.01,    15.46
      237.0,      15.36,    18.67,    16.34,    10.98,    15.44
      238.0,      15.33,    18.63,    16.31,    10.95,    15.42
      239.0,      15.29,    18.58,    16.28,    10.92,    15.39
      240.0,      15.26,    18.54,    16.25,    10.89,    15.37
      241.0,      15.23,    18.50,    16.22,    10.86,    15.34
      242.0,      15.20,    18.45,    16.19,    10.83,    15.32
      243.0,      15.17,    18.41,    16.16,    10.80,    15.30
      244.0,      15.14,    18.37,    16.13,    10.77,    15.27
      245.0,      15.10,    18.33,    16.10,    10.74,    15.25
      246.0,      15.07,    18.28,    16.07,    10.71,    15.23
      247.0,      15.04,    18.24,    16.04,    10.68,    15.21
      248.0,      15.01,    18.20,    16.01,    10.65,    15.18
      249.0,      14.98,    18.16,    15.98,    10.63,    15.16
      250.0,      14.95,    18.11,    15.95,    10.60,    15.14
      251.0,      14.92,    18.07,    15.92,    10.57,    15.12
      252.0,      14.89,    18.03,    15.89,    10.54,    15.10
      253.0,      14.86,    17.99,    15.86,    10.51,    15.07
      254.0,      14.83,    17.94,    15.83,    10.49,    15.05
      255.0,      14.80,    17.90,    15.80,    10.46,    15.03
      256.0,      14.77,    17.86,    15.78,    10.43,    15.01
      257.0,      14.74,    17.82,    15.75,    10.40,    14.99
      258.0,      14.71,    17.78,    15.72,    10.38,    14.97
      259.0,      14.68,    17.74,    15.69,    10.35,    14.95
      260.0,      14.65,    17.70,    15.66,    10.32,    14.93
      261.0,      14.62,    17.65,    15.63,    10.29,    14.90
      262.0,      14.59,    17.61,    15.60,    10.27,    14.88
      263.0,      14.56,    17.57,    15.57,    10.24,    14.86
      264.0,      14.53,    17.53,    15.55,    10.21,    14.84
      265.0,      14.50,    17.49,    15.52,    10.19,    14.82
      266.0,      14.48,    17.45,    15.49,    10.16,    14.80
      267.0,      14.45,    17.41,    15.46,    10.14,    14.78
      268.0,      14.42,    17.37,    15.43,    10.11,    14.76
      269.0,      14.39,    17.33,    15.41,    10.08,    14.74
      270.0,      14.36,    17.29,    15.38,    10.06,    14.72
      271.0,      14.33,    17.25,    15.35,    10.03,    14.70
      272.0,      14.31,    17.21,    15.32,    10.01,    14.68
      273.0,      14.28,    17.17,    15.30,     9.98,    14.67
      274.0,      14.25,    17.13,    15.27,     9.96,    14.65
      275.0,      14.22,    17.09,    15.24,     9.93,    14.63
      276.0,      14.19,    17.05,    15.21,     9.90,    14.61
      277.0,      14.17,    17.01,    15.19,     9.88,    14.59
      278.0,      14.14,    16.97,    15.16,     9.85,    14.57
      279.0,      14.11,    16.93,    15.13,     9.83,    14.55
      280.0,      14.08,    16.89,    15.10,     9.81,    14.53
      281.0,      14.06,    16.85,    15.08,     9.78,    14.51
      282.0,      14.03,    16.81,    15.05,     9.76,    14.50
      283.0,      14.00,    16.77,    15.02,     9.73,    14.48
      284.0,      13.97,    16.73,    15.00,     9.71,    14.46
      285.0,      13.95,    16.69,    14.97,     9.68,    14.44
      286.0,      13.92,    16.65,    14.94,     9.66,    14.42
      287.0,      13.89,    16.62,    14.92,     9.63,    14.40
      288.0,      13.87,    16.58,    14.89,     9.61,    14.39
      289.0,      13.84,    16.54,    14.86,     9.59,    14.37
      290.0,      13.81,    16.50,    14.84,     9.56,    14.35
      291.0,      13.79,    16.46,    14.81,     9.54,    14.33
      292.0,      13.76,    16.42,    14.78,     9.51,    14.31
      293.0,      13.73,    16.38,    14.76,     9.49,    14.30
      294.0,      13.71,    16.35,    14.73,     9.47,    14.28
      295.0,      13.68,    16.31,    14.71,     9.44,    14.26
      296.0,      13.65,    16.27,    14.68,     9.42,    14.25
      297.0,      13.63,    16.23,    14.65,     9.40,    14.23
      298.0,      13.60,    16.19,    14.63,     9.37,    14.21
      299.0,      13.58,    16.16,    14.60,     9.35,    14.19
      300.0,      13.55,    16.12,    14.58,     9.33,    14.18
      301.0,      13.52,    16.08,    14.55,     9.31,    14.16
      302.0,      13.50,    16.04,    14.52,     9.28,    14.14
      303.0,      13.47,    16.01,    14.50,     9.26,    14.13
      304.0,      13.45,    15.97,    14.47,     9.24,    14.11
      305.0,      13.42,    15.93,    14.45,     9.21,    14.09
      306.0,      13.40,    15.90,    14.42,     9.19,    14.08
      307.0,      13.37,    15.86,    14.40,     9.17,    14.06
      308.0,      13.35,    15.82,    14.37,     9.15,    14.04
      309.0,      13.32,    15.78,    14.35,     9.13,    14.03
      310.0,      13.30,    15.75,    14.32,     9.10,    14.01
