Radius (km), Mean (m/s), NE (m/s), SE (m/s), SW (m/s), NW (m/s)
        0.0,       0.00,     0.00,     0.00,     0.00,     0.00
        1.0,       3.05,     2.96,     3.14,     3.14,     2.96
        2.0,       5.13,     5.25,     5.01,     5.02,     5.26
        3.0,       6.99,     7.33,     6.60,     6.61,     7.43
        4.0,       8.77,     9.33,     8.03,     8.09,     9.62
        5.0,      10.55,    11.32,     9.40,     9.55,    11.94
        6.0,      12.40,    13.37,    10.76,    11.03,    14.44
        7.0,      14.35,    15.54,    12.14,    12.58,    17.14
        8.0,      16.39,    17.83,    13.58,    14.19,    19.97
        9.0,      18.48,    20.22,    15.04,    15.82,    22.83
       10.0,      20.54,    22.64,    16.51,    17.41,    25.59
       11.0,      22.48,    25.00,    17.93,    18.90,    28.11
       12.0,      24.22,    27.18,    19.24,    20.22,    30.25
       13.0,      25.67,    29.08,    20.38,    21.30,    31.93
       14.0,      26.79,    30.64,    21.30,    22.11,    33.09
       15.0,      27.54,    31.79,    21.99,    22.64,    33.74
       16.0,      27.94,    32.54,    22.43,    22.89,    33.91
       17.0,      28.04,    32.90,    22.64,    22.92,    33.70
       18.0,      27.90,    32.96,    22.67,    22.76,    33.21
       19.0,      27.59,    32.77,    22.55,    22.48,    32.55
       20.0,      27.18,    32.44,    22.35,    22.13,    31.81
       21.0,      26.74,    32.04,    22.10,    21.76,    31.06
       22.0,      26.30,    31.62,    21.84,    21.39,    30.34
       23.0,      25.88,    31.23,    21.59,    21.05,    29.65
       24.0,      25.48,    30.86,    21.35,    20.72,    29.00
       25.0,      25.11,    30.51,    21.14,    20.42,    28.37
       26.0,      24.75,    30.18,    20.93,    20.12,    27.77
       27.0,      24.40,    29.86,    20.73,    19.84,    27.19
       28.0,      24.07,    29.55,    20.54,    19.56,    26.63
       29.0,      23.74,    29.24,    20.34,    19.30,    26.09
       30.0,      23.43,    28.94,    20.16,    19.04,    25.57
       31.0,      23.12,    28.65,    19.98,    18.79,    25.07
       32.0,      22.83,    28.37,    19.80,    18.55,    24.59
       33.0,      22.54,    28.10,    19.63,    18.32,    24.13
       34.0,      22.27,    27.83,    19.46,    18.10,    23.68
       35.0,      22.00,    27.57,    19.30,    17.89,    23.25
       36.0,      21.74,    27.31,    19.14,    17.68,    22.84
       37.0,      21.49,    27.06,    18.98,    17.48,    22.44
       38.0,      21.25,    26.82,    18.83,    17.29,    22.05
       39.0,      21.01,    26.58,    18.68,    17.10,    21.68
       40.0,      20.78,    26.35,    18.53,    16.92,    21.32
       41.0,      20.56,    26.12,    18.39,    16.75,    20.98
       42.0,      20.34,    25.90,    18.25,    16.58,    20.65
       43.0,      20.13,    25.68,    18.11,    16.42,    20.33
       44.0,      19.93,    25.47,    17.98,    16.26,    20.02
       45.0,      19.73,    25.26,    17.85,    16.11,    19.73
       46.0,      19.54,    25.05,    17.72,    15.96,    19.44
       47.0,      19.36,    24.85,    17.59,    15.82,    19.16
       48.0,      19.18,    24.66,    17.47,    15.68,    18.90
       49.0,      19.00,    24.47,    17.35,    15.55,    18.64
       50.0,      18.83,    24.28,    17.23,    15.42,    18.40
       51.0,      18.67,    24.10,    17.12,    15.30,    18.16
       52.0,      18.51,    23.92,    17.00,    15.17,    17.93
       53.0,      18.35,    23.74,    16.89,    15.06,    17.71
       54.0,      18.20,    23.57,    16.78,    14.94,    17.49
       55.0,      18.05,    23.40,    16.67,    14.83,    17.29
       56.0,      17.90,    23.23,    16.57,    14.73,    17.09
       57.0,      17.76,    23.06,    16.47,    14.62,    16.90
       58.0,      17.63,    22.90,    16.36,    14.52,    16.71
       59.0,      17.49,    22.75,    16.26,    14.43,    16.54
       60.0,      17.36,    22.59,    16.16,    14.33,    16.36
       61.0,      17.24,    22.44,    16.07,    14.24,    16.20
       62.0,      17.11,    22.29,    15.97,    14.15,    16.04
       63.0,      16.99,    22.14,    15.88,    14.07,    15.88
       64.0,      16.87,    21.99,    15.79,    13.98,    15.74
       65.0,      16.76,    21.85,    15.69,    13.90,    15.59
       66.0,      16.65,    21.71,    15.60,    13.82,    15.45
       67.0,      16.54,    21.57,    15.52,    13.74,    15.32
       68.0,      16.43,    21.44,    15.43,    13.67,    15.19
       69.0,      16.33,    21.30,    15.34,    13.60,    15.06
       70.0,      16.22,    21.17,    15.26,    13.52,    14.94
       71.0,      16.12,    21.04,    15.17,    13.45,    14.83
       72.0,      16.03,    20.91,    15.09,    13.39,    14.71
       73.0,      15.93,    20.79,    15.01,    13.32,    14.61
       74.0,      15.84,    20.66,    14.93,    13.26,    14.50
       75.0,      15.75,    20.54,    14.85,    13.19,    14.40
       76.0,      15.66,    20.42,    14.77,    13.13,    14.30
       77.0,      15.57,    20.30,    14.70,    13.07,    14.21
       78.0,      15.48,    20.18,    14.62,    13.02,    14.11
       79.0,      15.40,    20.06,    14.54,    12.96,    14.03
       80.0,      15.31,    19.95,    14.47,    12.90,    13.94
       81.0,      15.23,    19.83,    14.40,    12.85,    13.86
       82.0,      15.15,    19.72,    14.32,    12.80,    13.78
       83.0,      15.08,    19.61,    14.25,    12.75,    13.70
       84.0,      15.00,    19.50,    14.18,    12.69,    13.62
       85.0,      14.92,    19.39,    14.11,    12.64,    13.55
       86.0,      14.85,    19.28,    14.04,    12.60,    13.48
       87.0,      14.78,    19.18,    13.97,    12.55,    13.41
       88.0,      14.71,    19.07,    13.90,    12.50,    13.35
       89.0,      14.64,    18.97,    13.83,    12.46,    13.28
       90.0,      14.57,    18.87,    13.77,    12.41,    13.22
       91.0,      14.50,    18.77,    13.70,    12.37,    13.16
       92.0,      14.43,    18.66,    13.64,    12.33,    13.10
       93.0,      14.37,    18.57,    13.57,    12.28,    13.04
       94.0,      14.30,    18.47,    13.51,    12.24,    12.99
       95.0,      14.24,    18.37,    13.44,    12.20,    12.94
       96.0,      14.17,    18.27,    13.38,    12.16,    12.88
       97.0,      14.11,    18.18,    13.32,    12.12,    12.83
       98.0,      14.05,    18.08,    13.25,    12.08,    12.78
       99.0,      13.99,    17.99,    13.19,    12.04,    12.74
      100.0,      13.93,    17.90,    13.13,    12.01,    12.69
      101.0,      13.87,    17.80,    13.07,    11.97,    12.65
      102.0,      13.82,    17.71,    13.01,    11.93,    12.60
      103.0,      13.76,    17.62,    12.95,    11.90,    12.56
      104.0,      13.70,    17.53,    12.89,    11.86,    12.52
      105.0,      13.65,    17.45,    12.83,    11.83,    12.48
      106.0,      13.59,    17.36,    12.77,    11.79,    12.44
      107.0,      13.54,    17.27,    12.72,    11.76,    12.40
      108.0,      13.48,    17.18,    12.66,    11.73,    12.37
      109.0,      13.43,    17.10,    12.60,    11.70,    12.33
      110.0,      13.38,    17.01,    12.54,    11.66,    12.30
      111.0,      13.33,    16.93,    12.49,    11.63,    12.26
      112.0,      13.28,    16.84,    12.43,    11.60,    12.23
      113.0,      13.23,    16.76,    12.38,    11.57,    12.20
      114.0,      13.18,    16.68,    12.32,    11.54,    12.16
      115.0,      13.13,    16.60,    12.27,    11.51,    12.13
      116.0,      13.08,    16.52,    12.21,    11.48,    12.10
      117.0,      13.03,    16.43,    12.16,    11.45,    12.07
      118.0,      12.98,    16.35,    12.10,    11.42,    12.04
      119.0,      12.93,    16.27,    12.05,    11.39,    12.02
      120.0,      12.89,    16.20,    12.00,    11.36,    11.99
      121.0,      12.84,    16.12,    11.95,    11.33,    11.96
      122.0,      12.79,    16.04,    11.89,    11.30,    11.94
      123.0,      12.75,    15.96,    11.84,    11.28,    11.91
      124.0,      12.70,    15.89,    11.79,    11.25,    11.89
      125.0,      12.66,    15.81,    11.74,    11.22,    11.86
      126.0,      12.61,    15.73,    11.69,    11.19,    11.84
      127.0,      12.57,    15.66,    11.64,    11.17,    11.81
      128.0,      12.52,    15.58,    11.59,    11.14,    11.79
      129.0,      12.48,    15.51,    11.54,    11.11,    11.77
      130.0,      12.44,    15.44,    11.49,    11.09,    11.75
      131.0,      12.40,    15.36,    11.44,    11.06,    11.72
      132.0,      12.35,    15.29,    11.39,    11.03,    11.70
      133.0,      12.31,    15.22,    11.34,    11.01,    11.68
      134.0,      12.27,    15.14,    11.29,    10.98,    11.66
      135.0,      12.23,    15.07,    11.24,    10.96,    11.64
      136.0,      12.19,    15.00,    11.19,    10.93,    11.62
      137.0,      12.15,    14.93,    11.14,    10.91,    11.60
      138.0,      12.11,    14.86,    11.10,    10.88,    11.58
      139.0,      12.07,    14.79,    11.05,    10.86,    11.56
      140.0,      12.03,    14.72,    11.00,    10.83,    11.54
      141.0,      11.99,    14.65,    10.96,    10.81,    11.53
      142.0,      11.95,    14.58,    10.91,    10.79,    11.51
      143.0,      11.91,    14.52,    10.86,    10.76,    11.49
      144.0,      11.87,    14.45,    10.82,    10.74,    11.47
      145.0,      11.83,    14.38,    10.77,    10.71,    11.45
      146.0,      11.79,    14.31,    10.72,    10.69,    11.44
      147.0,      11.75,    14.25,    10.68,    10.67,    11.42
      148.0,      11.72,    14.18,    10.63,    10.64,    11.40
      149.0,      11.68,    14.11,    10.59,    10.62,    11.39
      150.0,      11.64,    14.05,    10.54,    10.60,    11.37
      151.0,      11.60,    13.98,    10.50,    10.57,    11.35
      152.0,      11.57,    13.92,    10.45,    10.55,    11.34
      153.0,      11.53,    13.85,    10.41,    10.53,    11.32
      154.0,      11.49,    13.79,    10.37,    10.51,    11.31
      155.0,      11.46,    13.73,    10.32,    10.48,    11.29
      156.0,      11.42,    13.66,    10.28,    10.46,    11.28
      157.0,      11.38,    13.60,    10.24,    10.44,    11.26
      158.0,      11.35,    13.54,    10.19,    10.42,    11.25
      159.0,      11.31,    13.47,    10.15,    10.39,    11.23
      160.0,      11.28,    13.41,    10.11,    10.37,    11.22
      161.0,      11.24,    13.35,    10.06,    10.35,    11.20
      162.0,      11.21,    13.29,    10.02,    10.33,    11.19
      163.0,      11.17,    13.23,     9.98,    10.31,    11.18
      164.0,      11.14,    13.17,     9.94,    10.28,    11.16
      165.0,      11.10,    13.11,     9.90,    10.26,    11.15
      166.0,      11.07,    13.05,     9.85,    10.24,    11.13
      167.0,      11.04,    12.99,     9.81,    10.22,    11.12
      168.0,      11.00,    12.93,     9.77,    10.20,    11.11
      169.0,      10.97,    12.87,     9.73,    10.18,    11.09
      170.0,      10.93,    12.81,     9.69,    10.16,    11.08
      171.0,      10.90,    12.75,     9.65,    10.14,    11.07
      172.0,      10.87,    12.69,     9.61,    10.11,    11.05
      173.0,      10.83,    12.63,     9.57,    10.09,    11.04
      174.0,      10.80,    12.58,     9.53,    10.07,    11.03
      175.0,      10.77,    12.52,     9.49,    10.05,    11.01
      176.0,      10.74,    12.46,     9.45,    10.03,    11.00
      177.0,      10.70,    12.40,     9.41,    10.01,    10.99
      178.0,      10.67,    12.35,     9.37,     9.99,    10.98
      179.0,      10.64,    12.29,     9.33,     9.97,    10.96
      180.0,      10.61,    12.23,     9.29,     9.95,    10.95
      181.0,      10.57,    12.18,     9.25,     9.93,    10.94
      182.0,      10.54,    12.12,     9.21,     9.91,    10.93
      183.0,      10.51,    12.07,     9.18,     9.89,    10.91
      184.0,      10.48,    12.01,     9.14,     9.87,    10.90
      185.0,      10.45,    11.96,     9.10,     9.85,    10.89
      186.0,      10.42,    11.90,     9.06,     9.83,    10.88
      187.0,      10.39,    11.85,     9.02,     9.81,    10.87
      188.0,      10.36,    11.79,     8.99,     9.79,    10.85
      189.0,      10.32,    11.74,     8.95,     9.77,    10.84
      190.0,      10.29,    11.69,     8.91,     9.75,    10.83
      191.0,      10.26,    11.63,     8.87,     9.73,    10.82
      192.0,      10.23,    11.58,     8.84,     9.71,    10.81
      193.0,      10.20,    11.53,     8.80,     9.69,    10.80
      194.0,      10.17,    11.48,     8.76,     9.67,    10.78
      195.0,      10.14,    11.42,     8.73,     9.65,    10.77
      196.0,      10.11,    11.37,     8.69,     9.63,    10.76
      197.0,      10.08,    11.32,     8.65,     9.61,    10.75
      198.0,      10.05,    11.27,     8.62,     9.59,    10.74
      199.0,      10.02,    11.22,     8.58,     9.57,    10.73
      200.0,       9.99,    11.17,     8.55,     9.55,    10.71
      201.0,       9.96,    11.11,     8.51,     9.53,    10.70
      202.0,       9.94,    11.06,     8.48,     9.51,    10.69
      203.0,       9.91,    11.01,     8.44,     9.49,    10.68
      204.0,       9.88,    10.96,     8.41,     9.47,    10.67
      205.0,       9.85,    10.91,     8.37,     9.45,    10.66
      206.0,       9.82,    10.86,     8.34,     9.43,    10.65
      207.0,       9.79,    10.81,     8.30,     9.41,    10.64
      208.0,       9.76,    10.77,     8.27,     9.40,    10.62
      209.0,       9.73,    10.72,     8.23,     9.38,    10.61
      210.0,       9.71,    10.67,     8.20,     9.36,    10.60
      211.0,       9.68,    10.62,     8.16,     9.34,    10.59
      212.0,       9.65,    10.57,     8.13,     9.32,    10.58
      213.0,       9.62,    10.52,     8.10,     9.30,    10.57
      214.0,       9.59,    10.48,     8.06,     9.28,    10.56
      215.0,       9.57,    10.43,     8.03,     9.26,    10.55
      216.0,       9.54,    10.38,     8.00,     9.24,    10.54
      217.0,       9.51,    10.33,     7.96,     9.23,    10.53
      218.0,       9.48,    10.29,     7.93,     9.21,    10.51
      219.0,       9.46,    10.24,     7.90,     9.19,    10.50
      220.0,       9.43,    10.19,     7.86,     9.17,    10.49
      221.0,       9.40,    10.15,     7.83,     9.15,    10.48
      222.0,       9.38,    10.10,     7.80,     9.13,    10.47
      223.0,       9.35,    10.06,     7.77,     9.11,    10.46
      224.0,       9.32,    10.01,     7.73,     9.10,    10.45
      225.0,       9.30,     9.96,     7.70,     9.08,    10.44
      226.0,       9.27,     9.92,     7.67,     9.06,    10.43
      227.0,       9.24,     9.87,     7.64,     9.04,    10.42
      228.0,       9.22,     9.83,     7.61,     9.02,    10.41
      229.0,       9.19,     9.78,     7.57,     9.00,    10.40
      230.0,       9.16,     9.74,     7.54,     8.99,    10.39
      231.0,       9.14,     9.70,     7.51,     8.97,    10.37
      232.0,       9.11,     9.65,     7.48,     8.95,    10.36
      233.0,       9.09,     9.61,     7.45,     8.93,    10.35
      234.0,       9.06,     9.56,     7.42,     8.91,    10.34
      235.0,       9.03,     9.52,     7.39,     8.90,    10.33
      236.0,       9.01,     9.48,     7.36,     8.88,    10.32
      237.0,       8.98,     9.44,     7.33,     8.86,    10.31
      238.0,       8.96,     9.39,     7.30,     8.84,    10.30
      239.0,       8.93,     9.35,     7.26,     8.82,    10.29
      240.0,       8.91,     9.31,     7.23,     8.81,    10.28
      241.0,       8.88,     9.27,     7.20,     8.79,    10.27
      242.0,       8.86,     9.22,     7.17,     8.77,    10.26
      243.0,       8.83,     9.18,     7.14,     8.75,    10.25
      244.0,       8.81,     9.14,     7.12,     8.74,    10.24
      245.0,       8.78,     9.10,     7.09,     8.72,    10.23
      246.0,       8.76,     9.06,     7.06,     8.70,    10.22
      247.0,       8.73,     9.02,     7.03,     8.68,    10.21
      248.0,       8.71,     8.98,     7.00,     8.67,    10.20
      249.0,       8.68,     8.93,     6.97,     8.65,    10.19
      250.0,       8.66,     8.89,     6.94,     8.63,    10.18
      251.0,       8.64,     8.85,     6.91,     8.61,    10.17
      252.0,       8.61,     8.81,     6.88,     8.60,    10.16
      253.0,       8.59,     8.77,     6.85,     8.58,    10.15
      254.0,       8.56,     8.73,     6.83,     8.56,    10.14
      255.0,       8.54,     8.69,     6.80,     8.55,    10.13
      256.0,       8.52,     8.66,     6.77,     8.53,    10.12
      257.0,       8.49,     8.62,     6.74,     8.51,    10.11
      258.0,       8.47,     8.58,     6.71,     8.49,    10.09
      259.0,       8.45,     8.54,     6.68,     8.48,    10.08
      260.0,       8.42,     8.50,     6.66,     8.46,    10.07
      261.0,       8.40,     8.46,     6.63,     8.44,    10.06
      262.0,       8.38,     8.42,     6.60,     8.43,    10.05
      263.0,       8.35,     8.38,     6.57,     8.41,    10.04
      264.0,       8.33,     8.35,     6.55,     8.39,    10.03
      265.0,       8.31,     8.31,     6.52,     8.37,    10.02
      266.0,       8.28,     8.27,     6.49,     8.36,    10.01
      267.0,       8.26,     8.23,     6.47,     8.34,    10.00
      268.0,       8.24,     8.20,     6.44,     8.32,     9.99
      269.0,       8.22,     8.16,     6.41,     8.31,     9.98
      270.0,       8.19,     8.12,     6.39,     8.29,     9.97
      271.0,       8.17,     8.09,     6.36,     8.27,     9.96
      272.0,       8.15,     8.05,     6.33,     8.26,     9.95
      273.0,       8.13,     8.01,     6.31,     8.24,     9.94
      274.0,       8.10,     7.98,     6.28,     8.22,     9.93
      275.0,       8.08,     7.94,     6.25,     8.21,     9.92
      276.0,       8.06,     7.90,     6.23,     8.19,     9.91
      277.0,       8.04,     7.87,     6.20,     8.18,     9.90
      278.0,       8.02,     7.83,     6.18,     8.16,     9.89
      279.0,       7.99,     7.80,     6.15,     8.14,     9.88
      280.0,       7.97,     7.76,     6.13,     8.13,     9.87
      281.0,       7.95,     7.73,     6.10,     8.11,     9.86
      282.0,       7.93,     7.69,     6.07,     8.09,     9.85
      283.0,       7.91,     7.66,     6.05,     8.08,     9.84
      284.0,       7.89,     7.62,     6.02,     8.06,     9.83
      285.0,       7.86,     7.59,     6.00,     8.04,     9.82
      286.0,       7.84,     7.55,     5.97,     8.03,     9.81
      287.0,       7.82,     7.52,     5.95,     8.01,     9.81
      288.0,       7.80,     7.48,     5.92,     8.00,     9.80
      289.0,       7.78,     7.45,     5.90,     7.98,     9.79
      290.0,       7.76,     7.42,     5.88,     7.96,     9.78
      291.0,       7.74,     7.38,     5.85,     7.95,     9.77
      292.0,       7.72,     7.35,     5.83,     7.93,     9.76
      293.0,       7.70,     7.32,     5.80,     7.92,     9.75
      294.0,       7.67,     7.28,     5.78,     7.90,     9.74
      295.0,       7.65,     7.25,     5.75,     7.88,     9.73
      296.0,       7.63,     7.22,     5.73,     7.87,     9.72
      297.0,       7.61,     7.19,     5.71,     7.85,     9.71
      298.0,       7.59,     7.15,     5.68,     7.84,     9.70
      299.0,       7.57,     7.12,     5.66,     7.82,     9.69
      300.0,       7.55,     7.09,     5.64,     7.81,     9.68
      301.0,       7.53,     7.06,     5.61,     7.79,     9.67
      302.0,       7.51,     7.02,     5.59,     7.77,     9.66
      303.0,       7.49,     6.99,     5.57,     7.76,     9.65
      304.0,       7.47,     6.96,     5.54,     7.74,     9.64
      305.0,       7.45,     6.93,     5.52,     7.73,     9.63
      306.0,       7.43,     6.90,     5.50,     7.71,     9.62
      307.0,       7.41,     6.87,     5.47,     7.70,     9.61
      308.0,       7.39,     6.84,     5.45,     7.68,     9.60
      309.0,       7.37,     6.80,     5.43,     7.67,     9.59
      310.0,       7.35,     6.77,     5.41,     7.65,     9.58
