Radius (km), Mean (m/s), NE (m/s), SE (m/s), SW (m/s), NW (m/s)
        0.0,       0.00,     0.00,     0.00,     0.00,     0.00
        1.0,       3.05,     2.96,     3.13,     3.13,     2.96
        2.0,       5.14,     5.26,     5.02,     5.01,     5.26
        3.0,       7.03,     7.41,     6.65,     6.62,     7.42
        4.0,       8.87,     9.57,     8.20,     8.10,     9.59
        5.0,      10.76,    11.82,     9.77,     9.56,    11.87
        6.0,      12.75,    14.22,    11.40,    11.06,    14.32
        7.0,      14.87,    16.79,    13.12,    12.62,    16.95
        8.0,      17.08,    19.47,    14.89,    14.24,    19.70
        9.0,      19.30,    22.19,    16.65,    15.88,    22.49
       10.0,      21.45,    24.82,    18.34,    17.47,    25.18
       11.0,      23.43,    27.25,    19.86,    18.96,    27.65
       12.0,      25.13,    29.35,    21.15,    20.27,    29.77
       13.0,      26.49,    31.04,    22.15,    21.34,    31.45
       14.0,      27.47,    32.27,    22.83,    22.14,    32.65
       15.0,      28.06,    33.03,    23.20,    22.66,    33.36
       16.0,      28.30,    33.38,    23.29,    22.90,    33.63
       17.0,      28.24,    33.37,    23.14,    22.92,    33.52
       18.0,      27.96,    33.10,    22.83,    22.76,    33.15
       19.0,      27.54,    32.66,    22.41,    22.48,    32.61
       20.0,      27.05,    32.14,    21.95,    22.13,    31.99
       21.0,      26.54,    31.59,    21.48,    21.76,    31.35
       22.0,      26.05,    31.06,    21.03,    21.39,    30.72
       23.0,      25.58,    30.55,    20.60,    21.04,    30.13
       24.0,      25.13,    30.07,    20.19,    20.71,    29.57
       25.0,      24.70,    29.59,    19.80,    20.39,    29.02
       26.0,      24.28,    29.13,    19.43,    20.08,    28.49
       27.0,      23.88,    28.68,    19.06,    19.78,    27.98
       28.0,      23.48,    28.25,    18.71,    19.49,    27.48
       29.0,      23.10,    27.82,    18.38,    19.21,    27.00
       30.0,      22.73,    27.40,    18.06,    18.93,    26.53
       31.0,      22.37,    27.00,    17.75,    18.66,    26.08
       32.0,      22.02,    26.60,    17.45,    18.40,    25.64
       33.0,      21.68,    26.22,    17.16,    18.15,    25.21
       34.0,      21.36,    25.84,    16.88,    17.91,    24.80
       35.0,      21.04,    25.48,    16.61,    17.67,    24.40
       36.0,      20.73,    25.12,    16.36,    17.43,    24.01
       37.0,      20.43,    24.77,    16.11,    17.21,    23.63
       38.0,      20.14,    24.43,    15.87,    16.99,    23.27
       39.0,      19.86,    24.10,    15.64,    16.78,    22.92
       40.0,      19.58,    23.78,    15.42,    16.57,    22.57
       41.0,      19.32,    23.46,    15.21,    16.37,    22.24
       42.0,      19.06,    23.16,    15.00,    16.17,    21.92
       43.0,      18.81,    22.86,    14.81,    15.98,    21.61
       44.0,      18.57,    22.57,    14.62,    15.79,    21.30
       45.0,      18.33,    22.28,    14.43,    15.61,    21.01
       46.0,      18.11,    22.00,    14.26,    15.44,    20.72
       47.0,      17.88,    21.73,    14.09,    15.26,    20.45
       48.0,      17.67,    21.47,    13.92,    15.10,    20.18
       49.0,      17.46,    21.21,    13.76,    14.94,    19.92
       50.0,      17.26,    20.96,    13.61,    14.78,    19.67
       51.0,      17.06,    20.72,    13.46,    14.63,    19.42
       52.0,      16.87,    20.48,    13.32,    14.48,    19.19
       53.0,      16.68,    20.25,    13.19,    14.33,    18.96
       54.0,      16.50,    20.02,    13.05,    14.19,    18.73
       55.0,      16.32,    19.80,    12.93,    14.05,    18.52
       56.0,      16.15,    19.58,    12.81,    13.92,    18.31
       57.0,      15.99,    19.37,    12.69,    13.79,    18.10
       58.0,      15.83,    19.17,    12.57,    13.66,    17.90
       59.0,      15.67,    18.97,    12.46,    13.54,    17.71
       60.0,      15.52,    18.77,    12.36,    13.42,    17.53
       61.0,      15.37,    18.58,    12.26,    13.30,    17.34
       62.0,      15.23,    18.40,    12.16,    13.19,    17.17
       63.0,      15.09,    18.21,    12.06,    13.08,    17.00
       64.0,      14.95,    18.04,    11.97,    12.97,    16.83
       65.0,      14.82,    17.86,    11.88,    12.86,    16.67
       66.0,      14.69,    17.70,    11.80,    12.76,    16.52
       67.0,      14.57,    17.53,    11.71,    12.66,    16.37
       68.0,      14.45,    17.37,    11.63,    12.56,    16.22
       69.0,      14.33,    17.21,    11.56,    12.47,    16.08
       70.0,      14.21,    17.06,    11.48,    12.37,    15.94
       71.0,      14.10,    16.91,    11.41,    12.28,    15.80
       72.0,      13.99,    16.77,    11.34,    12.20,    15.67
       73.0,      13.89,    16.62,    11.27,    12.11,    15.55
       74.0,      13.79,    16.49,    11.21,    12.03,    15.42
       75.0,      13.69,    16.35,    11.14,    11.94,    15.30
       76.0,      13.59,    16.22,    11.08,    11.86,    15.19
       77.0,      13.49,    16.09,    11.02,    11.79,    15.07
       78.0,      13.40,    15.96,    10.97,    11.71,    14.96
       79.0,      13.31,    15.84,    10.91,    11.64,    14.86
       80.0,      13.22,    15.72,    10.86,    11.57,    14.75
       81.0,      13.14,    15.60,    10.81,    11.50,    14.65
       82.0,      13.06,    15.49,    10.76,    11.43,    14.55
       83.0,      12.98,    15.38,    10.71,    11.36,    14.46
       84.0,      12.90,    15.27,    10.66,    11.29,    14.37
       85.0,      12.82,    15.16,    10.61,    11.23,    14.28
       86.0,      12.75,    15.06,    10.57,    11.17,    14.19
       87.0,      12.67,    14.95,    10.53,    11.11,    14.10
       88.0,      12.60,    14.85,    10.49,    11.05,    14.02
       89.0,      12.53,    14.76,    10.45,    10.99,    13.94
       90.0,      12.47,    14.66,    10.41,    10.93,    13.86
       91.0,      12.40,    14.57,    10.37,    10.88,    13.78
       92.0,      12.34,    14.48,    10.33,    10.82,    13.71
       93.0,      12.27,    14.39,    10.30,    10.77,    13.64
       94.0,      12.21,    14.30,    10.26,    10.72,    13.57
       95.0,      12.15,    14.22,    10.23,    10.67,    13.50
       96.0,      12.09,    14.14,    10.19,    10.62,    13.43
       97.0,      12.04,    14.06,    10.16,    10.57,    13.37
       98.0,      11.98,    13.98,    10.13,    10.52,    13.30
       99.0,      11.93,    13.90,    10.10,    10.47,    13.24
      100.0,      11.88,    13.82,    10.07,    10.43,    13.18
      101.0,      11.82,    13.75,    10.04,    10.38,    13.12
      102.0,      11.77,    13.68,    10.01,    10.34,    13.07
      103.0,      11.73,    13.61,     9.99,    10.30,    13.01
      104.0,      11.68,    13.54,     9.96,    10.25,    12.96
      105.0,      11.63,    13.47,     9.94,    10.21,    12.90
      106.0,      11.58,    13.40,     9.91,    10.17,    12.85
      107.0,      11.54,    13.34,     9.89,    10.13,    12.80
      108.0,      11.50,    13.28,     9.86,    10.10,    12.75
      109.0,      11.45,    13.21,     9.84,    10.06,    12.70
      110.0,      11.41,    13.15,     9.81,    10.02,    12.66
      111.0,      11.37,    13.10,     9.79,     9.98,    12.61
      112.0,      11.33,    13.04,     9.77,     9.95,    12.57
      113.0,      11.29,    12.98,     9.75,     9.91,    12.52
      114.0,      11.25,    12.92,     9.73,     9.88,    12.48
      115.0,      11.22,    12.87,     9.71,     9.85,    12.44
      116.0,      11.18,    12.82,     9.69,     9.81,    12.40
      117.0,      11.14,    12.76,     9.67,     9.78,    12.36
      118.0,      11.11,    12.71,     9.65,     9.75,    12.32
      119.0,      11.07,    12.66,     9.63,     9.72,    12.28
      120.0,      11.04,    12.61,     9.61,     9.69,    12.25
      121.0,      11.01,    12.57,     9.59,     9.65,    12.21
      122.0,      10.97,    12.52,     9.58,     9.63,    12.17
      123.0,      10.94,    12.47,     9.56,     9.60,    12.14
      124.0,      10.91,    12.43,     9.54,     9.57,    12.11
      125.0,      10.88,    12.38,     9.52,     9.54,    12.07
      126.0,      10.85,    12.34,     9.51,     9.51,    12.04
      127.0,      10.82,    12.30,     9.49,     9.48,    12.01
      128.0,      10.79,    12.25,     9.48,     9.46,    11.98
      129.0,      10.76,    12.21,     9.46,     9.43,    11.95
      130.0,      10.73,    12.17,     9.44,     9.40,    11.92
      131.0,      10.71,    12.13,     9.43,     9.38,    11.89
      132.0,      10.68,    12.10,     9.41,     9.35,    11.86
      133.0,      10.65,    12.06,     9.40,     9.33,    11.83
      134.0,      10.63,    12.02,     9.39,     9.30,    11.80
      135.0,      10.60,    11.98,     9.37,     9.28,    11.78
      136.0,      10.58,    11.95,     9.36,     9.26,    11.75
      137.0,      10.55,    11.91,     9.34,     9.23,    11.72
      138.0,      10.53,    11.88,     9.33,     9.21,    11.70
      139.0,      10.50,    11.84,     9.32,     9.19,    11.67
      140.0,      10.48,    11.81,     9.30,     9.16,    11.65
      141.0,      10.46,    11.78,     9.29,     9.14,    11.62
      142.0,      10.43,    11.75,     9.28,     9.12,    11.60
      143.0,      10.41,    11.71,     9.26,     9.10,    11.58
      144.0,      10.39,    11.68,     9.25,     9.08,    11.55
      145.0,      10.37,    11.65,     9.24,     9.05,    11.53
      146.0,      10.35,    11.62,     9.23,     9.03,    11.51
      147.0,      10.33,    11.59,     9.21,     9.01,    11.49
      148.0,      10.31,    11.56,     9.20,     8.99,    11.46
      149.0,      10.28,    11.53,     9.19,     8.97,    11.44
      150.0,      10.26,    11.51,     9.18,     8.95,    11.42
      151.0,      10.24,    11.48,     9.17,     8.93,    11.40
      152.0,      10.23,    11.45,     9.15,     8.91,    11.38
      153.0,      10.21,    11.43,     9.14,     8.89,    11.36
      154.0,      10.19,    11.40,     9.13,     8.87,    11.34
      155.0,      10.17,    11.37,     9.12,     8.86,    11.32
      156.0,      10.15,    11.35,     9.11,     8.84,    11.30
      157.0,      10.13,    11.32,     9.10,     8.82,    11.28
      158.0,      10.11,    11.30,     9.09,     8.80,    11.27
      159.0,      10.09,    11.27,     9.08,     8.78,    11.25
      160.0,      10.08,    11.25,     9.06,     8.76,    11.23
      161.0,      10.06,    11.23,     9.05,     8.75,    11.21
      162.0,      10.04,    11.20,     9.04,     8.73,    11.19
      163.0,      10.02,    11.18,     9.03,     8.71,    11.18
      164.0,      10.01,    11.16,     9.02,     8.69,    11.16
      165.0,       9.99,    11.13,     9.01,     8.68,    11.14
      166.0,       9.97,    11.11,     9.00,     8.66,    11.12
      167.0,       9.96,    11.09,     8.99,     8.64,    11.11
      168.0,       9.94,    11.07,     8.98,     8.63,    11.09
      169.0,       9.93,    11.05,     8.97,     8.61,    11.08
      170.0,       9.91,    11.03,     8.96,     8.59,    11.06
      171.0,       9.89,    11.01,     8.95,     8.58,    11.04
      172.0,       9.88,    10.99,     8.94,     8.56,    11.03
      173.0,       9.86,    10.97,     8.93,     8.55,    11.01
      174.0,       9.85,    10.95,     8.92,     8.53,    11.00
      175.0,       9.83,    10.93,     8.91,     8.51,    10.98
      176.0,       9.82,    10.91,     8.90,     8.50,    10.97
      177.0,       9.80,    10.89,     8.89,     8.48,    10.95
      178.0,       9.79,    10.87,     8.88,     8.47,    10.94
      179.0,       9.77,    10.85,     8.87,     8.45,    10.92
      180.0,       9.76,    10.83,     8.86,     8.44,    10.91
      181.0,       9.75,    10.81,     8.85,     8.42,    10.89
      182.0,       9.73,    10.80,     8.84,     8.41,    10.88
      183.0,       9.72,    10.78,     8.83,     8.39,    10.86
      184.0,       9.70,    10.76,     8.82,     8.38,    10.85
      185.0,       9.69,    10.74,     8.81,     8.36,    10.84
      186.0,       9.68,    10.73,     8.80,     8.35,    10.82
      187.0,       9.66,    10.71,     8.79,     8.33,    10.81
      188.0,       9.65,    10.69,     8.78,     8.32,    10.80
      189.0,       9.63,    10.68,     8.77,     8.31,    10.78
      190.0,       9.62,    10.66,     8.76,     8.29,    10.77
      191.0,       9.61,    10.64,     8.76,     8.28,    10.75
      192.0,       9.59,    10.63,     8.75,     8.26,    10.74
      193.0,       9.58,    10.61,     8.74,     8.25,    10.73
      194.0,       9.57,    10.60,     8.73,     8.24,    10.72
      195.0,       9.56,    10.58,     8.72,     8.22,    10.70
      196.0,       9.54,    10.56,     8.71,     8.21,    10.69
      197.0,       9.53,    10.55,     8.70,     8.19,    10.68
      198.0,       9.52,    10.53,     8.69,     8.18,    10.66
      199.0,       9.50,    10.52,     8.68,     8.17,    10.65
      200.0,       9.49,    10.50,     8.67,     8.15,    10.64
      201.0,       9.48,    10.49,     8.66,     8.14,    10.63
      202.0,       9.47,    10.47,     8.65,     8.13,    10.61
      203.0,       9.45,    10.46,     8.65,     8.11,    10.60
      204.0,       9.44,    10.44,     8.64,     8.10,    10.59
      205.0,       9.43,    10.43,     8.63,     8.09,    10.58
      206.0,       9.42,    10.42,     8.62,     8.07,    10.56
      207.0,       9.41,    10.40,     8.61,     8.06,    10.55
      208.0,       9.39,    10.39,     8.60,     8.05,    10.54
      209.0,       9.38,    10.37,     8.59,     8.03,    10.53
      210.0,       9.37,    10.36,     8.58,     8.02,    10.52
      211.0,       9.36,    10.35,     8.57,     8.01,    10.50
      212.0,       9.35,    10.33,     8.57,     8.00,    10.49
      213.0,       9.34,    10.32,     8.56,     7.98,    10.48
      214.0,       9.32,    10.31,     8.55,     7.97,    10.47
      215.0,       9.31,    10.29,     8.54,     7.96,    10.46
      216.0,       9.30,    10.28,     8.53,     7.94,    10.45
      217.0,       9.29,    10.27,     8.52,     7.93,    10.43
      218.0,       9.28,    10.25,     8.51,     7.92,    10.42
      219.0,       9.27,    10.24,     8.50,     7.91,    10.41
      220.0,       9.25,    10.23,     8.50,     7.89,    10.40
      221.0,       9.24,    10.21,     8.49,     7.88,    10.39
      222.0,       9.23,    10.20,     8.48,     7.87,    10.38
      223.0,       9.22,    10.19,     8.47,     7.86,    10.37
      224.0,       9.21,    10.18,     8.46,     7.85,    10.35
      225.0,       9.20,    10.16,     8.45,     7.83,    10.34
      226.0,       9.19,    10.15,     8.44,     7.82,    10.33
      227.0,       9.18,    10.14,     8.44,     7.81,    10.32
      228.0,       9.17,    10.13,     8.43,     7.80,    10.31
      229.0,       9.15,    10.12,     8.42,     7.78,    10.30
      230.0,       9.14,    10.10,     8.41,     7.77,    10.29
      231.0,       9.13,    10.09,     8.40,     7.76,    10.28
      232.0,       9.12,    10.08,     8.39,     7.75,    10.27
      233.0,       9.11,    10.07,     8.38,     7.74,    10.26
      234.0,       9.10,    10.05,     8.38,     7.72,    10.24
      235.0,       9.09,    10.04,     8.37,     7.71,    10.23
      236.0,       9.08,    10.03,     8.36,     7.70,    10.22
      237.0,       9.07,    10.02,     8.35,     7.69,    10.21
      238.0,       9.06,    10.01,     8.34,     7.68,    10.20
      239.0,       9.05,    10.00,     8.33,     7.67,    10.19
      240.0,       9.04,     9.98,     8.32,     7.65,    10.18
      241.0,       9.03,     9.97,     8.32,     7.64,    10.17
      242.0,       9.01,     9.96,     8.31,     7.63,    10.16
      243.0,       9.00,     9.95,     8.30,     7.62,    10.15
      244.0,       8.99,     9.94,     8.29,     7.61,    10.14
      245.0,       8.98,     9.93,     8.28,     7.60,    10.13
      246.0,       8.97,     9.92,     8.27,     7.58,    10.12
      247.0,       8.96,     9.91,     8.27,     7.57,    10.11
      248.0,       8.95,     9.89,     8.26,     7.56,    10.09
      249.0,       8.94,     9.88,     8.25,     7.55,    10.08
      250.0,       8.93,     9.87,     8.24,     7.54,    10.07
      251.0,       8.92,     9.86,     8.23,     7.53,    10.06
      252.0,       8.91,     9.85,     8.22,     7.51,    10.05
      253.0,       8.90,     9.84,     8.22,     7.50,    10.04
      254.0,       8.89,     9.83,     8.21,     7.49,    10.03
      255.0,       8.88,     9.82,     8.20,     7.48,    10.02
      256.0,       8.87,     9.81,     8.19,     7.47,    10.01
      257.0,       8.86,     9.80,     8.18,     7.46,    10.00
      258.0,       8.85,     9.78,     8.17,     7.45,     9.99
      259.0,       8.84,     9.77,     8.17,     7.44,     9.98
      260.0,       8.83,     9.76,     8.16,     7.42,     9.97
      261.0,       8.82,     9.75,     8.15,     7.41,     9.96
      262.0,       8.81,     9.74,     8.14,     7.40,     9.95
      263.0,       8.80,     9.73,     8.13,     7.39,     9.94
      264.0,       8.79,     9.72,     8.13,     7.38,     9.93
      265.0,       8.78,     9.71,     8.12,     7.37,     9.92
      266.0,       8.77,     9.70,     8.11,     7.36,     9.91
      267.0,       8.76,     9.69,     8.10,     7.35,     9.90
      268.0,       8.75,     9.68,     8.09,     7.34,     9.89
      269.0,       8.74,     9.67,     8.08,     7.33,     9.88
      270.0,       8.73,     9.66,     8.08,     7.31,     9.87
      271.0,       8.72,     9.65,     8.07,     7.30,     9.86
      272.0,       8.71,     9.64,     8.06,     7.29,     9.85
      273.0,       8.70,     9.63,     8.05,     7.28,     9.84
      274.0,       8.69,     9.62,     8.04,     7.27,     9.83
      275.0,       8.68,     9.61,     8.04,     7.26,     9.82
      276.0,       8.67,     9.60,     8.03,     7.25,     9.81
      277.0,       8.66,     9.59,     8.02,     7.24,     9.80
      278.0,       8.65,     9.58,     8.01,     7.23,     9.79
      279.0,       8.64,     9.57,     8.00,     7.22,     9.78
      280.0,       8.63,     9.56,     8.00,     7.21,     9.77
      281.0,       8.62,     9.55,     7.99,     7.19,     9.76
      282.0,       8.61,     9.54,     7.98,     7.18,     9.75
      283.0,       8.60,     9.53,     7.97,     7.17,     9.74
      284.0,       8.59,     9.52,     7.96,     7.16,     9.73
      285.0,       8.58,     9.51,     7.96,     7.15,     9.72
      286.0,       8.57,     9.50,     7.95,     7.14,     9.71
      287.0,       8.56,     9.49,     7.94,     7.13,     9.70
      288.0,       8.55,     9.48,     7.93,     7.12,     9.69
      289.0,       8.54,     9.47,     7.92,     7.11,     9.68
      290.0,       8.54,     9.46,     7.92,     7.10,     9.67
      291.0,       8.53,     9.45,     7.91,     7.09,     9.66
      292.0,       8.52,     9.44,     7.90,     7.08,     9.65
      293.0,       8.51,     9.43,     7.89,     7.07,     9.64
      294.0,       8.50,     9.42,     7.88,     7.06,     9.63
      295.0,       8.49,     9.41,     7.88,     7.05,     9.62
      296.0,       8.48,     9.40,     7.87,     7.04,     9.61
      297.0,       8.47,     9.39,     7.86,     7.03,     9.60
      298.0,       8.46,     9.38,     7.85,     7.02,     9.59
      299.0,       8.45,     9.37,     7.84,     7.00,     9.58
      300.0,       8.44,     9.36,     7.84,     6.99,     9.57
      301.0,       8.43,     9.35,     7.83,     6.98,     9.56
      302.0,       8.42,     9.34,     7.82,     6.97,     9.55
      303.0,       8.41,     9.33,     7.81,     6.96,     9.54
      304.0,       8.40,     9.32,     7.81,     6.95,     9.53
      305.0,       8.39,     9.31,     7.80,     6.94,     9.52
      306.0,       8.38,     9.30,     7.79,     6.93,     9.51
      307.0,       8.37,     9.29,     7.78,     6.92,     9.50
      308.0,       8.37,     9.28,     7.77,     6.91,     9.50
      309.0,       8.36,     9.27,     7.77,     6.90,     9.49
      310.0,       8.35,     9.26,     7.76,     6.89,     9.48
