Radius (km), Mean (m/s), NE (m/s), SE (m/s), SW (m/s), NW (m/s)
        0.0,       0.00,     0.00,     0.00,     0.00,     0.00
        1.0,       2.45,     2.44,     2.44,     2.44,     2.48
        2.0,       3.91,     3.90,     3.90,     3.90,     3.92
        3.0,       5.13,     5.13,     5.13,     5.13,     5.13
        4.0,       6.22,     6.23,     6.23,     6.23,     6.20
        5.0,       7.23,     7.24,     7.24,     7.24,     7.19
        6.0,       8.17,     8.19,     8.19,     8.19,     8.11
        7.0,       9.06,     9.09,     9.09,     9.09,     8.99
        8.0,       9.91,     9.94,     9.94,     9.94,     9.82
        9.0,      10.73,    10.77,    10.77,    10.77,    10.61
       10.0,      11.51,    11.56,    11.56,    11.56,    11.38
       11.0,      12.28,    12.33,    12.33,    12.33,    12.12
       12.0,      13.01,    13.07,    13.07,    13.07,    12.84
       13.0,      13.73,    13.80,    13.80,    13.80,    13.54
       14.0,      14.44,    14.51,    14.51,    14.51,    14.22
       15.0,      15.12,    15.20,    15.20,    15.20,    14.88
       16.0,      15.79,    15.88,    15.88,    15.88,    15.53
       17.0,      16.45,    16.54,    16.54,    16.54,    16.17
       18.0,      17.09,    17.19,    17.19,    17.19,    16.79
       19.0,      17.72,    17.83,    17.83,    17.83,    17.40
       20.0,      18.34,    18.46,    18.46,    18.46,    18.01
       21.0,      18.96,    19.08,    19.08,    19.08,    18.60
       22.0,      19.59,    19.72,    19.70,    19.71,    19.21
       23.0,      20.24,    20.39,    20.35,    20.38,    19.85
       24.0,      20.95,    21.13,    21.03,    21.09,    20.56
       25.0,      21.73,    21.94,    21.76,    21.88,    21.34
       26.0,      22.57,    22.82,    22.54,    22.72,    22.19
       27.0,      23.46,    23.76,    23.36,    23.61,    23.10
       28.0,      24.36,    24.71,    24.19,    24.51,    24.03
       29.0,      25.23,    25.62,    25.00,    25.38,    24.92
       30.0,      26.03,    26.46,    25.76,    26.17,    25.73
       31.0,      26.72,    27.16,    26.43,    26.86,    26.42
       32.0,      27.26,    27.71,    26.99,    27.40,    26.94
       33.0,      27.64,    28.07,    27.42,    27.79,    27.28
       34.0,      27.86,    28.26,    27.72,    28.02,    27.45
       35.0,      27.94,    28.29,    27.90,    28.12,    27.45
       36.0,      27.89,    28.18,    27.98,    28.09,    27.32
       37.0,      27.76,    27.99,    27.98,    27.99,    27.09
       38.0,      27.57,    27.74,    27.93,    27.83,    26.80
       39.0,      27.36,    27.46,    27.86,    27.64,    26.49
       40.0,      27.15,    27.19,    27.78,    27.46,    26.18
       41.0,      26.95,    26.92,    27.70,    27.28,    25.88
       42.0,      26.75,    26.67,    27.63,    27.11,    25.59
       43.0,      26.57,    26.44,    27.56,    26.95,    25.32
       44.0,      26.39,    26.21,    27.49,    26.79,    25.06
       45.0,      26.22,    25.99,    27.42,    26.64,    24.81
       46.0,      26.05,    25.78,    27.35,    26.49,    24.57
       47.0,      25.88,    25.57,    27.29,    26.35,    24.33
       48.0,      25.73,    25.37,    27.22,    26.21,    24.11
       49.0,      25.57,    25.18,    27.15,    26.07,    23.89
       50.0,      25.43,    25.00,    27.08,    25.94,    23.67
       51.0,      25.28,    24.82,    27.02,    25.81,    23.47
       52.0,      25.14,    24.65,    26.95,    25.69,    23.27
       53.0,      25.00,    24.49,    26.88,    25.57,    23.08
       54.0,      24.87,    24.33,    26.82,    25.45,    22.89
       55.0,      24.74,    24.17,    26.75,    25.34,    22.71
       56.0,      24.62,    24.02,    26.69,    25.22,    22.54
       57.0,      24.50,    23.88,    26.62,    25.12,    22.37
       58.0,      24.38,    23.74,    26.56,    25.01,    22.21
       59.0,      24.26,    23.60,    26.49,    24.91,    22.05
       60.0,      24.15,    23.47,    26.43,    24.81,    21.90
       61.0,      24.04,    23.35,    26.36,    24.71,    21.75
       62.0,      23.94,    23.22,    26.30,    24.61,    21.61
       63.0,      23.83,    23.11,    26.24,    24.52,    21.47
       64.0,      23.73,    22.99,    26.17,    24.43,    21.34
       65.0,      23.64,    22.88,    26.11,    24.34,    21.21
       66.0,      23.54,    22.77,    26.05,    24.26,    21.08
       67.0,      23.45,    22.67,    25.99,    24.17,    20.96
       68.0,      23.36,    22.57,    25.93,    24.09,    20.84
       69.0,      23.27,    22.47,    25.86,    24.01,    20.73
       70.0,      23.18,    22.38,    25.80,    23.93,    20.62
       71.0,      23.10,    22.29,    25.74,    23.85,    20.51
       72.0,      23.02,    22.20,    25.68,    23.78,    20.41
       73.0,      22.94,    22.11,    25.62,    23.71,    20.31
       74.0,      22.86,    22.03,    25.56,    23.64,    20.21
       75.0,      22.78,    21.95,    25.50,    23.57,    20.11
       76.0,      22.71,    21.87,    25.44,    23.50,    20.02
       77.0,      22.63,    21.79,    25.38,    23.43,    19.93
       78.0,      22.56,    21.71,    25.32,    23.37,    19.85
       79.0,      22.49,    21.64,    25.26,    23.30,    19.76
       80.0,      22.42,    21.57,    25.20,    23.24,    19.68
       81.0,      22.36,    21.50,    25.15,    23.18,    19.60
       82.0,      22.29,    21.44,    25.09,    23.12,    19.52
       83.0,      22.23,    21.37,    25.03,    23.06,    19.45
       84.0,      22.16,    21.31,    24.97,    23.00,    19.37
       85.0,      22.10,    21.25,    24.91,    22.95,    19.30
       86.0,      22.04,    21.19,    24.86,    22.89,    19.23
       87.0,      21.98,    21.13,    24.80,    22.84,    19.17
       88.0,      21.93,    21.07,    24.74,    22.78,    19.10
       89.0,      21.87,    21.02,    24.69,    22.73,    19.04
       90.0,      21.81,    20.96,    24.63,    22.68,    18.97
       91.0,      21.76,    20.91,    24.58,    22.63,    18.91
       92.0,      21.70,    20.86,    24.52,    22.58,    18.86
       93.0,      21.65,    20.81,    24.46,    22.53,    18.80
       94.0,      21.60,    20.76,    24.41,    22.48,    18.74
       95.0,      21.55,    20.71,    24.35,    22.44,    18.69
       96.0,      21.50,    20.66,    24.30,    22.39,    18.63
       97.0,      21.45,    20.62,    24.25,    22.35,    18.58
       98.0,      21.40,    20.57,    24.19,    22.30,    18.53
       99.0,      21.35,    20.53,    24.14,    22.26,    18.48
      100.0,      21.30,    20.48,    24.08,    22.21,    18.43
      101.0,      21.26,    20.44,    24.03,    22.17,    18.39
      102.0,      21.21,    20.40,    23.98,    22.13,    18.34
      103.0,      21.17,    20.36,    23.92,    22.09,    18.30
      104.0,      21.12,    20.32,    23.87,    22.05,    18.25
      105.0,      21.08,    20.28,    23.82,    22.01,    18.21
      106.0,      21.04,    20.24,    23.77,    21.97,    18.17
      107.0,      20.99,    20.20,    23.71,    21.93,    18.13
      108.0,      20.95,    20.17,    23.66,    21.89,    18.09
      109.0,      20.91,    20.13,    23.61,    21.85,    18.05
      110.0,      20.87,    20.09,    23.56,    21.81,    18.01
      111.0,      20.83,    20.06,    23.51,    21.78,    17.97
      112.0,      20.79,    20.02,    23.46,    21.74,    17.93
      113.0,      20.75,    19.99,    23.41,    21.70,    17.90
      114.0,      20.71,    19.96,    23.36,    21.67,    17.86
      115.0,      20.67,    19.92,    23.30,    21.63,    17.83
      116.0,      20.63,    19.89,    23.25,    21.60,    17.79
      117.0,      20.60,    19.86,    23.20,    21.56,    17.76
      118.0,      20.56,    19.83,    23.15,    21.53,    17.73
      119.0,      20.52,    19.80,    23.11,    21.50,    17.69
      120.0,      20.49,    19.77,    23.06,    21.46,    17.66
      121.0,      20.45,    19.73,    23.01,    21.43,    17.63
      122.0,      20.41,    19.70,    22.96,    21.40,    17.60
      123.0,      20.38,    19.68,    22.91,    21.36,    17.57
      124.0,      20.34,    19.65,    22.86,    21.33,    17.54
      125.0,      20.31,    19.62,    22.81,    21.30,    17.51
      126.0,      20.28,    19.59,    22.76,    21.27,    17.48
      127.0,      20.24,    19.56,    22.72,    21.24,    17.45
      128.0,      20.21,    19.53,    22.67,    21.21,    17.42
      129.0,      20.17,    19.50,    22.62,    21.18,    17.40
      130.0,      20.14,    19.48,    22.57,    21.15,    17.37
      131.0,      20.11,    19.45,    22.53,    21.12,    17.34
      132.0,      20.08,    19.42,    22.48,    21.09,    17.32
      133.0,      20.04,    19.40,    22.43,    21.06,    17.29
      134.0,      20.01,    19.37,    22.39,    21.03,    17.26
      135.0,      19.98,    19.34,    22.34,    21.00,    17.24
      136.0,      19.95,    19.32,    22.29,    20.97,    17.21
      137.0,      19.92,    19.29,    22.25,    20.94,    17.19
      138.0,      19.89,    19.27,    22.20,    20.91,    17.16
      139.0,      19.86,    19.24,    22.16,    20.88,    17.14
      140.0,      19.82,    19.22,    22.11,    20.85,    17.12
      141.0,      19.79,    19.19,    22.06,    20.83,    17.09
      142.0,      19.76,    19.17,    22.02,    20.80,    17.07
      143.0,      19.73,    19.14,    21.97,    20.77,    17.05
      144.0,      19.70,    19.12,    21.93,    20.74,    17.02
      145.0,      19.67,    19.10,    21.89,    20.71,    17.00
      146.0,      19.64,    19.07,    21.84,    20.69,    16.98
      147.0,      19.62,    19.05,    21.80,    20.66,    16.96
      148.0,      19.59,    19.02,    21.75,    20.63,    16.93
      149.0,      19.56,    19.00,    21.71,    20.61,    16.91
      150.0,      19.53,    18.98,    21.67,    20.58,    16.89
      151.0,      19.50,    18.95,    21.62,    20.55,    16.87
      152.0,      19.47,    18.93,    21.58,    20.53,    16.85
      153.0,      19.44,    18.91,    21.53,    20.50,    16.83
      154.0,      19.41,    18.89,    21.49,    20.47,    16.81
      155.0,      19.39,    18.86,    21.45,    20.45,    16.79
      156.0,      19.36,    18.84,    21.41,    20.42,    16.77
      157.0,      19.33,    18.82,    21.36,    20.40,    16.74
      158.0,      19.30,    18.80,    21.32,    20.37,    16.72
      159.0,      19.28,    18.77,    21.28,    20.35,    16.70
      160.0,      19.25,    18.75,    21.24,    20.32,    16.68
      161.0,      19.22,    18.73,    21.20,    20.29,    16.66
      162.0,      19.19,    18.71,    21.15,    20.27,    16.65
      163.0,      19.17,    18.69,    21.11,    20.24,    16.63
      164.0,      19.14,    18.66,    21.07,    20.22,    16.61
      165.0,      19.11,    18.64,    21.03,    20.19,    16.59
      166.0,      19.09,    18.62,    20.99,    20.17,    16.57
      167.0,      19.06,    18.60,    20.95,    20.14,    16.55
      168.0,      19.03,    18.58,    20.91,    20.12,    16.53
      169.0,      19.01,    18.56,    20.87,    20.09,    16.51
      170.0,      18.98,    18.54,    20.83,    20.07,    16.49
      171.0,      18.95,    18.52,    20.79,    20.05,    16.47
      172.0,      18.93,    18.49,    20.74,    20.02,    16.45
      173.0,      18.90,    18.47,    20.70,    20.00,    16.44
      174.0,      18.88,    18.45,    20.67,    19.97,    16.42
      175.0,      18.85,    18.43,    20.63,    19.95,    16.40
      176.0,      18.83,    18.41,    20.59,    19.92,    16.38
      177.0,      18.80,    18.39,    20.55,    19.90,    16.36
      178.0,      18.77,    18.37,    20.51,    19.88,    16.35
      179.0,      18.75,    18.35,    20.47,    19.85,    16.33
      180.0,      18.72,    18.33,    20.43,    19.83,    16.31
      181.0,      18.70,    18.31,    20.39,    19.81,    16.29
      182.0,      18.67,    18.29,    20.35,    19.78,    16.27
      183.0,      18.65,    18.27,    20.31,    19.76,    16.26
      184.0,      18.62,    18.25,    20.27,    19.73,    16.24
      185.0,      18.60,    18.23,    20.24,    19.71,    16.22
      186.0,      18.57,    18.21,    20.20,    19.69,    16.20
      187.0,      18.55,    18.19,    20.16,    19.66,    16.19
      188.0,      18.52,    18.17,    20.12,    19.64,    16.17
      189.0,      18.50,    18.15,    20.08,    19.62,    16.15
      190.0,      18.48,    18.13,    20.05,    19.59,    16.13
      191.0,      18.45,    18.11,    20.01,    19.57,    16.12
      192.0,      18.43,    18.09,    19.97,    19.55,    16.10
      193.0,      18.40,    18.07,    19.94,    19.53,    16.08
      194.0,      18.38,    18.05,    19.90,    19.50,    16.07
      195.0,      18.35,    18.03,    19.86,    19.48,    16.05
      196.0,      18.33,    18.01,    19.82,    19.46,    16.03
      197.0,      18.31,    17.99,    19.79,    19.43,    16.02
      198.0,      18.28,    17.97,    19.75,    19.41,    16.00
      199.0,      18.26,    17.95,    19.72,    19.39,    15.98
      200.0,      18.23,    17.93,    19.68,    19.37,    15.97
      201.0,      18.21,    17.91,    19.64,    19.34,    15.95
      202.0,      18.19,    17.89,    19.61,    19.32,    15.93
      203.0,      18.16,    17.87,    19.57,    19.30,    15.92
      204.0,      18.14,    17.85,    19.54,    19.27,    15.90
      205.0,      18.12,    17.83,    19.50,    19.25,    15.88
      206.0,      18.09,    17.81,    19.46,    19.23,    15.87
      207.0,      18.07,    17.79,    19.43,    19.21,    15.85
      208.0,      18.05,    17.77,    19.39,    19.18,    15.83
      209.0,      18.02,    17.75,    19.36,    19.16,    15.82
      210.0,      18.00,    17.73,    19.32,    19.14,    15.80
      211.0,      17.98,    17.71,    19.29,    19.12,    15.78
      212.0,      17.95,    17.69,    19.25,    19.10,    15.77
      213.0,      17.93,    17.67,    19.22,    19.07,    15.75
      214.0,      17.91,    17.66,    19.18,    19.05,    15.74
      215.0,      17.88,    17.64,    19.15,    19.03,    15.72
      216.0,      17.86,    17.62,    19.12,    19.01,    15.70
      217.0,      17.84,    17.60,    19.08,    18.99,    15.69
      218.0,      17.82,    17.58,    19.05,    18.96,    15.67
      219.0,      17.79,    17.56,    19.01,    18.94,    15.66
      220.0,      17.77,    17.54,    18.98,    18.92,    15.64
      221.0,      17.75,    17.52,    18.95,    18.90,    15.62
      222.0,      17.72,    17.50,    18.91,    18.88,    15.61
      223.0,      17.70,    17.48,    18.88,    18.85,    15.59
      224.0,      17.68,    17.47,    18.85,    18.83,    15.58
      225.0,      17.66,    17.45,    18.81,    18.81,    15.56
      226.0,      17.63,    17.43,    18.78,    18.79,    15.54
      227.0,      17.61,    17.41,    18.75,    18.77,    15.53
      228.0,      17.59,    17.39,    18.71,    18.75,    15.51
      229.0,      17.57,    17.37,    18.68,    18.72,    15.50
      230.0,      17.55,    17.35,    18.65,    18.70,    15.48
      231.0,      17.52,    17.33,    18.62,    18.68,    15.46
      232.0,      17.50,    17.31,    18.58,    18.66,    15.45
      233.0,      17.48,    17.30,    18.55,    18.64,    15.43
      234.0,      17.46,    17.28,    18.52,    18.62,    15.42
      235.0,      17.44,    17.26,    18.49,    18.59,    15.40
      236.0,      17.41,    17.24,    18.45,    18.57,    15.39
      237.0,      17.39,    17.22,    18.42,    18.55,    15.37
      238.0,      17.37,    17.20,    18.39,    18.53,    15.36
      239.0,      17.35,    17.18,    18.36,    18.51,    15.34
      240.0,      17.33,    17.17,    18.33,    18.49,    15.32
      241.0,      17.30,    17.15,    18.30,    18.47,    15.31
      242.0,      17.28,    17.13,    18.26,    18.45,    15.29
      243.0,      17.26,    17.11,    18.23,    18.42,    15.28
      244.0,      17.24,    17.09,    18.20,    18.40,    15.26
      245.0,      17.22,    17.07,    18.17,    18.38,    15.25
      246.0,      17.20,    17.06,    18.14,    18.36,    15.23
      247.0,      17.18,    17.04,    18.11,    18.34,    15.22
      248.0,      17.15,    17.02,    18.08,    18.32,    15.20
      249.0,      17.13,    17.00,    18.05,    18.30,    15.19
      250.0,      17.11,    16.98,    18.02,    18.28,    15.17
      251.0,      17.09,    16.96,    17.99,    18.26,    15.16
      252.0,      17.07,    16.95,    17.96,    18.23,    15.14
      253.0,      17.05,    16.93,    17.93,    18.21,    15.12
      254.0,      17.03,    16.91,    17.90,    18.19,    15.11
      255.0,      17.01,    16.89,    17.87,    18.17,    15.09
      256.0,      16.98,    16.87,    17.84,    18.15,    15.08
      257.0,      16.96,    16.85,    17.81,    18.13,    15.06
      258.0,      16.94,    16.84,    17.78,    18.11,    15.05
      259.0,      16.92,    16.82,    17.75,    18.09,    15.03
      260.0,      16.90,    16.80,    17.72,    18.07,    15.02
      261.0,      16.88,    16.78,    17.69,    18.05,    15.00
      262.0,      16.86,    16.76,    17.66,    18.03,    14.99
      263.0,      16.84,    16.75,    17.63,    18.01,    14.97
      264.0,      16.82,    16.73,    17.60,    17.98,    14.96
      265.0,      16.80,    16.71,    17.57,    17.96,    14.94
      266.0,      16.78,    16.69,    17.54,    17.94,    14.93
      267.0,      16.76,    16.67,    17.51,    17.92,    14.91
      268.0,      16.74,    16.66,    17.48,    17.90,    14.90
      269.0,      16.71,    16.64,    17.45,    17.88,    14.88
      270.0,      16.69,    16.62,    17.43,    17.86,    14.87
      271.0,      16.67,    16.60,    17.40,    17.84,    14.85
      272.0,      16.65,    16.58,    17.37,    17.82,    14.84
      273.0,      16.63,    16.57,    17.34,    17.80,    14.82
      274.0,      16.61,    16.55,    17.31,    17.78,    14.81
      275.0,      16.59,    16.53,    17.28,    17.76,    14.79
      276.0,      16.57,    16.51,    17.25,    17.74,    14.78
      277.0,      16.55,    16.50,    17.23,    17.72,    14.76
      278.0,      16.53,    16.48,    17.20,    17.70,    14.75
      279.0,      16.51,    16.46,    17.17,    17.68,    14.74
      280.0,      16.49,    16.44,    17.14,    17.66,    14.72
      281.0,      16.47,    16.43,    17.12,    17.64,    14.71
      282.0,      16.45,    16.41,    17.09,    17.62,    14.69
      283.0,      16.43,    16.39,    17.06,    17.60,    14.68
      284.0,      16.41,    16.37,    17.03,    17.58,    14.66
      285.0,      16.39,    16.35,    17.00,    17.56,    14.65
      286.0,      16.37,    16.34,    16.98,    17.54,    14.63
      287.0,      16.35,    16.32,    16.95,    17.52,    14.62
      288.0,      16.33,    16.30,    16.92,    17.50,    14.60
      289.0,      16.31,    16.28,    16.90,    17.48,    14.59
      290.0,      16.29,    16.27,    16.87,    17.46,    14.57
      291.0,      16.27,    16.25,    16.84,    17.44,    14.56
      292.0,      16.25,    16.23,    16.81,    17.42,    14.54
      293.0,      16.23,    16.21,    16.79,    17.40,    14.53
      294.0,      16.21,    16.20,    16.76,    17.38,    14.52
      295.0,      16.19,    16.18,    16.73,    17.36,    14.50
      296.0,      16.17,    16.16,    16.71,    17.34,    14.49
      297.0,      16.15,    16.15,    16.68,    17.32,    14.47
      298.0,      16.13,    16.13,    16.66,    17.30,    14.46
      299.0,      16.11,    16.11,    16.63,    17.28,    14.44
      300.0,      16.10,    16.09,    16.60,    17.26,    14.43
      301.0,      16.08,    16.08,    16.58,    17.24,    14.41
      302.0,      16.06,    16.06,    16.55,    17.22,    14.40
      303.0,      16.04,    16.04,    16.52,    17.20,    14.39
      304.0,      16.02,    16.02,    16.50,    17.18,    14.37
      305.0,      16.00,    16.01,    16.47,    17.16,    14.36
      306.0,      15.98,    15.99,    16.45,    17.14,    14.34
      307.0,      15.96,    15.97,    16.42,    17.12,    14.33
      308.0,      15.94,    15.96,    16.40,    17.10,    14.31
      309.0,      15.92,    15.94,    16.37,    17.08,    14.30
      310.0,      15.90,    15.92,    16.34,    17.06,    14.28
