Radius (km), Mean (m/s), NE (m/s), SE (m/s), SW (m/s), NW (m/s)
        0.0,       0.00,     0.00,     0.00,     0.00,     0.00
        1.0,       3.05,     2.98,     3.11,     3.11,     2.98
        2.0,       5.13,     5.11,     5.14,     5.14,     5.11
        3.0,       6.95,     7.00,     6.89,     6.89,     7.00
        4.0,       8.62,     8.76,     8.49,     8.49,     8.76
        5.0,      10.20,    10.42,     9.99,     9.98,    10.42
        6.0,      11.75,    12.07,    11.45,    11.42,    12.06
        7.0,      13.33,    13.76,    12.94,    12.86,    13.75
        8.0,      15.01,    15.58,    14.52,    14.38,    15.56
        9.0,      16.84,    17.56,    16.23,    16.01,    17.53
       10.0,      18.81,    19.72,    18.07,    17.78,    19.67
       11.0,      20.90,    22.00,    20.00,    19.66,    21.95
       12.0,      23.03,    24.32,    21.96,    21.58,    24.28
       13.0,      25.10,    26.57,    23.84,    23.47,    26.54
       14.0,      27.01,    28.63,    25.56,    25.22,    28.61
       15.0,      28.64,    30.39,    27.03,    26.75,    30.39
       16.0,      29.93,    31.77,    28.18,    27.97,    31.79
       17.0,      30.83,    32.73,    28.97,    28.85,    32.76
       18.0,      31.33,    33.25,    29.41,    29.36,    33.29
       19.0,      31.47,    33.39,    29.53,    29.52,    33.43
       20.0,      31.30,    33.20,    29.38,    29.40,    33.23
       21.0,      30.91,    32.77,    29.04,    29.06,    32.78
       22.0,      30.38,    32.19,    28.58,    28.57,    32.18
       23.0,      29.78,    31.54,    28.06,    28.00,    31.51
       24.0,      29.16,    30.88,    27.54,    27.41,    30.82
       25.0,      28.56,    30.24,    27.03,    26.84,    30.15
       26.0,      28.00,    29.64,    26.55,    26.29,    29.52
       27.0,      27.46,    29.06,    26.09,    25.77,    28.92
       28.0,      26.95,    28.51,    25.65,    25.27,    28.35
       29.0,      26.45,    27.98,    25.23,    24.79,    27.80
       30.0,      25.97,    27.47,    24.82,    24.32,    27.27
       31.0,      25.51,    26.98,    24.43,    23.87,    26.76
       32.0,      25.07,    26.51,    24.05,    23.44,    26.27
       33.0,      24.64,    26.06,    23.69,    23.02,    25.80
       34.0,      24.23,    25.62,    23.34,    22.61,    25.34
       35.0,      23.83,    25.20,    23.01,    22.22,    24.90
       36.0,      23.45,    24.80,    22.69,    21.84,    24.48
       37.0,      23.08,    24.41,    22.38,    21.47,    24.08
       38.0,      22.73,    24.04,    22.08,    21.11,    23.69
       39.0,      22.39,    23.68,    21.79,    20.77,    23.32
       40.0,      22.06,    23.33,    21.51,    20.44,    22.96
       41.0,      21.74,    23.00,    21.25,    20.12,    22.61
       42.0,      21.44,    22.68,    20.99,    19.81,    22.28
       43.0,      21.14,    22.37,    20.74,    19.51,    21.96
       44.0,      20.86,    22.07,    20.50,    19.22,    21.65
       45.0,      20.59,    21.79,    20.27,    18.94,    21.35
       46.0,      20.32,    21.51,    20.05,    18.67,    21.06
       47.0,      20.07,    21.24,    19.84,    18.40,    20.79
       48.0,      19.82,    20.99,    19.63,    18.15,    20.52
       49.0,      19.59,    20.74,    19.44,    17.90,    20.27
       50.0,      19.36,    20.51,    19.25,    17.67,    20.02
       51.0,      19.14,    20.28,    19.06,    17.44,    19.79
       52.0,      18.93,    20.06,    18.89,    17.21,    19.56
       53.0,      18.72,    19.85,    18.71,    17.00,    19.34
       54.0,      18.53,    19.64,    18.55,    16.79,    19.13
       55.0,      18.34,    19.45,    18.39,    16.59,    18.92
       56.0,      18.15,    19.26,    18.24,    16.39,    18.73
       57.0,      17.98,    19.07,    18.09,    16.21,    18.54
       58.0,      17.81,    18.90,    17.95,    16.02,    18.35
       59.0,      17.64,    18.73,    17.81,    15.85,    18.18
       60.0,      17.48,    18.56,    17.68,    15.68,    18.01
       61.0,      17.33,    18.41,    17.55,    15.51,    17.85
       62.0,      17.18,    18.25,    17.43,    15.35,    17.69
       63.0,      17.04,    18.11,    17.31,    15.20,    17.54
       64.0,      16.90,    17.97,    17.19,    15.05,    17.39
       65.0,      16.77,    17.83,    17.08,    14.90,    17.25
       66.0,      16.64,    17.70,    16.97,    14.76,    17.11
       67.0,      16.51,    17.57,    16.87,    14.62,    16.98
       68.0,      16.39,    17.45,    16.77,    14.49,    16.85
       69.0,      16.27,    17.33,    16.67,    14.36,    16.73
       70.0,      16.16,    17.21,    16.58,    14.24,    16.61
       71.0,      16.05,    17.10,    16.49,    14.12,    16.50
       72.0,      15.95,    17.00,    16.40,    14.00,    16.39
       73.0,      15.85,    16.89,    16.32,    13.89,    16.28
       74.0,      15.75,    16.79,    16.24,    13.78,    16.18
       75.0,      15.65,    16.70,    16.16,    13.68,    16.08
       76.0,      15.56,    16.60,    16.08,    13.57,    15.98
       77.0,      15.47,    16.51,    16.01,    13.48,    15.89
       78.0,      15.39,    16.43,    15.93,    13.38,    15.80
       79.0,      15.30,    16.34,    15.86,    13.29,    15.72
       80.0,      15.22,    16.26,    15.80,    13.20,    15.63
       81.0,      15.14,    16.18,    15.73,    13.11,    15.55
       82.0,      15.07,    16.11,    15.67,    13.02,    15.47
       83.0,      14.99,    16.03,    15.61,    12.94,    15.40
       84.0,      14.92,    15.96,    15.55,    12.86,    15.32
       85.0,      14.85,    15.89,    15.49,    12.78,    15.25
       86.0,      14.79,    15.83,    15.43,    12.71,    15.18
       87.0,      14.72,    15.76,    15.38,    12.63,    15.12
       88.0,      14.66,    15.70,    15.33,    12.56,    15.05
       89.0,      14.60,    15.64,    15.28,    12.49,    14.99
       90.0,      14.54,    15.58,    15.23,    12.43,    14.93
       91.0,      14.48,    15.52,    15.18,    12.36,    14.87
       92.0,      14.43,    15.46,    15.13,    12.30,    14.81
       93.0,      14.37,    15.41,    15.08,    12.24,    14.76
       94.0,      14.32,    15.36,    15.04,    12.18,    14.71
       95.0,      14.27,    15.31,    15.00,    12.12,    14.65
       96.0,      14.22,    15.26,    14.95,    12.06,    14.60
       97.0,      14.17,    15.21,    14.91,    12.01,    14.55
       98.0,      14.12,    15.16,    14.87,    11.95,    14.51
       99.0,      14.08,    15.12,    14.83,    11.90,    14.46
      100.0,      14.03,    15.07,    14.80,    11.85,    14.42
      101.0,      13.99,    15.03,    14.76,    11.80,    14.37
      102.0,      13.95,    14.99,    14.72,    11.76,    14.33
      103.0,      13.91,    14.94,    14.69,    11.71,    14.29
      104.0,      13.87,    14.90,    14.65,    11.66,    14.25
      105.0,      13.83,    14.87,    14.62,    11.62,    14.21
      106.0,      13.79,    14.83,    14.59,    11.58,    14.17
      107.0,      13.75,    14.79,    14.55,    11.54,    14.13
      108.0,      13.72,    14.76,    14.52,    11.50,    14.10
      109.0,      13.68,    14.72,    14.49,    11.46,    14.06
      110.0,      13.65,    14.69,    14.46,    11.42,    14.03
      111.0,      13.61,    14.65,    14.43,    11.38,    13.99
      112.0,      13.58,    14.62,    14.40,    11.34,    13.96
      113.0,      13.55,    14.59,    14.38,    11.31,    13.93
      114.0,      13.52,    14.56,    14.35,    11.27,    13.90
      115.0,      13.49,    14.53,    14.32,    11.24,    13.87
      116.0,      13.46,    14.50,    14.30,    11.20,    13.84
      117.0,      13.43,    14.47,    14.27,    11.17,    13.81
      118.0,      13.40,    14.44,    14.24,    11.14,    13.78
      119.0,      13.37,    14.41,    14.22,    11.11,    13.75
      120.0,      13.34,    14.38,    14.19,    11.08,    13.72
      121.0,      13.32,    14.35,    14.17,    11.05,    13.70
      122.0,      13.29,    14.33,    14.15,    11.02,    13.67
      123.0,      13.27,    14.30,    14.12,    10.99,    13.64
      124.0,      13.24,    14.28,    14.10,    10.96,    13.62
      125.0,      13.21,    14.25,    14.08,    10.94,    13.59
      126.0,      13.19,    14.23,    14.05,    10.91,    13.57
      127.0,      13.17,    14.20,    14.03,    10.89,    13.54
      128.0,      13.14,    14.18,    14.01,    10.86,    13.52
      129.0,      13.12,    14.16,    13.99,    10.84,    13.50
      130.0,      13.10,    14.13,    13.97,    10.81,    13.48
      131.0,      13.07,    14.11,    13.95,    10.79,    13.45
      132.0,      13.05,    14.09,    13.93,    10.76,    13.43
      133.0,      13.03,    14.07,    13.91,    10.74,    13.41
      134.0,      13.01,    14.04,    13.89,    10.72,    13.39
      135.0,      12.99,    14.02,    13.87,    10.70,    13.37
      136.0,      12.97,    14.00,    13.85,    10.67,    13.35
      137.0,      12.95,    13.98,    13.83,    10.65,    13.33
      138.0,      12.93,    13.96,    13.81,    10.63,    13.31
      139.0,      12.91,    13.94,    13.79,    10.61,    13.29
      140.0,      12.89,    13.92,    13.77,    10.59,    13.27
      141.0,      12.87,    13.90,    13.76,    10.57,    13.25
      142.0,      12.85,    13.88,    13.74,    10.55,    13.23
      143.0,      12.83,    13.86,    13.72,    10.53,    13.21
      144.0,      12.81,    13.84,    13.70,    10.51,    13.19
      145.0,      12.80,    13.83,    13.68,    10.50,    13.17
      146.0,      12.78,    13.81,    13.67,    10.48,    13.16
      147.0,      12.76,    13.79,    13.65,    10.46,    13.14
      148.0,      12.74,    13.77,    13.63,    10.44,    13.12
      149.0,      12.72,    13.75,    13.62,    10.42,    13.10
      150.0,      12.71,    13.74,    13.60,    10.41,    13.09
      151.0,      12.69,    13.72,    13.58,    10.39,    13.07
      152.0,      12.67,    13.70,    13.57,    10.37,    13.05
      153.0,      12.66,    13.68,    13.55,    10.36,    13.04
      154.0,      12.64,    13.67,    13.53,    10.34,    13.02
      155.0,      12.62,    13.65,    13.52,    10.33,    13.00
      156.0,      12.61,    13.63,    13.50,    10.31,    12.99
      157.0,      12.59,    13.62,    13.49,    10.29,    12.97
      158.0,      12.58,    13.60,    13.47,    10.28,    12.95
      159.0,      12.56,    13.58,    13.45,    10.26,    12.94
      160.0,      12.54,    13.57,    13.44,    10.25,    12.92
      161.0,      12.53,    13.55,    13.42,    10.23,    12.91
      162.0,      12.51,    13.54,    13.41,    10.22,    12.89
      163.0,      12.50,    13.52,    13.39,    10.20,    12.88
      164.0,      12.48,    13.50,    13.38,    10.19,    12.86
      165.0,      12.47,    13.49,    13.36,    10.18,    12.85
      166.0,      12.45,    13.47,    13.35,    10.16,    12.83
      167.0,      12.44,    13.46,    13.33,    10.15,    12.82
      168.0,      12.42,    13.44,    13.32,    10.13,    12.80
      169.0,      12.41,    13.43,    13.30,    10.12,    12.79
      170.0,      12.39,    13.41,    13.29,    10.11,    12.77
      171.0,      12.38,    13.40,    13.27,    10.09,    12.76
      172.0,      12.37,    13.38,    13.26,    10.08,    12.74
      173.0,      12.35,    13.37,    13.24,    10.07,    12.73
      174.0,      12.34,    13.35,    13.23,    10.05,    12.71
      175.0,      12.32,    13.34,    13.22,    10.04,    12.70
      176.0,      12.31,    13.32,    13.20,    10.03,    12.69
      177.0,      12.30,    13.31,    13.19,    10.02,    12.67
      178.0,      12.28,    13.29,    13.17,    10.00,    12.66
      179.0,      12.27,    13.28,    13.16,     9.99,    12.64
      180.0,      12.25,    13.26,    13.14,     9.98,    12.63
      181.0,      12.24,    13.25,    13.13,     9.97,    12.62
      182.0,      12.23,    13.23,    13.12,     9.95,    12.60
      183.0,      12.21,    13.22,    13.10,     9.94,    12.59
      184.0,      12.20,    13.21,    13.09,     9.93,    12.57
      185.0,      12.19,    13.19,    13.08,     9.92,    12.56
      186.0,      12.17,    13.18,    13.06,     9.91,    12.55
      187.0,      12.16,    13.16,    13.05,     9.89,    12.53
      188.0,      12.15,    13.15,    13.03,     9.88,    12.52
      189.0,      12.13,    13.14,    13.02,     9.87,    12.51
      190.0,      12.12,    13.12,    13.01,     9.86,    12.49
      191.0,      12.11,    13.11,    12.99,     9.85,    12.48
      192.0,      12.09,    13.09,    12.98,     9.84,    12.47
      193.0,      12.08,    13.08,    12.97,     9.83,    12.45
      194.0,      12.07,    13.07,    12.95,     9.81,    12.44
      195.0,      12.06,    13.05,    12.94,     9.80,    12.43
      196.0,      12.04,    13.04,    12.93,     9.79,    12.41
      197.0,      12.03,    13.03,    12.91,     9.78,    12.40
      198.0,      12.02,    13.01,    12.90,     9.77,    12.39
      199.0,      12.00,    13.00,    12.89,     9.76,    12.38
      200.0,      11.99,    12.98,    12.87,     9.75,    12.36
      201.0,      11.98,    12.97,    12.86,     9.74,    12.35
      202.0,      11.97,    12.96,    12.85,     9.73,    12.34
      203.0,      11.95,    12.94,    12.83,     9.72,    12.32
      204.0,      11.94,    12.93,    12.82,     9.70,    12.31
      205.0,      11.93,    12.92,    12.81,     9.69,    12.30
      206.0,      11.92,    12.90,    12.79,     9.68,    12.29
      207.0,      11.90,    12.89,    12.78,     9.67,    12.27
      208.0,      11.89,    12.88,    12.77,     9.66,    12.26
      209.0,      11.88,    12.86,    12.75,     9.65,    12.25
      210.0,      11.87,    12.85,    12.74,     9.64,    12.24
      211.0,      11.85,    12.84,    12.73,     9.63,    12.22
      212.0,      11.84,    12.82,    12.71,     9.62,    12.21
      213.0,      11.83,    12.81,    12.70,     9.61,    12.20
      214.0,      11.82,    12.80,    12.69,     9.60,    12.19
      215.0,      11.81,    12.79,    12.68,     9.59,    12.17
      216.0,      11.79,    12.77,    12.66,     9.58,    12.16
      217.0,      11.78,    12.76,    12.65,     9.57,    12.15
      218.0,      11.77,    12.75,    12.64,     9.56,    12.14
      219.0,      11.76,    12.73,    12.62,     9.55,    12.12
      220.0,      11.75,    12.72,    12.61,     9.54,    12.11
      221.0,      11.73,    12.71,    12.60,     9.53,    12.10
      222.0,      11.72,    12.69,    12.59,     9.52,    12.09
      223.0,      11.71,    12.68,    12.57,     9.51,    12.07
      224.0,      11.70,    12.67,    12.56,     9.50,    12.06
      225.0,      11.69,    12.66,    12.55,     9.49,    12.05
      226.0,      11.67,    12.64,    12.53,     9.48,    12.04
      227.0,      11.66,    12.63,    12.52,     9.47,    12.02
      228.0,      11.65,    12.62,    12.51,     9.46,    12.01
      229.0,      11.64,    12.60,    12.50,     9.45,    12.00
      230.0,      11.63,    12.59,    12.48,     9.44,    11.99
      231.0,      11.61,    12.58,    12.47,     9.43,    11.98
      232.0,      11.60,    12.57,    12.46,     9.42,    11.96
      233.0,      11.59,    12.55,    12.45,     9.41,    11.95
      234.0,      11.58,    12.54,    12.43,     9.40,    11.94
      235.0,      11.57,    12.53,    12.42,     9.39,    11.93
      236.0,      11.55,    12.52,    12.41,     9.38,    11.92
      237.0,      11.54,    12.50,    12.40,     9.37,    11.90
      238.0,      11.53,    12.49,    12.38,     9.36,    11.89
      239.0,      11.52,    12.48,    12.37,     9.35,    11.88
      240.0,      11.51,    12.47,    12.36,     9.34,    11.87
      241.0,      11.50,    12.45,    12.35,     9.33,    11.86
      242.0,      11.48,    12.44,    12.33,     9.32,    11.84
      243.0,      11.47,    12.43,    12.32,     9.31,    11.83
      244.0,      11.46,    12.41,    12.31,     9.30,    11.82
      245.0,      11.45,    12.40,    12.30,     9.29,    11.81
      246.0,      11.44,    12.39,    12.28,     9.28,    11.80
      247.0,      11.43,    12.38,    12.27,     9.27,    11.78
      248.0,      11.42,    12.37,    12.26,     9.26,    11.77
      249.0,      11.40,    12.35,    12.25,     9.26,    11.76
      250.0,      11.39,    12.34,    12.24,     9.25,    11.75
      251.0,      11.38,    12.33,    12.22,     9.24,    11.74
      252.0,      11.37,    12.32,    12.21,     9.23,    11.72
      253.0,      11.36,    12.30,    12.20,     9.22,    11.71
      254.0,      11.35,    12.29,    12.19,     9.21,    11.70
      255.0,      11.34,    12.28,    12.17,     9.20,    11.69
      256.0,      11.32,    12.27,    12.16,     9.19,    11.68
      257.0,      11.31,    12.25,    12.15,     9.18,    11.67
      258.0,      11.30,    12.24,    12.14,     9.17,    11.65
      259.0,      11.29,    12.23,    12.13,     9.16,    11.64
      260.0,      11.28,    12.22,    12.11,     9.15,    11.63
      261.0,      11.27,    12.20,    12.10,     9.14,    11.62
      262.0,      11.26,    12.19,    12.09,     9.13,    11.61
      263.0,      11.24,    12.18,    12.08,     9.12,    11.60
      264.0,      11.23,    12.17,    12.06,     9.12,    11.58
      265.0,      11.22,    12.16,    12.05,     9.11,    11.57
      266.0,      11.21,    12.14,    12.04,     9.10,    11.56
      267.0,      11.20,    12.13,    12.03,     9.09,    11.55
      268.0,      11.19,    12.12,    12.02,     9.08,    11.54
      269.0,      11.18,    12.11,    12.00,     9.07,    11.53
      270.0,      11.17,    12.09,    11.99,     9.06,    11.51
      271.0,      11.15,    12.08,    11.98,     9.05,    11.50
      272.0,      11.14,    12.07,    11.97,     9.04,    11.49
      273.0,      11.13,    12.06,    11.96,     9.03,    11.48
      274.0,      11.12,    12.05,    11.94,     9.02,    11.47
      275.0,      11.11,    12.03,    11.93,     9.01,    11.46
      276.0,      11.10,    12.02,    11.92,     9.01,    11.45
      277.0,      11.09,    12.01,    11.91,     9.00,    11.43
      278.0,      11.08,    12.00,    11.90,     8.99,    11.42
      279.0,      11.07,    11.99,    11.88,     8.98,    11.41
      280.0,      11.05,    11.97,    11.87,     8.97,    11.40
      281.0,      11.04,    11.96,    11.86,     8.96,    11.39
      282.0,      11.03,    11.95,    11.85,     8.95,    11.38
      283.0,      11.02,    11.94,    11.84,     8.94,    11.37
      284.0,      11.01,    11.93,    11.83,     8.93,    11.35
      285.0,      11.00,    11.91,    11.81,     8.92,    11.34
      286.0,      10.99,    11.90,    11.80,     8.91,    11.33
      287.0,      10.98,    11.89,    11.79,     8.91,    11.32
      288.0,      10.97,    11.88,    11.78,     8.90,    11.31
      289.0,      10.95,    11.87,    11.77,     8.89,    11.30
      290.0,      10.94,    11.85,    11.75,     8.88,    11.29
      291.0,      10.93,    11.84,    11.74,     8.87,    11.27
      292.0,      10.92,    11.83,    11.73,     8.86,    11.26
      293.0,      10.91,    11.82,    11.72,     8.85,    11.25
      294.0,      10.90,    11.81,    11.71,     8.84,    11.24
      295.0,      10.89,    11.80,    11.70,     8.83,    11.23
      296.0,      10.88,    11.78,    11.68,     8.83,    11.22
      297.0,      10.87,    11.77,    11.67,     8.82,    11.21
      298.0,      10.86,    11.76,    11.66,     8.81,    11.20
      299.0,      10.85,    11.75,    11.65,     8.80,    11.18
      300.0,      10.83,    11.74,    11.64,     8.79,    11.17
      301.0,      10.82,    11.73,    11.63,     8.78,    11.16
      302.0,      10.81,    11.71,    11.61,     8.77,    11.15
      303.0,      10.80,    11.70,    11.60,     8.76,    11.14
      304.0,      10.79,    11.69,    11.59,     8.76,    11.13
      305.0,      10.78,    11.68,    11.58,     8.75,    11.12
      306.0,      10.77,    11.67,    11.57,     8.74,    11.11
      307.0,      10.76,    11.65,    11.56,     8.73,    11.10
      308.0,      10.75,    11.64,    11.54,     8.72,    11.08
      309.0,      10.74,    11.63,    11.53,     8.71,    11.07
      310.0,      10.73,    11.62,    11.52,     8.70,    11.06
