Radius (km), Mean (m/s), NE (m/s), SE (m/s), SW (m/s), NW (m/s)
        0.0,       0.00,     0.00,     0.00,     0.00,     0.00
        1.0,       3.19,     3.01,     3.37,     3.37,     3.01
        2.0,       5.71,     5.60,     5.83,     5.82,     5.60
        3.0,       8.08,     8.09,     8.09,     8.06,     8.07
        4.0,      10.44,    10.60,    10.33,    10.26,    10.57
        5.0,      12.91,    13.24,    12.66,    12.53,    13.20
        6.0,      15.56,    16.09,    15.15,    14.94,    16.06
        7.0,      18.41,    19.17,    17.78,    17.51,    19.20
        8.0,      21.43,    22.45,    20.51,    20.20,    22.57
        9.0,      24.52,    25.84,    23.25,    22.91,    26.09
       10.0,      27.55,    29.19,    25.88,    25.53,    29.60
       11.0,      30.37,    32.35,    28.27,    27.95,    32.92
       12.0,      32.84,    35.16,    30.30,    30.03,    35.87
       13.0,      34.85,    37.49,    31.90,    31.70,    38.30
       14.0,      36.32,    39.26,    33.03,    32.89,    40.10
       15.0,      37.25,    40.45,    33.69,    33.62,    41.24
       16.0,      37.66,    41.07,    33.93,    33.91,    41.73
       17.0,      37.64,    41.22,    33.84,    33.84,    41.66
       18.0,      37.28,    40.99,    33.49,    33.50,    41.15
       19.0,      36.71,    40.51,    32.99,    32.98,    40.35
       20.0,      36.03,    39.91,    32.43,    32.38,    39.39
       21.0,      35.31,    39.25,    31.85,    31.76,    38.38
       22.0,      34.62,    38.61,    31.30,    31.16,    37.40
       23.0,      33.96,    38.01,    30.77,    30.58,    36.46
       24.0,      33.34,    37.45,    30.28,    30.03,    35.59
       25.0,      32.74,    36.91,    29.80,    29.50,    34.75
       26.0,      32.17,    36.39,    29.34,    28.98,    33.95
       27.0,      31.61,    35.89,    28.89,    28.48,    33.18
       28.0,      31.08,    35.41,    28.47,    27.99,    32.44
       29.0,      30.56,    34.94,    28.06,    27.52,    31.73
       30.0,      30.06,    34.49,    27.66,    27.05,    31.04
       31.0,      29.58,    34.06,    27.28,    26.61,    30.38
       32.0,      29.12,    33.64,    26.91,    26.17,    29.75
       33.0,      28.67,    33.23,    26.56,    25.75,    29.14
       34.0,      28.24,    32.84,    26.22,    25.34,    28.55
       35.0,      27.82,    32.46,    25.89,    24.94,    27.99
       36.0,      27.42,    32.09,    25.58,    24.55,    27.44
       37.0,      27.03,    31.74,    25.27,    24.18,    26.92
       38.0,      26.65,    31.40,    24.98,    23.81,    26.41
       39.0,      26.29,    31.07,    24.70,    23.46,    25.93
       40.0,      25.94,    30.75,    24.42,    23.11,    25.46
       41.0,      25.60,    30.44,    24.16,    22.78,    25.01
       42.0,      25.27,    30.14,    23.91,    22.45,    24.58
       43.0,      24.95,    29.85,    23.66,    22.14,    24.16
       44.0,      24.65,    29.57,    23.43,    21.83,    23.76
       45.0,      24.35,    29.30,    23.20,    21.53,    23.37
       46.0,      24.06,    29.04,    22.98,    21.24,    23.00
       47.0,      23.79,    28.78,    22.77,    20.96,    22.64
       48.0,      23.52,    28.53,    22.57,    20.68,    22.30
       49.0,      23.26,    28.29,    22.37,    20.42,    21.96
       50.0,      23.01,    28.06,    22.18,    20.16,    21.64
       51.0,      22.77,    27.84,    22.00,    19.91,    21.33
       52.0,      22.53,    27.62,    21.82,    19.66,    21.04
       53.0,      22.31,    27.41,    21.65,    19.43,    20.75
       54.0,      22.09,    27.20,    21.48,    19.19,    20.47
       55.0,      21.88,    27.00,    21.32,    18.97,    20.20
       56.0,      21.67,    26.81,    21.17,    18.75,    19.95
       57.0,      21.47,    26.62,    21.02,    18.54,    19.70
       58.0,      21.28,    26.44,    20.88,    18.33,    19.46
       59.0,      21.09,    26.26,    20.74,    18.13,    19.23
       60.0,      20.91,    26.09,    20.60,    17.94,    19.01
       61.0,      20.73,    25.92,    20.47,    17.75,    18.79
       62.0,      20.56,    25.76,    20.35,    17.56,    18.59
       63.0,      20.40,    25.60,    20.23,    17.38,    18.39
       64.0,      20.24,    25.45,    20.11,    17.21,    18.19
       65.0,      20.08,    25.30,    19.99,    17.04,    18.01
       66.0,      19.93,    25.15,    19.88,    16.88,    17.83
       67.0,      19.79,    25.01,    19.78,    16.71,    17.65
       68.0,      19.65,    24.87,    19.67,    16.56,    17.49
       69.0,      19.51,    24.73,    19.57,    16.41,    17.32
       70.0,      19.37,    24.60,    19.47,    16.26,    17.17
       71.0,      19.25,    24.47,    19.38,    16.12,    17.02
       72.0,      19.12,    24.34,    19.29,    15.98,    16.87
       73.0,      19.00,    24.22,    19.20,    15.84,    16.73
       74.0,      18.88,    24.10,    19.11,    15.71,    16.59
       75.0,      18.76,    23.98,    19.03,    15.58,    16.46
       76.0,      18.65,    23.87,    18.95,    15.45,    16.33
       77.0,      18.54,    23.76,    18.87,    15.33,    16.21
       78.0,      18.43,    23.65,    18.79,    15.21,    16.09
       79.0,      18.33,    23.54,    18.72,    15.10,    15.97
       80.0,      18.23,    23.43,    18.65,    14.98,    15.86
       81.0,      18.13,    23.33,    18.58,    14.87,    15.75
       82.0,      18.04,    23.23,    18.51,    14.77,    15.65
       83.0,      17.95,    23.13,    18.44,    14.66,    15.54
       84.0,      17.86,    23.04,    18.38,    14.56,    15.45
       85.0,      17.77,    22.94,    18.31,    14.46,    15.35
       86.0,      17.68,    22.85,    18.25,    14.37,    15.26
       87.0,      17.60,    22.76,    18.19,    14.28,    15.17
       88.0,      17.52,    22.67,    18.13,    14.18,    15.08
       89.0,      17.44,    22.58,    18.08,    14.10,    15.00
       90.0,      17.36,    22.49,    18.02,    14.01,    14.91
       91.0,      17.28,    22.41,    17.97,    13.93,    14.83
       92.0,      17.21,    22.32,    17.91,    13.84,    14.76
       93.0,      17.14,    22.24,    17.86,    13.76,    14.68
       94.0,      17.07,    22.16,    17.81,    13.69,    14.61
       95.0,      17.00,    22.08,    17.76,    13.61,    14.54
       96.0,      16.93,    22.00,    17.71,    13.54,    14.47
       97.0,      16.86,    21.93,    17.67,    13.46,    14.40
       98.0,      16.80,    21.85,    17.62,    13.39,    14.33
       99.0,      16.74,    21.78,    17.58,    13.32,    14.27
      100.0,      16.68,    21.70,    17.53,    13.26,    14.21
      101.0,      16.61,    21.63,    17.49,    13.19,    14.15
      102.0,      16.56,    21.56,    17.45,    13.13,    14.09
      103.0,      16.50,    21.49,    17.40,    13.07,    14.03
      104.0,      16.44,    21.42,    17.36,    13.01,    13.97
      105.0,      16.39,    21.35,    17.32,    12.95,    13.92
      106.0,      16.33,    21.28,    17.29,    12.89,    13.87
      107.0,      16.28,    21.22,    17.25,    12.83,    13.81
      108.0,      16.23,    21.15,    17.21,    12.78,    13.76
      109.0,      16.17,    21.09,    17.17,    12.72,    13.71
      110.0,      16.12,    21.02,    17.14,    12.67,    13.67
      111.0,      16.07,    20.96,    17.10,    12.62,    13.62
      112.0,      16.03,    20.90,    17.06,    12.57,    13.57
      113.0,      15.98,    20.83,    17.03,    12.52,    13.53
      114.0,      15.93,    20.77,    17.00,    12.47,    13.48
      115.0,      15.88,    20.71,    16.96,    12.43,    13.44
      116.0,      15.84,    20.65,    16.93,    12.38,    13.40
      117.0,      15.79,    20.59,    16.90,    12.34,    13.35
      118.0,      15.75,    20.53,    16.87,    12.29,    13.31
      119.0,      15.71,    20.47,    16.83,    12.25,    13.27
      120.0,      15.66,    20.41,    16.80,    12.21,    13.23
      121.0,      15.62,    20.36,    16.77,    12.17,    13.20
      122.0,      15.58,    20.30,    16.74,    12.13,    13.16
      123.0,      15.54,    20.24,    16.71,    12.09,    13.12
      124.0,      15.50,    20.19,    16.68,    12.05,    13.08
      125.0,      15.46,    20.13,    16.65,    12.01,    13.05
      126.0,      15.42,    20.08,    16.62,    11.98,    13.01
      127.0,      15.38,    20.02,    16.60,    11.94,    12.98
      128.0,      15.35,    19.97,    16.57,    11.90,    12.94
      129.0,      15.31,    19.91,    16.54,    11.87,    12.91
      130.0,      15.27,    19.86,    16.51,    11.84,    12.88
      131.0,      15.24,    19.81,    16.49,    11.80,    12.84
      132.0,      15.20,    19.76,    16.46,    11.77,    12.81
      133.0,      15.16,    19.70,    16.43,    11.74,    12.78
      134.0,      15.13,    19.65,    16.41,    11.71,    12.75
      135.0,      15.09,    19.60,    16.38,    11.68,    12.72
      136.0,      15.06,    19.55,    16.35,    11.65,    12.69
      137.0,      15.03,    19.50,    16.33,    11.62,    12.66
      138.0,      14.99,    19.45,    16.30,    11.59,    12.63
      139.0,      14.96,    19.40,    16.28,    11.56,    12.60
      140.0,      14.93,    19.35,    16.25,    11.53,    12.57
      141.0,      14.89,    19.30,    16.23,    11.51,    12.54
      142.0,      14.86,    19.25,    16.20,    11.48,    12.52
      143.0,      14.83,    19.20,    16.18,    11.45,    12.49
      144.0,      14.80,    19.15,    16.15,    11.43,    12.46
      145.0,      14.77,    19.10,    16.13,    11.40,    12.43
      146.0,      14.74,    19.05,    16.11,    11.38,    12.41
      147.0,      14.70,    19.00,    16.08,    11.35,    12.38
      148.0,      14.67,    18.96,    16.06,    11.33,    12.35
      149.0,      14.64,    18.91,    16.04,    11.30,    12.33
      150.0,      14.61,    18.86,    16.01,    11.28,    12.30
      151.0,      14.58,    18.81,    15.99,    11.26,    12.28
      152.0,      14.56,    18.77,    15.97,    11.23,    12.25
      153.0,      14.53,    18.72,    15.94,    11.21,    12.23
      154.0,      14.50,    18.67,    15.92,    11.19,    12.20
      155.0,      14.47,    18.63,    15.90,    11.17,    12.18
      156.0,      14.44,    18.58,    15.88,    11.15,    12.15
      157.0,      14.41,    18.54,    15.85,    11.13,    12.13
      158.0,      14.38,    18.49,    15.83,    11.11,    12.11
      159.0,      14.36,    18.45,    15.81,    11.09,    12.08
      160.0,      14.33,    18.40,    15.79,    11.07,    12.06
      161.0,      14.30,    18.36,    15.77,    11.05,    12.04
      162.0,      14.27,    18.31,    15.74,    11.03,    12.01
      163.0,      14.25,    18.27,    15.72,    11.01,    11.99
      164.0,      14.22,    18.22,    15.70,    10.99,    11.97
      165.0,      14.19,    18.18,    15.68,    10.97,    11.94
      166.0,      14.17,    18.13,    15.66,    10.95,    11.92
      167.0,      14.14,    18.09,    15.64,    10.93,    11.90
      168.0,      14.11,    18.04,    15.62,    10.91,    11.88
      169.0,      14.09,    18.00,    15.59,    10.90,    11.85
      170.0,      14.06,    17.96,    15.57,    10.88,    11.83
      171.0,      14.03,    17.91,    15.55,    10.86,    11.81
      172.0,      14.01,    17.87,    15.53,    10.84,    11.79
      173.0,      13.98,    17.83,    15.51,    10.83,    11.77
      174.0,      13.96,    17.78,    15.49,    10.81,    11.75
      175.0,      13.93,    17.74,    15.47,    10.79,    11.72
      176.0,      13.91,    17.70,    15.45,    10.78,    11.70
      177.0,      13.88,    17.66,    15.43,    10.76,    11.68
      178.0,      13.86,    17.61,    15.41,    10.75,    11.66
      179.0,      13.83,    17.57,    15.39,    10.73,    11.64
      180.0,      13.81,    17.53,    15.37,    10.71,    11.62
      181.0,      13.78,    17.49,    15.35,    10.70,    11.60
      182.0,      13.76,    17.45,    15.33,    10.68,    11.58
      183.0,      13.73,    17.40,    15.31,    10.67,    11.56
      184.0,      13.71,    17.36,    15.29,    10.65,    11.54
      185.0,      13.69,    17.32,    15.27,    10.64,    11.52
      186.0,      13.66,    17.28,    15.25,    10.62,    11.50
      187.0,      13.64,    17.24,    15.23,    10.61,    11.48
      188.0,      13.61,    17.20,    15.21,    10.60,    11.46
      189.0,      13.59,    17.16,    15.19,    10.58,    11.44
      190.0,      13.57,    17.12,    15.17,    10.57,    11.42
      191.0,      13.54,    17.08,    15.15,    10.55,    11.40
      192.0,      13.52,    17.04,    15.13,    10.54,    11.38
      193.0,      13.50,    16.99,    15.11,    10.52,    11.36
      194.0,      13.47,    16.95,    15.09,    10.51,    11.34
      195.0,      13.45,    16.91,    15.07,    10.50,    11.32
      196.0,      13.43,    16.87,    15.05,    10.48,    11.30
      197.0,      13.40,    16.83,    15.03,    10.47,    11.28
      198.0,      13.38,    16.79,    15.01,    10.46,    11.26
      199.0,      13.36,    16.75,    14.99,    10.44,    11.24
      200.0,      13.33,    16.71,    14.97,    10.43,    11.22
      201.0,      13.31,    16.68,    14.95,    10.42,    11.20
      202.0,      13.29,    16.64,    14.93,    10.40,    11.18
      203.0,      13.27,    16.60,    14.91,    10.39,    11.16
      204.0,      13.24,    16.56,    14.89,    10.38,    11.14
      205.0,      13.22,    16.52,    14.88,    10.37,    11.12
      206.0,      13.20,    16.48,    14.86,    10.35,    11.10
      207.0,      13.18,    16.44,    14.84,    10.34,    11.09
      208.0,      13.15,    16.40,    14.82,    10.33,    11.07
      209.0,      13.13,    16.36,    14.80,    10.32,    11.05
      210.0,      13.11,    16.32,    14.78,    10.30,    11.03
      211.0,      13.09,    16.29,    14.76,    10.29,    11.01
      212.0,      13.06,    16.25,    14.74,    10.28,    10.99
      213.0,      13.04,    16.21,    14.72,    10.27,    10.97
      214.0,      13.02,    16.17,    14.70,    10.26,    10.95
      215.0,      13.00,    16.13,    14.69,    10.24,    10.94
      216.0,      12.98,    16.09,    14.67,    10.23,    10.92
      217.0,      12.96,    16.06,    14.65,    10.22,    10.90
      218.0,      12.93,    16.02,    14.63,    10.21,    10.88
      219.0,      12.91,    15.98,    14.61,    10.20,    10.86
      220.0,      12.89,    15.94,    14.59,    10.18,    10.84
      221.0,      12.87,    15.91,    14.57,    10.17,    10.83
      222.0,      12.85,    15.87,    14.56,    10.16,    10.81
      223.0,      12.83,    15.83,    14.54,    10.15,    10.79
      224.0,      12.81,    15.79,    14.52,    10.14,    10.77
      225.0,      12.78,    15.76,    14.50,    10.13,    10.75
      226.0,      12.76,    15.72,    14.48,    10.12,    10.73
      227.0,      12.74,    15.68,    14.46,    10.10,    10.72
      228.0,      12.72,    15.65,    14.44,    10.09,    10.70
      229.0,      12.70,    15.61,    14.43,    10.08,    10.68
      230.0,      12.68,    15.57,    14.41,    10.07,    10.66
      231.0,      12.66,    15.54,    14.39,    10.06,    10.64
      232.0,      12.64,    15.50,    14.37,    10.05,    10.63
      233.0,      12.62,    15.46,    14.35,    10.04,    10.61
      234.0,      12.59,    15.43,    14.33,    10.03,    10.59
      235.0,      12.57,    15.39,    14.32,    10.01,    10.57
      236.0,      12.55,    15.35,    14.30,    10.00,    10.56
      237.0,      12.53,    15.32,    14.28,     9.99,    10.54
      238.0,      12.51,    15.28,    14.26,     9.98,    10.52
      239.0,      12.49,    15.25,    14.24,     9.97,    10.50
      240.0,      12.47,    15.21,    14.23,     9.96,    10.49
      241.0,      12.45,    15.17,    14.21,     9.95,    10.47
      242.0,      12.43,    15.14,    14.19,     9.94,    10.45
      243.0,      12.41,    15.10,    14.17,     9.93,    10.43
      244.0,      12.39,    15.07,    14.15,     9.92,    10.42
      245.0,      12.37,    15.03,    14.14,     9.91,    10.40
      246.0,      12.35,    15.00,    14.12,     9.90,    10.38
      247.0,      12.33,    14.96,    14.10,     9.89,    10.36
      248.0,      12.31,    14.93,    14.08,     9.88,    10.35
      249.0,      12.29,    14.89,    14.06,     9.86,    10.33
      250.0,      12.27,    14.86,    14.05,     9.85,    10.31
      251.0,      12.25,    14.82,    14.03,     9.84,    10.29
      252.0,      12.23,    14.79,    14.01,     9.83,    10.28
      253.0,      12.21,    14.75,    13.99,     9.82,    10.26
      254.0,      12.19,    14.72,    13.98,     9.81,    10.24
      255.0,      12.17,    14.68,    13.96,     9.80,    10.23
      256.0,      12.15,    14.65,    13.94,     9.79,    10.21
      257.0,      12.13,    14.61,    13.92,     9.78,    10.19
      258.0,      12.11,    14.58,    13.90,     9.77,    10.17
      259.0,      12.09,    14.55,    13.89,     9.76,    10.16
      260.0,      12.07,    14.51,    13.87,     9.75,    10.14
      261.0,      12.05,    14.48,    13.85,     9.74,    10.12
      262.0,      12.03,    14.44,    13.83,     9.73,    10.11
      263.0,      12.01,    14.41,    13.82,     9.72,    10.09
      264.0,      11.99,    14.38,    13.80,     9.71,    10.07
      265.0,      11.97,    14.34,    13.78,     9.70,    10.06
      266.0,      11.95,    14.31,    13.76,     9.69,    10.04
      267.0,      11.93,    14.28,    13.75,     9.68,    10.02
      268.0,      11.91,    14.24,    13.73,     9.67,    10.01
      269.0,      11.89,    14.21,    13.71,     9.66,     9.99
      270.0,      11.87,    14.18,    13.69,     9.65,     9.97
      271.0,      11.85,    14.14,    13.68,     9.64,     9.96
      272.0,      11.83,    14.11,    13.66,     9.63,     9.94
      273.0,      11.82,    14.08,    13.64,     9.62,     9.92
      274.0,      11.80,    14.04,    13.63,     9.61,     9.91
      275.0,      11.78,    14.01,    13.61,     9.60,     9.89
      276.0,      11.76,    13.98,    13.59,     9.59,     9.87
      277.0,      11.74,    13.94,    13.57,     9.58,     9.86
      278.0,      11.72,    13.91,    13.56,     9.57,     9.84
      279.0,      11.70,    13.88,    13.54,     9.56,     9.83
      280.0,      11.68,    13.85,    13.52,     9.55,     9.81
      281.0,      11.66,    13.81,    13.51,     9.54,     9.79
      282.0,      11.64,    13.78,    13.49,     9.53,     9.78
      283.0,      11.63,    13.75,    13.47,     9.52,     9.76
      284.0,      11.61,    13.72,    13.45,     9.51,     9.74
      285.0,      11.59,    13.69,    13.44,     9.50,     9.73
      286.0,      11.57,    13.65,    13.42,     9.49,     9.71
      287.0,      11.55,    13.62,    13.40,     9.48,     9.70
      288.0,      11.53,    13.59,    13.39,     9.47,     9.68
      289.0,      11.51,    13.56,    13.37,     9.46,     9.66
      290.0,      11.49,    13.53,    13.35,     9.45,     9.65
      291.0,      11.48,    13.49,    13.34,     9.44,     9.63
      292.0,      11.46,    13.46,    13.32,     9.44,     9.62
      293.0,      11.44,    13.43,    13.30,     9.43,     9.60
      294.0,      11.42,    13.40,    13.29,     9.42,     9.58
      295.0,      11.40,    13.37,    13.27,     9.41,     9.57
      296.0,      11.38,    13.34,    13.25,     9.40,     9.55
      297.0,      11.37,    13.31,    13.23,     9.39,     9.54
      298.0,      11.35,    13.27,    13.22,     9.38,     9.52
      299.0,      11.33,    13.24,    13.20,     9.37,     9.50
      300.0,      11.31,    13.21,    13.18,     9.36,     9.49
      301.0,      11.29,    13.18,    13.17,     9.35,     9.47
      302.0,      11.27,    13.15,    13.15,     9.34,     9.46
      303.0,      11.26,    13.12,    13.13,     9.33,     9.44
      304.0,      11.24,    13.09,    13.12,     9.32,     9.43
      305.0,      11.22,    13.06,    13.10,     9.31,     9.41
      306.0,      11.20,    13.03,    13.08,     9.30,     9.39
      307.0,      11.18,    13.00,    13.07,     9.29,     9.38
      308.0,      11.17,    12.97,    13.05,     9.28,     9.36
      309.0,      11.15,    12.94,    13.04,     9.27,     9.35
      310.0,      11.13,    12.91,    13.02,     9.26,     9.33
