Radius (km), Mean (m/s), NE (m/s), SE (m/s), SW (m/s), NW (m/s)
        0.0,       0.00,     0.00,     0.00,     0.00,     0.00
        1.0,       3.25,     3.11,     3.40,     3.40,     3.10
        2.0,       5.75,     5.70,     5.83,     5.82,     5.67
        3.0,       8.11,     8.23,     8.04,     8.02,     8.13
        4.0,      10.47,    10.86,    10.21,    10.18,    10.64
        5.0,      12.96,    13.69,    12.44,    12.40,    13.32
        6.0,      15.63,    16.77,    14.77,    14.73,    16.25
        7.0,      18.48,    20.09,    17.21,    17.18,    19.44
        8.0,      21.46,    23.55,    19.72,    19.72,    22.84
        9.0,      24.45,    27.01,    22.22,    22.25,    26.33
       10.0,      27.34,    30.32,    24.60,    24.69,    29.73
       11.0,      29.97,    33.30,    26.78,    26.92,    32.87
       12.0,      32.22,    35.81,    28.66,    28.85,    35.57
       13.0,      34.01,    37.75,    30.17,    30.39,    37.70
       14.0,      35.27,    39.07,    31.30,    31.53,    39.19
       15.0,      36.02,    39.79,    32.03,    32.25,    40.02
       16.0,      36.31,    39.98,    32.41,    32.60,    40.25
       17.0,      36.22,    39.75,    32.51,    32.64,    39.97
       18.0,      35.85,    39.22,    32.41,    32.45,    39.31
       19.0,      35.31,    38.51,    32.17,    32.12,    38.42
       20.0,      34.68,    37.74,    31.87,    31.72,    37.41
       21.0,      34.05,    36.95,    31.55,    31.30,    36.38
       22.0,      33.43,    36.20,    31.24,    30.89,    35.39
       23.0,      32.85,    35.49,    30.94,    30.50,    34.45
       24.0,      32.29,    34.81,    30.65,    30.12,    33.56
       25.0,      31.75,    34.16,    30.37,    29.75,    32.71
       26.0,      31.23,    33.54,    30.09,    29.39,    31.89
       27.0,      30.72,    32.93,    29.82,    29.03,    31.10
       28.0,      30.23,    32.35,    29.55,    28.69,    30.35
       29.0,      29.76,    31.80,    29.28,    28.35,    29.62
       30.0,      29.30,    31.26,    29.02,    28.01,    28.92
       31.0,      28.86,    30.74,    28.77,    27.69,    28.25
       32.0,      28.43,    30.25,    28.52,    27.37,    27.60
       33.0,      28.02,    29.77,    28.27,    27.06,    26.98
       34.0,      27.62,    29.31,    28.03,    26.76,    26.38
       35.0,      27.23,    28.87,    27.79,    26.46,    25.81
       36.0,      26.85,    28.44,    27.55,    26.17,    25.26
       37.0,      26.49,    28.03,    27.32,    25.88,    24.72
       38.0,      26.14,    27.64,    27.10,    25.60,    24.21
       39.0,      25.80,    27.26,    26.87,    25.33,    23.72
       40.0,      25.46,    26.89,    26.65,    25.06,    23.25
       41.0,      25.14,    26.54,    26.44,    24.80,    22.80
       42.0,      24.83,    26.20,    26.23,    24.54,    22.36
       43.0,      24.53,    25.88,    26.02,    24.29,    21.94
       44.0,      24.24,    25.56,    25.81,    24.04,    21.53
       45.0,      23.95,    25.26,    25.61,    23.80,    21.15
       46.0,      23.68,    24.97,    25.41,    23.56,    20.77
       47.0,      23.41,    24.69,    25.22,    23.33,    20.41
       48.0,      23.15,    24.42,    25.03,    23.11,    20.07
       49.0,      22.90,    24.16,    24.84,    22.89,    19.73
       50.0,      22.66,    23.91,    24.65,    22.67,    19.41
       51.0,      22.42,    23.66,    24.47,    22.46,    19.10
       52.0,      22.19,    23.43,    24.29,    22.25,    18.81
       53.0,      21.97,    23.21,    24.12,    22.05,    18.52
       54.0,      21.76,    22.99,    23.94,    21.85,    18.25
       55.0,      21.55,    22.78,    23.77,    21.65,    17.98
       56.0,      21.34,    22.58,    23.60,    21.46,    17.73
       57.0,      21.15,    22.39,    23.44,    21.27,    17.48
       58.0,      20.95,    22.20,    23.28,    21.09,    17.25
       59.0,      20.77,    22.02,    23.12,    20.91,    17.02
       60.0,      20.59,    21.84,    22.96,    20.74,    16.80
       61.0,      20.41,    21.68,    22.81,    20.56,    16.59
       62.0,      20.24,    21.51,    22.65,    20.39,    16.39
       63.0,      20.07,    21.36,    22.50,    20.23,    16.19
       64.0,      19.91,    21.21,    22.36,    20.07,    16.00
       65.0,      19.75,    21.06,    22.21,    19.91,    15.82
       66.0,      19.60,    20.92,    22.07,    19.75,    15.65
       67.0,      19.45,    20.79,    21.93,    19.60,    15.48
       68.0,      19.30,    20.65,    21.79,    19.45,    15.32
       69.0,      19.16,    20.53,    21.66,    19.31,    15.16
       70.0,      19.03,    20.41,    21.52,    19.16,    15.01
       71.0,      18.89,    20.29,    21.39,    19.02,    14.87
       72.0,      18.76,    20.17,    21.26,    18.89,    14.73
       73.0,      18.64,    20.06,    21.14,    18.75,    14.59
       74.0,      18.51,    19.96,    21.01,    18.62,    14.46
       75.0,      18.39,    19.85,    20.89,    18.49,    14.34
       76.0,      18.28,    19.75,    20.77,    18.37,    14.22
       77.0,      18.16,    19.66,    20.65,    18.24,    14.10
       78.0,      18.05,    19.56,    20.53,    18.12,    13.99
       79.0,      17.94,    19.47,    20.42,    18.00,    13.88
       80.0,      17.84,    19.38,    20.30,    17.88,    13.78
       81.0,      17.73,    19.30,    20.19,    17.77,    13.68
       82.0,      17.63,    19.22,    20.08,    17.66,    13.58
       83.0,      17.54,    19.14,    19.97,    17.55,    13.48
       84.0,      17.44,    19.06,    19.87,    17.44,    13.39
       85.0,      17.35,    18.98,    19.76,    17.33,    13.31
       86.0,      17.26,    18.91,    19.66,    17.23,    13.22
       87.0,      17.17,    18.84,    19.56,    17.13,    13.14
       88.0,      17.08,    18.77,    19.46,    17.03,    13.06
       89.0,      16.99,    18.71,    19.36,    16.93,    12.98
       90.0,      16.91,    18.64,    19.26,    16.83,    12.91
       91.0,      16.83,    18.58,    19.17,    16.74,    12.84
       92.0,      16.75,    18.52,    19.07,    16.65,    12.77
       93.0,      16.67,    18.46,    18.98,    16.56,    12.70
       94.0,      16.60,    18.40,    18.89,    16.47,    12.64
       95.0,      16.53,    18.35,    18.80,    16.38,    12.58
       96.0,      16.45,    18.29,    18.71,    16.30,    12.52
       97.0,      16.38,    18.24,    18.62,    16.21,    12.46
       98.0,      16.31,    18.19,    18.54,    16.13,    12.40
       99.0,      16.25,    18.14,    18.45,    16.05,    12.35
      100.0,      16.18,    18.09,    18.37,    15.97,    12.29
      101.0,      16.12,    18.04,    18.29,    15.89,    12.24
      102.0,      16.05,    17.99,    18.21,    15.82,    12.19
      103.0,      15.99,    17.95,    18.13,    15.74,    12.14
      104.0,      15.93,    17.90,    18.05,    15.67,    12.10
      105.0,      15.87,    17.86,    17.97,    15.60,    12.05
      106.0,      15.81,    17.82,    17.89,    15.53,    12.01
      107.0,      15.76,    17.78,    17.82,    15.46,    11.97
      108.0,      15.70,    17.74,    17.75,    15.39,    11.92
      109.0,      15.64,    17.70,    17.67,    15.32,    11.88
      110.0,      15.59,    17.66,    17.60,    15.26,    11.84
      111.0,      15.54,    17.62,    17.53,    15.19,    11.81
      112.0,      15.49,    17.59,    17.46,    15.13,    11.77
      113.0,      15.44,    17.55,    17.39,    15.07,    11.73
      114.0,      15.39,    17.52,    17.32,    15.01,    11.70
      115.0,      15.34,    17.48,    17.26,    14.95,    11.66
      116.0,      15.29,    17.45,    17.19,    14.89,    11.63
      117.0,      15.24,    17.42,    17.13,    14.83,    11.60
      118.0,      15.20,    17.38,    17.06,    14.77,    11.57
      119.0,      15.15,    17.35,    17.00,    14.72,    11.54
      120.0,      15.11,    17.32,    16.94,    14.66,    11.51
      121.0,      15.06,    17.29,    16.88,    14.61,    11.48
      122.0,      15.02,    17.26,    16.82,    14.55,    11.45
      123.0,      14.98,    17.23,    16.76,    14.50,    11.42
      124.0,      14.94,    17.20,    16.70,    14.45,    11.40
      125.0,      14.90,    17.17,    16.64,    14.40,    11.37
      126.0,      14.86,    17.14,    16.58,    14.35,    11.34
      127.0,      14.82,    17.12,    16.53,    14.30,    11.32
      128.0,      14.78,    17.09,    16.47,    14.25,    11.29
      129.0,      14.74,    17.06,    16.42,    14.21,    11.27
      130.0,      14.70,    17.04,    16.36,    14.16,    11.25
      131.0,      14.66,    17.01,    16.31,    14.12,    11.22
      132.0,      14.63,    16.99,    16.26,    14.07,    11.20
      133.0,      14.59,    16.96,    16.21,    14.03,    11.18
      134.0,      14.56,    16.94,    16.15,    13.98,    11.16
      135.0,      14.52,    16.91,    16.10,    13.94,    11.14
      136.0,      14.49,    16.89,    16.05,    13.90,    11.11
      137.0,      14.45,    16.86,    16.00,    13.86,    11.09
      138.0,      14.42,    16.84,    15.96,    13.82,    11.07
      139.0,      14.39,    16.82,    15.91,    13.78,    11.05
      140.0,      14.36,    16.79,    15.86,    13.74,    11.04
      141.0,      14.32,    16.77,    15.81,    13.70,    11.02
      142.0,      14.29,    16.75,    15.77,    13.66,    11.00
      143.0,      14.26,    16.73,    15.72,    13.62,    10.98
      144.0,      14.23,    16.70,    15.68,    13.58,    10.96
      145.0,      14.20,    16.68,    15.63,    13.55,    10.94
      146.0,      14.17,    16.66,    15.59,    13.51,    10.93
      147.0,      14.14,    16.64,    15.55,    13.48,    10.91
      148.0,      14.11,    16.62,    15.50,    13.44,    10.89
      149.0,      14.09,    16.60,    15.46,    13.41,    10.88
      150.0,      14.06,    16.58,    15.42,    13.37,    10.86
      151.0,      14.03,    16.56,    15.38,    13.34,    10.84
      152.0,      14.00,    16.54,    15.34,    13.31,    10.83
      153.0,      13.98,    16.52,    15.30,    13.27,    10.81
      154.0,      13.95,    16.50,    15.26,    13.24,    10.80
      155.0,      13.92,    16.48,    15.22,    13.21,    10.78
      156.0,      13.90,    16.46,    15.18,    13.18,    10.77
      157.0,      13.87,    16.44,    15.14,    13.15,    10.75
      158.0,      13.84,    16.42,    15.10,    13.12,    10.74
      159.0,      13.82,    16.40,    15.07,    13.09,    10.72
      160.0,      13.79,    16.38,    15.03,    13.06,    10.71
      161.0,      13.77,    16.36,    14.99,    13.03,    10.69
      162.0,      13.74,    16.34,    14.96,    13.00,    10.68
      163.0,      13.72,    16.32,    14.92,    12.97,    10.66
      164.0,      13.70,    16.30,    14.89,    12.95,    10.65
      165.0,      13.67,    16.28,    14.85,    12.92,    10.64
      166.0,      13.65,    16.27,    14.82,    12.89,    10.62
      167.0,      13.63,    16.25,    14.78,    12.86,    10.61
      168.0,      13.60,    16.23,    14.75,    12.84,    10.60
      169.0,      13.58,    16.21,    14.72,    12.81,    10.58
      170.0,      13.56,    16.19,    14.68,    12.79,    10.57
      171.0,      13.54,    16.17,    14.65,    12.76,    10.56
      172.0,      13.51,    16.16,    14.62,    12.73,    10.55
      173.0,      13.49,    16.14,    14.59,    12.71,    10.53
      174.0,      13.47,    16.12,    14.56,    12.69,    10.52
      175.0,      13.45,    16.10,    14.53,    12.66,    10.51
      176.0,      13.43,    16.09,    14.49,    12.64,    10.49
      177.0,      13.41,    16.07,    14.46,    12.61,    10.48
      178.0,      13.39,    16.05,    14.43,    12.59,    10.47
      179.0,      13.37,    16.03,    14.40,    12.57,    10.46
      180.0,      13.34,    16.02,    14.37,    12.54,    10.45
      181.0,      13.32,    16.00,    14.34,    12.52,    10.43
      182.0,      13.30,    15.98,    14.32,    12.50,    10.42
      183.0,      13.28,    15.97,    14.29,    12.48,    10.41
      184.0,      13.26,    15.95,    14.26,    12.45,    10.40
      185.0,      13.24,    15.93,    14.23,    12.43,    10.39
      186.0,      13.23,    15.91,    14.20,    12.41,    10.37
      187.0,      13.21,    15.90,    14.18,    12.39,    10.36
      188.0,      13.19,    15.88,    14.15,    12.37,    10.35
      189.0,      13.17,    15.86,    14.12,    12.35,    10.34
      190.0,      13.15,    15.85,    14.09,    12.33,    10.33
      191.0,      13.13,    15.83,    14.07,    12.31,    10.32
      192.0,      13.11,    15.81,    14.04,    12.29,    10.31
      193.0,      13.09,    15.80,    14.02,    12.27,    10.29
      194.0,      13.07,    15.78,    13.99,    12.25,    10.28
      195.0,      13.06,    15.76,    13.96,    12.23,    10.27
      196.0,      13.04,    15.75,    13.94,    12.21,    10.26
      197.0,      13.02,    15.73,    13.91,    12.19,    10.25
      198.0,      13.00,    15.72,    13.89,    12.17,    10.24
      199.0,      12.98,    15.70,    13.86,    12.15,    10.23
      200.0,      12.97,    15.68,    13.84,    12.13,    10.22
      201.0,      12.95,    15.67,    13.82,    12.11,    10.21
      202.0,      12.93,    15.65,    13.79,    12.09,    10.19
      203.0,      12.92,    15.63,    13.77,    12.07,    10.18
      204.0,      12.90,    15.62,    13.74,    12.06,    10.17
      205.0,      12.88,    15.60,    13.72,    12.04,    10.16
      206.0,      12.86,    15.59,    13.70,    12.02,    10.15
      207.0,      12.85,    15.57,    13.67,    12.00,    10.14
      208.0,      12.83,    15.55,    13.65,    11.99,    10.13
      209.0,      12.81,    15.54,    13.63,    11.97,    10.12
      210.0,      12.80,    15.52,    13.61,    11.95,    10.11
      211.0,      12.78,    15.51,    13.58,    11.93,    10.10
      212.0,      12.76,    15.49,    13.56,    11.92,    10.09
      213.0,      12.75,    15.47,    13.54,    11.90,    10.08
      214.0,      12.73,    15.46,    13.52,    11.88,    10.07
      215.0,      12.72,    15.44,    13.50,    11.87,    10.06
      216.0,      12.70,    15.43,    13.48,    11.85,    10.05
      217.0,      12.68,    15.41,    13.45,    11.83,    10.04
      218.0,      12.67,    15.40,    13.43,    11.82,    10.03
      219.0,      12.65,    15.38,    13.41,    11.80,    10.01
      220.0,      12.64,    15.36,    13.39,    11.78,    10.00
      221.0,      12.62,    15.35,    13.37,    11.77,     9.99
      222.0,      12.61,    15.33,    13.35,    11.75,     9.98
      223.0,      12.59,    15.32,    13.33,    11.74,     9.97
      224.0,      12.57,    15.30,    13.31,    11.72,     9.96
      225.0,      12.56,    15.29,    13.29,    11.71,     9.95
      226.0,      12.54,    15.27,    13.27,    11.69,     9.94
      227.0,      12.53,    15.26,    13.25,    11.68,     9.93
      228.0,      12.51,    15.24,    13.23,    11.66,     9.92
      229.0,      12.50,    15.23,    13.21,    11.64,     9.91
      230.0,      12.48,    15.21,    13.19,    11.63,     9.90
      231.0,      12.47,    15.19,    13.17,    11.61,     9.89
      232.0,      12.45,    15.18,    13.15,    11.60,     9.88
      233.0,      12.44,    15.16,    13.14,    11.59,     9.87
      234.0,      12.42,    15.15,    13.12,    11.57,     9.86
      235.0,      12.41,    15.13,    13.10,    11.56,     9.85
      236.0,      12.40,    15.12,    13.08,    11.54,     9.84
      237.0,      12.38,    15.10,    13.06,    11.53,     9.83
      238.0,      12.37,    15.09,    13.04,    11.51,     9.82
      239.0,      12.35,    15.07,    13.02,    11.50,     9.81
      240.0,      12.34,    15.06,    13.01,    11.48,     9.80
      241.0,      12.32,    15.04,    12.99,    11.47,     9.79
      242.0,      12.31,    15.03,    12.97,    11.46,     9.78
      243.0,      12.29,    15.01,    12.95,    11.44,     9.77
      244.0,      12.28,    15.00,    12.93,    11.43,     9.76
      245.0,      12.27,    14.98,    12.92,    11.41,     9.75
      246.0,      12.25,    14.97,    12.90,    11.40,     9.74
      247.0,      12.24,    14.95,    12.88,    11.39,     9.73
      248.0,      12.22,    14.94,    12.86,    11.37,     9.72
      249.0,      12.21,    14.92,    12.85,    11.36,     9.71
      250.0,      12.20,    14.91,    12.83,    11.35,     9.70
      251.0,      12.18,    14.89,    12.81,    11.33,     9.69
      252.0,      12.17,    14.88,    12.80,    11.32,     9.68
      253.0,      12.16,    14.86,    12.78,    11.31,     9.67
      254.0,      12.14,    14.85,    12.76,    11.29,     9.66
      255.0,      12.13,    14.83,    12.75,    11.28,     9.65
      256.0,      12.11,    14.82,    12.73,    11.27,     9.64
      257.0,      12.10,    14.80,    12.71,    11.25,     9.63
      258.0,      12.09,    14.79,    12.70,    11.24,     9.63
      259.0,      12.07,    14.77,    12.68,    11.23,     9.62
      260.0,      12.06,    14.76,    12.66,    11.21,     9.61
      261.0,      12.05,    14.74,    12.65,    11.20,     9.60
      262.0,      12.03,    14.73,    12.63,    11.19,     9.59
      263.0,      12.02,    14.71,    12.62,    11.18,     9.58
      264.0,      12.01,    14.70,    12.60,    11.16,     9.57
      265.0,      11.99,    14.68,    12.58,    11.15,     9.56
      266.0,      11.98,    14.67,    12.57,    11.14,     9.55
      267.0,      11.97,    14.65,    12.55,    11.12,     9.54
      268.0,      11.95,    14.64,    12.54,    11.11,     9.53
      269.0,      11.94,    14.62,    12.52,    11.10,     9.52
      270.0,      11.93,    14.61,    12.51,    11.09,     9.51
      271.0,      11.92,    14.60,    12.49,    11.07,     9.50
      272.0,      11.90,    14.58,    12.48,    11.06,     9.49
      273.0,      11.89,    14.57,    12.46,    11.05,     9.48
      274.0,      11.88,    14.55,    12.44,    11.04,     9.47
      275.0,      11.86,    14.54,    12.43,    11.03,     9.46
      276.0,      11.85,    14.52,    12.41,    11.01,     9.45
      277.0,      11.84,    14.51,    12.40,    11.00,     9.44
      278.0,      11.83,    14.49,    12.38,    10.99,     9.43
      279.0,      11.81,    14.48,    12.37,    10.98,     9.42
      280.0,      11.80,    14.46,    12.35,    10.96,     9.41
      281.0,      11.79,    14.45,    12.34,    10.95,     9.41
      282.0,      11.77,    14.44,    12.33,    10.94,     9.40
      283.0,      11.76,    14.42,    12.31,    10.93,     9.39
      284.0,      11.75,    14.41,    12.30,    10.92,     9.38
      285.0,      11.74,    14.39,    12.28,    10.90,     9.37
      286.0,      11.72,    14.38,    12.27,    10.89,     9.36
      287.0,      11.71,    14.36,    12.25,    10.88,     9.35
      288.0,      11.70,    14.35,    12.24,    10.87,     9.34
      289.0,      11.69,    14.33,    12.22,    10.86,     9.33
      290.0,      11.67,    14.32,    12.21,    10.85,     9.32
      291.0,      11.66,    14.31,    12.20,    10.83,     9.31
      292.0,      11.65,    14.29,    12.18,    10.82,     9.30
      293.0,      11.64,    14.28,    12.17,    10.81,     9.29
      294.0,      11.62,    14.26,    12.15,    10.80,     9.28
      295.0,      11.61,    14.25,    12.14,    10.79,     9.27
      296.0,      11.60,    14.23,    12.12,    10.78,     9.26
      297.0,      11.59,    14.22,    12.11,    10.76,     9.26
      298.0,      11.58,    14.21,    12.10,    10.75,     9.25
      299.0,      11.56,    14.19,    12.08,    10.74,     9.24
      300.0,      11.55,    14.18,    12.07,    10.73,     9.23
      301.0,      11.54,    14.16,    12.06,    10.72,     9.22
      302.0,      11.53,    14.15,    12.04,    10.71,     9.21
      303.0,      11.51,    14.14,    12.03,    10.70,     9.20
      304.0,      11.50,    14.12,    12.01,    10.68,     9.19
      305.0,      11.49,    14.11,    12.00,    10.67,     9.18
      306.0,      11.48,    14.09,    11.99,    10.66,     9.17
      307.0,      11.47,    14.08,    11.97,    10.65,     9.16
      308.0,      11.45,    14.06,    11.96,    10.64,     9.15
      309.0,      11.44,    14.05,    11.95,    10.63,     9.15
      310.0,      11.43,    14.04,    11.93,    10.62,     9.14
