Radius (km), Mean (m/s), NE (m/s), SE (m/s), SW (m/s), NW (m/s)
        0.0,       0.00,     0.00,     0.00,     0.00,     0.00
        1.0,       3.37,     3.29,     3.45,     3.45,     3.28
        2.0,       5.79,     5.80,     5.81,     5.78,     5.76
        3.0,       8.02,     8.17,     7.94,     7.88,     8.08
        4.0,      10.23,    10.58,    10.04,     9.91,    10.39
        5.0,      12.54,    13.13,    12.20,    11.99,    12.84
        6.0,      14.99,    15.85,    14.45,    14.18,    15.46
        7.0,      17.57,    18.72,    16.81,    16.48,    18.28
        8.0,      20.24,    21.67,    19.21,    18.86,    21.22
        9.0,      22.90,    24.58,    21.58,    21.25,    24.19
       10.0,      25.43,    27.33,    23.81,    23.54,    27.05
       11.0,      27.72,    29.78,    25.82,    25.63,    29.66
       12.0,      29.66,    31.83,    27.51,    27.42,    31.87
       13.0,      31.17,    33.41,    28.83,    28.83,    33.60
       14.0,      32.22,    34.49,    29.76,    29.85,    34.79
       15.0,      32.83,    35.10,    30.32,    30.45,    35.45
       16.0,      33.05,    35.30,    30.56,    30.70,    35.64
       17.0,      32.94,    35.18,    30.53,    30.64,    35.43
       18.0,      32.61,    34.83,    30.32,    30.36,    34.93
       19.0,      32.14,    34.36,    30.00,    29.95,    34.26
       20.0,      31.61,    33.84,    29.63,    29.47,    33.51
       21.0,      31.08,    33.31,    29.26,    28.98,    32.76
       22.0,      30.56,    32.81,    28.90,    28.51,    32.03
       23.0,      30.07,    32.34,    28.55,    28.07,    31.33
       24.0,      29.61,    31.88,    28.22,    27.65,    30.68
       25.0,      29.16,    31.44,    27.90,    27.24,    30.05
       26.0,      28.73,    31.02,    27.59,    26.85,    29.44
       27.0,      28.31,    30.62,    27.29,    26.47,    28.86
       28.0,      27.91,    30.23,    26.99,    26.11,    28.30
       29.0,      27.52,    29.85,    26.71,    25.76,    27.76
       30.0,      27.15,    29.49,    26.43,    25.43,    27.24
       31.0,      26.79,    29.14,    26.16,    25.10,    26.74
       32.0,      26.44,    28.81,    25.90,    24.79,    26.26
       33.0,      26.11,    28.48,    25.65,    24.49,    25.80
       34.0,      25.78,    28.17,    25.41,    24.20,    25.36
       35.0,      25.47,    27.87,    25.17,    23.92,    24.93
       36.0,      25.17,    27.58,    24.94,    23.65,    24.52
       37.0,      24.88,    27.31,    24.71,    23.39,    24.12
       38.0,      24.60,    27.04,    24.49,    23.14,    23.74
       39.0,      24.33,    26.78,    24.28,    22.90,    23.38
       40.0,      24.07,    26.53,    24.08,    22.66,    23.02
       41.0,      23.82,    26.29,    23.88,    22.44,    22.68
       42.0,      23.58,    26.06,    23.68,    22.22,    22.36
       43.0,      23.35,    25.83,    23.49,    22.01,    22.04
       44.0,      23.12,    25.62,    23.31,    21.81,    21.74
       45.0,      22.90,    25.41,    23.13,    21.62,    21.45
       46.0,      22.69,    25.21,    22.96,    21.43,    21.16
       47.0,      22.49,    25.02,    22.79,    21.25,    20.89
       48.0,      22.29,    24.83,    22.63,    21.07,    20.63
       49.0,      22.10,    24.65,    22.47,    20.90,    20.38
       50.0,      21.92,    24.48,    22.31,    20.74,    20.14
       51.0,      21.74,    24.31,    22.16,    20.58,    19.91
       52.0,      21.57,    24.15,    22.02,    20.43,    19.68
       53.0,      21.40,    23.99,    21.87,    20.28,    19.47
       54.0,      21.24,    23.84,    21.74,    20.13,    19.26
       55.0,      21.09,    23.69,    21.60,    20.00,    19.06
       56.0,      20.94,    23.55,    21.47,    19.86,    18.86
       57.0,      20.79,    23.42,    21.34,    19.73,    18.68
       58.0,      20.65,    23.28,    21.22,    19.61,    18.50
       59.0,      20.52,    23.16,    21.10,    19.49,    18.32
       60.0,      20.39,    23.03,    20.98,    19.37,    18.16
       61.0,      20.26,    22.91,    20.87,    19.26,    18.00
       62.0,      20.14,    22.80,    20.76,    19.15,    17.84
       63.0,      20.02,    22.69,    20.65,    19.04,    17.69
       64.0,      19.90,    22.58,    20.54,    18.94,    17.55
       65.0,      19.79,    22.48,    20.44,    18.83,    17.41
       66.0,      19.68,    22.37,    20.34,    18.74,    17.27
       67.0,      19.58,    22.28,    20.24,    18.64,    17.14
       68.0,      19.47,    22.18,    20.15,    18.55,    17.01
       69.0,      19.38,    22.09,    20.06,    18.46,    16.89
       70.0,      19.28,    22.00,    19.97,    18.38,    16.78
       71.0,      19.19,    21.91,    19.88,    18.29,    16.66
       72.0,      19.10,    21.83,    19.79,    18.21,    16.55
       73.0,      19.01,    21.75,    19.71,    18.13,    16.45
       74.0,      18.93,    21.67,    19.63,    18.06,    16.35
       75.0,      18.84,    21.59,    19.55,    17.98,    16.25
       76.0,      18.76,    21.52,    19.47,    17.91,    16.15
       77.0,      18.69,    21.45,    19.40,    17.84,    16.06
       78.0,      18.61,    21.38,    19.32,    17.77,    15.97
       79.0,      18.54,    21.31,    19.25,    17.70,    15.88
       80.0,      18.47,    21.24,    19.18,    17.64,    15.80
       81.0,      18.40,    21.18,    19.11,    17.58,    15.72
       82.0,      18.33,    21.12,    19.05,    17.51,    15.64
       83.0,      18.26,    21.06,    18.98,    17.45,    15.57
       84.0,      18.20,    21.00,    18.92,    17.39,    15.49
       85.0,      18.14,    20.94,    18.86,    17.34,    15.42
       86.0,      18.08,    20.88,    18.79,    17.28,    15.35
       87.0,      18.02,    20.83,    18.73,    17.23,    15.29
       88.0,      17.96,    20.77,    18.68,    17.17,    15.22
       89.0,      17.91,    20.72,    18.62,    17.12,    15.16
       90.0,      17.85,    20.67,    18.56,    17.07,    15.10
       91.0,      17.80,    20.62,    18.51,    17.02,    15.04
       92.0,      17.75,    20.57,    18.46,    16.97,    14.98
       93.0,      17.70,    20.53,    18.40,    16.92,    14.93
       94.0,      17.65,    20.48,    18.35,    16.88,    14.87
       95.0,      17.60,    20.43,    18.30,    16.83,    14.82
       96.0,      17.55,    20.39,    18.25,    16.79,    14.77
       97.0,      17.50,    20.35,    18.21,    16.74,    14.72
       98.0,      17.46,    20.30,    18.16,    16.70,    14.67
       99.0,      17.42,    20.26,    18.11,    16.66,    14.62
      100.0,      17.37,    20.22,    18.07,    16.62,    14.58
      101.0,      17.33,    20.18,    18.02,    16.58,    14.53
      102.0,      17.29,    20.14,    17.98,    16.54,    14.49
      103.0,      17.25,    20.11,    17.94,    16.50,    14.45
      104.0,      17.21,    20.07,    17.90,    16.46,    14.41
      105.0,      17.17,    20.03,    17.86,    16.42,    14.37
      106.0,      17.13,    20.00,    17.82,    16.39,    14.33
      107.0,      17.09,    19.96,    17.78,    16.35,    14.29
      108.0,      17.06,    19.93,    17.74,    16.31,    14.25
      109.0,      17.02,    19.89,    17.70,    16.28,    14.22
      110.0,      16.99,    19.86,    17.66,    16.24,    14.18
      111.0,      16.95,    19.83,    17.63,    16.21,    14.15
      112.0,      16.92,    19.79,    17.59,    16.18,    14.11
      113.0,      16.89,    19.76,    17.55,    16.14,    14.08
      114.0,      16.85,    19.73,    17.52,    16.11,    14.05
      115.0,      16.82,    19.70,    17.49,    16.08,    14.02
      116.0,      16.79,    19.67,    17.45,    16.05,    13.99
      117.0,      16.76,    19.64,    17.42,    16.02,    13.96
      118.0,      16.73,    19.61,    17.39,    15.98,    13.93
      119.0,      16.70,    19.58,    17.35,    15.95,    13.90
      120.0,      16.67,    19.55,    17.32,    15.92,    13.87
      121.0,      16.64,    19.52,    17.29,    15.89,    13.84
      122.0,      16.61,    19.50,    17.26,    15.86,    13.81
      123.0,      16.58,    19.47,    17.23,    15.84,    13.79
      124.0,      16.55,    19.44,    17.20,    15.81,    13.76
      125.0,      16.53,    19.42,    17.17,    15.78,    13.74
      126.0,      16.50,    19.39,    17.14,    15.75,    13.71
      127.0,      16.47,    19.36,    17.11,    15.72,    13.69
      128.0,      16.44,    19.34,    17.09,    15.69,    13.66
      129.0,      16.42,    19.31,    17.06,    15.67,    13.64
      130.0,      16.39,    19.29,    17.03,    15.64,    13.61
      131.0,      16.37,    19.26,    17.00,    15.61,    13.59
      132.0,      16.34,    19.24,    16.98,    15.59,    13.57
      133.0,      16.32,    19.21,    16.95,    15.56,    13.54
      134.0,      16.29,    19.19,    16.92,    15.53,    13.52
      135.0,      16.27,    19.16,    16.90,    15.51,    13.50
      136.0,      16.24,    19.14,    16.87,    15.48,    13.48
      137.0,      16.22,    19.11,    16.85,    15.46,    13.46
      138.0,      16.20,    19.09,    16.82,    15.43,    13.44
      139.0,      16.17,    19.07,    16.80,    15.41,    13.42
      140.0,      16.15,    19.04,    16.77,    15.38,    13.40
      141.0,      16.13,    19.02,    16.75,    15.36,    13.38
      142.0,      16.10,    19.00,    16.73,    15.33,    13.36
      143.0,      16.08,    18.98,    16.70,    15.31,    13.34
      144.0,      16.06,    18.95,    16.68,    15.28,    13.32
      145.0,      16.04,    18.93,    16.66,    15.26,    13.30
      146.0,      16.01,    18.91,    16.63,    15.24,    13.28
      147.0,      15.99,    18.89,    16.61,    15.21,    13.26
      148.0,      15.97,    18.87,    16.59,    15.19,    13.24
      149.0,      15.95,    18.84,    16.57,    15.17,    13.22
      150.0,      15.93,    18.82,    16.54,    15.14,    13.20
      151.0,      15.91,    18.80,    16.52,    15.12,    13.19
      152.0,      15.89,    18.78,    16.50,    15.10,    13.17
      153.0,      15.87,    18.76,    16.48,    15.07,    13.15
      154.0,      15.84,    18.74,    16.46,    15.05,    13.13
      155.0,      15.82,    18.72,    16.44,    15.03,    13.12
      156.0,      15.80,    18.70,    16.41,    15.00,    13.10
      157.0,      15.78,    18.68,    16.39,    14.98,    13.08
      158.0,      15.76,    18.65,    16.37,    14.96,    13.06
      159.0,      15.74,    18.63,    16.35,    14.94,    13.05
      160.0,      15.72,    18.61,    16.33,    14.92,    13.03
      161.0,      15.70,    18.59,    16.31,    14.89,    13.01
      162.0,      15.68,    18.57,    16.29,    14.87,    13.00
      163.0,      15.66,    18.55,    16.27,    14.85,    12.98
      164.0,      15.64,    18.53,    16.25,    14.83,    12.96
      165.0,      15.62,    18.51,    16.23,    14.81,    12.95
      166.0,      15.61,    18.49,    16.21,    14.78,    12.93
      167.0,      15.59,    18.47,    16.19,    14.76,    12.92
      168.0,      15.57,    18.45,    16.17,    14.74,    12.90
      169.0,      15.55,    18.43,    16.16,    14.72,    12.88
      170.0,      15.53,    18.41,    16.14,    14.70,    12.87
      171.0,      15.51,    18.39,    16.12,    14.68,    12.85
      172.0,      15.49,    18.37,    16.10,    14.66,    12.84
      173.0,      15.47,    18.35,    16.08,    14.63,    12.82
      174.0,      15.45,    18.34,    16.06,    14.61,    12.81
      175.0,      15.44,    18.32,    16.04,    14.59,    12.79
      176.0,      15.42,    18.30,    16.02,    14.57,    12.78
      177.0,      15.40,    18.28,    16.01,    14.55,    12.76
      178.0,      15.38,    18.26,    15.99,    14.53,    12.75
      179.0,      15.36,    18.24,    15.97,    14.51,    12.73
      180.0,      15.34,    18.22,    15.95,    14.49,    12.72
      181.0,      15.33,    18.20,    15.93,    14.47,    12.70
      182.0,      15.31,    18.18,    15.92,    14.45,    12.69
      183.0,      15.29,    18.16,    15.90,    14.43,    12.67
      184.0,      15.27,    18.14,    15.88,    14.41,    12.66
      185.0,      15.25,    18.13,    15.86,    14.39,    12.64
      186.0,      15.24,    18.11,    15.84,    14.37,    12.63
      187.0,      15.22,    18.09,    15.83,    14.34,    12.61
      188.0,      15.20,    18.07,    15.81,    14.32,    12.60
      189.0,      15.18,    18.05,    15.79,    14.30,    12.59
      190.0,      15.17,    18.03,    15.78,    14.28,    12.57
      191.0,      15.15,    18.01,    15.76,    14.26,    12.56
      192.0,      15.13,    18.00,    15.74,    14.24,    12.54
      193.0,      15.11,    17.98,    15.72,    14.22,    12.53
      194.0,      15.10,    17.96,    15.71,    14.20,    12.51
      195.0,      15.08,    17.94,    15.69,    14.18,    12.50
      196.0,      15.06,    17.92,    15.67,    14.16,    12.49
      197.0,      15.04,    17.90,    15.66,    14.14,    12.47
      198.0,      15.03,    17.89,    15.64,    14.12,    12.46
      199.0,      15.01,    17.87,    15.62,    14.10,    12.44
      200.0,      14.99,    17.85,    15.61,    14.08,    12.43
      201.0,      14.98,    17.83,    15.59,    14.07,    12.42
      202.0,      14.96,    17.81,    15.57,    14.05,    12.40
      203.0,      14.94,    17.79,    15.56,    14.03,    12.39
      204.0,      14.92,    17.78,    15.54,    14.01,    12.38
      205.0,      14.91,    17.76,    15.52,    13.99,    12.36
      206.0,      14.89,    17.74,    15.51,    13.97,    12.35
      207.0,      14.87,    17.72,    15.49,    13.95,    12.33
      208.0,      14.86,    17.70,    15.47,    13.93,    12.32
      209.0,      14.84,    17.69,    15.46,    13.91,    12.31
      210.0,      14.82,    17.67,    15.44,    13.89,    12.29
      211.0,      14.81,    17.65,    15.42,    13.87,    12.28
      212.0,      14.79,    17.63,    15.41,    13.85,    12.27
      213.0,      14.77,    17.61,    15.39,    13.83,    12.25
      214.0,      14.76,    17.60,    15.38,    13.81,    12.24
      215.0,      14.74,    17.58,    15.36,    13.79,    12.23
      216.0,      14.72,    17.56,    15.34,    13.77,    12.21
      217.0,      14.71,    17.54,    15.33,    13.76,    12.20
      218.0,      14.69,    17.53,    15.31,    13.74,    12.19
      219.0,      14.67,    17.51,    15.30,    13.72,    12.17
      220.0,      14.66,    17.49,    15.28,    13.70,    12.16
      221.0,      14.64,    17.47,    15.26,    13.68,    12.15
      222.0,      14.62,    17.46,    15.25,    13.66,    12.13
      223.0,      14.61,    17.44,    15.23,    13.64,    12.12
      224.0,      14.59,    17.42,    15.22,    13.62,    12.11
      225.0,      14.58,    17.40,    15.20,    13.60,    12.09
      226.0,      14.56,    17.38,    15.19,    13.58,    12.08
      227.0,      14.54,    17.37,    15.17,    13.57,    12.07
      228.0,      14.53,    17.35,    15.15,    13.55,    12.05
      229.0,      14.51,    17.33,    15.14,    13.53,    12.04
      230.0,      14.49,    17.31,    15.12,    13.51,    12.03
      231.0,      14.48,    17.30,    15.11,    13.49,    12.01
      232.0,      14.46,    17.28,    15.09,    13.47,    12.00
      233.0,      14.45,    17.26,    15.08,    13.45,    11.99
      234.0,      14.43,    17.25,    15.06,    13.43,    11.98
      235.0,      14.41,    17.23,    15.05,    13.42,    11.96
      236.0,      14.40,    17.21,    15.03,    13.40,    11.95
      237.0,      14.38,    17.19,    15.01,    13.38,    11.94
      238.0,      14.37,    17.18,    15.00,    13.36,    11.92
      239.0,      14.35,    17.16,    14.98,    13.34,    11.91
      240.0,      14.33,    17.14,    14.97,    13.32,    11.90
      241.0,      14.32,    17.12,    14.95,    13.31,    11.89
      242.0,      14.30,    17.11,    14.94,    13.29,    11.87
      243.0,      14.29,    17.09,    14.92,    13.27,    11.86
      244.0,      14.27,    17.07,    14.91,    13.25,    11.85
      245.0,      14.25,    17.06,    14.89,    13.23,    11.83
      246.0,      14.24,    17.04,    14.88,    13.21,    11.82
      247.0,      14.22,    17.02,    14.86,    13.20,    11.81
      248.0,      14.21,    17.00,    14.85,    13.18,    11.80
      249.0,      14.19,    16.99,    14.83,    13.16,    11.78
      250.0,      14.17,    16.97,    14.82,    13.14,    11.77
      251.0,      14.16,    16.95,    14.80,    13.12,    11.76
      252.0,      14.14,    16.94,    14.79,    13.10,    11.75
      253.0,      14.13,    16.92,    14.77,    13.09,    11.73
      254.0,      14.11,    16.90,    14.76,    13.07,    11.72
      255.0,      14.10,    16.89,    14.74,    13.05,    11.71
      256.0,      14.08,    16.87,    14.73,    13.03,    11.69
      257.0,      14.07,    16.85,    14.71,    13.01,    11.68
      258.0,      14.05,    16.83,    14.70,    13.00,    11.67
      259.0,      14.03,    16.82,    14.68,    12.98,    11.66
      260.0,      14.02,    16.80,    14.67,    12.96,    11.64
      261.0,      14.00,    16.78,    14.65,    12.94,    11.63
      262.0,      13.99,    16.77,    14.64,    12.93,    11.62
      263.0,      13.97,    16.75,    14.62,    12.91,    11.61
      264.0,      13.96,    16.73,    14.61,    12.89,    11.59
      265.0,      13.94,    16.72,    14.59,    12.87,    11.58
      266.0,      13.93,    16.70,    14.58,    12.85,    11.57
      267.0,      13.91,    16.68,    14.56,    12.84,    11.56
      268.0,      13.90,    16.67,    14.55,    12.82,    11.54
      269.0,      13.88,    16.65,    14.54,    12.80,    11.53
      270.0,      13.86,    16.63,    14.52,    12.78,    11.52
      271.0,      13.85,    16.62,    14.51,    12.77,    11.51
      272.0,      13.83,    16.60,    14.49,    12.75,    11.49
      273.0,      13.82,    16.58,    14.48,    12.73,    11.48
      274.0,      13.80,    16.57,    14.46,    12.71,    11.47
      275.0,      13.79,    16.55,    14.45,    12.70,    11.46
      276.0,      13.77,    16.53,    14.43,    12.68,    11.45
      277.0,      13.76,    16.52,    14.42,    12.66,    11.43
      278.0,      13.74,    16.50,    14.40,    12.64,    11.42
      279.0,      13.73,    16.48,    14.39,    12.63,    11.41
      280.0,      13.71,    16.47,    14.38,    12.61,    11.40
      281.0,      13.70,    16.45,    14.36,    12.59,    11.38
      282.0,      13.68,    16.44,    14.35,    12.57,    11.37
      283.0,      13.67,    16.42,    14.33,    12.56,    11.36
      284.0,      13.65,    16.40,    14.32,    12.54,    11.35
      285.0,      13.64,    16.39,    14.30,    12.52,    11.34
      286.0,      13.62,    16.37,    14.29,    12.50,    11.32
      287.0,      13.61,    16.35,    14.27,    12.49,    11.31
      288.0,      13.59,    16.34,    14.26,    12.47,    11.30
      289.0,      13.58,    16.32,    14.25,    12.45,    11.29
      290.0,      13.56,    16.30,    14.23,    12.44,    11.27
      291.0,      13.55,    16.29,    14.22,    12.42,    11.26
      292.0,      13.53,    16.27,    14.20,    12.40,    11.25
      293.0,      13.52,    16.26,    14.19,    12.38,    11.24
      294.0,      13.50,    16.24,    14.17,    12.37,    11.23
      295.0,      13.49,    16.22,    14.16,    12.35,    11.21
      296.0,      13.47,    16.21,    14.15,    12.33,    11.20
      297.0,      13.46,    16.19,    14.13,    12.32,    11.19
      298.0,      13.44,    16.17,    14.12,    12.30,    11.18
      299.0,      13.43,    16.16,    14.10,    12.28,    11.17
      300.0,      13.41,    16.14,    14.09,    12.27,    11.15
      301.0,      13.40,    16.13,    14.08,    12.25,    11.14
      302.0,      13.38,    16.11,    14.06,    12.23,    11.13
      303.0,      13.37,    16.09,    14.05,    12.22,    11.12
      304.0,      13.35,    16.08,    14.03,    12.20,    11.11
      305.0,      13.34,    16.06,    14.02,    12.18,    11.09
      306.0,      13.32,    16.05,    14.00,    12.17,    11.08
      307.0,      13.31,    16.03,    13.99,    12.15,    11.07
      308.0,      13.30,    16.01,    13.98,    12.13,    11.06
      309.0,      13.28,    16.00,    13.96,    12.12,    11.05
      310.0,      13.27,    15.98,    13.95,    12.10,    11.04
