Radius (km), Mean (m/s), NE (m/s), SE (m/s), SW (m/s), NW (m/s)
        0.0,       0.00,     0.00,     0.00,     0.00,     0.00
        1.0,       3.16,     2.94,     3.37,     3.37,     2.94
        2.0,       5.71,     5.56,     5.87,     5.85,     5.56
        3.0,       8.13,     8.10,     8.19,     8.13,     8.09
        4.0,      10.56,    10.68,    10.50,    10.38,    10.66
        5.0,      13.11,    13.41,    12.92,    12.71,    13.38
        6.0,      15.85,    16.36,    15.50,    15.19,    16.34
        7.0,      18.80,    19.56,    18.23,    17.84,    19.59
        8.0,      21.94,    22.97,    21.05,    20.62,    23.10
        9.0,      25.15,    26.51,    23.87,    23.44,    26.77
       10.0,      28.30,    30.02,    26.57,    26.17,    30.45
       11.0,      31.25,    33.36,    29.02,    28.69,    33.95
       12.0,      33.85,    36.34,    31.10,    30.88,    37.07
       13.0,      35.97,    38.84,    32.73,    32.62,    39.67
       14.0,      37.54,    40.76,    33.89,    33.88,    41.62
       15.0,      38.54,    42.07,    34.57,    34.64,    42.89
       16.0,      39.01,    42.81,    34.83,    34.93,    43.48
       17.0,      39.03,    43.03,    34.75,    34.84,    43.49
       18.0,      38.70,    42.86,    34.43,    34.47,    43.03
       19.0,      38.14,    42.43,    33.95,    33.91,    42.26
       20.0,      37.46,    41.85,    33.41,    33.25,    41.32
       21.0,      36.74,    41.21,    32.86,    32.58,    40.31
       22.0,      36.04,    40.59,    32.33,    31.91,    39.33
       23.0,      35.38,    40.00,    31.83,    31.29,    38.39
       24.0,      34.75,    39.44,    31.35,    30.69,    37.51
       25.0,      34.14,    38.91,    30.88,    30.11,    36.68
       26.0,      33.56,    38.40,    30.44,    29.55,    35.87
       27.0,      33.00,    37.90,    30.00,    29.00,    35.09
       28.0,      32.45,    37.41,    29.58,    28.47,    34.34
       29.0,      31.93,    36.95,    29.18,    27.96,    33.62
       30.0,      31.42,    36.49,    28.79,    27.46,    32.92
       31.0,      30.92,    36.05,    28.41,    26.98,    32.25
       32.0,      30.45,    35.62,    28.05,    26.52,    31.60
       33.0,      29.99,    35.21,    27.69,    26.06,    30.98
       34.0,      29.54,    34.80,    27.35,    25.62,    30.37
       35.0,      29.11,    34.41,    27.02,    25.20,    29.79
       36.0,      28.69,    34.03,    26.70,    24.78,    29.23
       37.0,      28.28,    33.67,    26.40,    24.38,    28.69
       38.0,      27.89,    33.31,    26.10,    23.99,    28.16
       39.0,      27.51,    32.96,    25.81,    23.61,    27.66
       40.0,      27.14,    32.62,    25.53,    23.25,    27.17
       41.0,      26.79,    32.30,    25.26,    22.89,    26.70
       42.0,      26.44,    31.98,    25.00,    22.55,    26.24
       43.0,      26.11,    31.67,    24.75,    22.21,    25.80
       44.0,      25.79,    31.37,    24.50,    21.89,    25.38
       45.0,      25.47,    31.08,    24.27,    21.57,    24.97
       46.0,      25.17,    30.79,    24.04,    21.27,    24.58
       47.0,      24.88,    30.52,    23.82,    20.97,    24.20
       48.0,      24.59,    30.25,    23.60,    20.68,    23.83
       49.0,      24.31,    29.99,    23.40,    20.40,    23.47
       50.0,      24.05,    29.73,    23.20,    20.13,    23.13
       51.0,      23.79,    29.49,    23.00,    19.87,    22.80
       52.0,      23.54,    29.25,    22.81,    19.61,    22.48
       53.0,      23.29,    29.01,    22.63,    19.37,    22.17
       54.0,      23.06,    28.78,    22.45,    19.13,    21.87
       55.0,      22.83,    28.56,    22.28,    18.89,    21.58
       56.0,      22.61,    28.35,    22.12,    18.67,    21.30
       57.0,      22.39,    28.14,    21.96,    18.45,    21.03
       58.0,      22.18,    27.93,    21.80,    18.23,    20.77
       59.0,      21.98,    27.73,    21.65,    18.02,    20.51
       60.0,      21.78,    27.54,    21.50,    17.82,    20.27
       61.0,      21.59,    27.34,    21.36,    17.63,    20.03
       62.0,      21.41,    27.16,    21.23,    17.44,    19.81
       63.0,      21.23,    26.98,    21.09,    17.25,    19.58
       64.0,      21.05,    26.80,    20.96,    17.07,    19.37
       65.0,      20.88,    26.63,    20.84,    16.90,    19.16
       66.0,      20.72,    26.46,    20.72,    16.73,    18.96
       67.0,      20.56,    26.30,    20.60,    16.57,    18.77
       68.0,      20.40,    26.14,    20.48,    16.41,    18.58
       69.0,      20.25,    25.98,    20.37,    16.25,    18.40
       70.0,      20.11,    25.83,    20.26,    16.10,    18.23
       71.0,      19.96,    25.68,    20.16,    15.96,    18.06
       72.0,      19.82,    25.53,    20.06,    15.81,    17.89
       73.0,      19.69,    25.39,    19.96,    15.68,    17.73
       74.0,      19.56,    25.25,    19.86,    15.54,    17.58
       75.0,      19.43,    25.11,    19.77,    15.41,    17.43
       76.0,      19.31,    24.98,    19.68,    15.29,    17.28
       77.0,      19.19,    24.85,    19.59,    15.16,    17.14
       78.0,      19.07,    24.72,    19.50,    15.04,    17.01
       79.0,      18.95,    24.59,    19.42,    14.93,    16.88
       80.0,      18.84,    24.47,    19.34,    14.81,    16.75
       81.0,      18.73,    24.35,    19.26,    14.70,    16.62
       82.0,      18.63,    24.23,    19.18,    14.60,    16.50
       83.0,      18.52,    24.11,    19.11,    14.49,    16.39
       84.0,      18.42,    24.00,    19.03,    14.39,    16.27
       85.0,      18.33,    23.89,    18.96,    14.29,    16.16
       86.0,      18.23,    23.78,    18.89,    14.20,    16.06
       87.0,      18.14,    23.67,    18.83,    14.10,    15.95
       88.0,      18.05,    23.57,    18.76,    14.01,    15.85
       89.0,      17.96,    23.46,    18.69,    13.93,    15.75
       90.0,      17.87,    23.36,    18.63,    13.84,    15.66
       91.0,      17.79,    23.26,    18.57,    13.76,    15.56
       92.0,      17.71,    23.16,    18.51,    13.67,    15.47
       93.0,      17.63,    23.07,    18.45,    13.60,    15.39
       94.0,      17.55,    22.97,    18.40,    13.52,    15.30
       95.0,      17.47,    22.88,    18.34,    13.44,    15.22
       96.0,      17.39,    22.79,    18.29,    13.37,    15.14
       97.0,      17.32,    22.70,    18.23,    13.30,    15.06
       98.0,      17.25,    22.61,    18.18,    13.23,    14.98
       99.0,      17.18,    22.52,    18.13,    13.16,    14.91
      100.0,      17.11,    22.43,    18.08,    13.10,    14.83
      101.0,      17.04,    22.35,    18.03,    13.03,    14.76
      102.0,      16.98,    22.26,    17.99,    12.97,    14.69
      103.0,      16.91,    22.18,    17.94,    12.91,    14.63
      104.0,      16.85,    22.10,    17.89,    12.85,    14.56
      105.0,      16.79,    22.02,    17.85,    12.79,    14.50
      106.0,      16.73,    21.94,    17.80,    12.74,    14.44
      107.0,      16.67,    21.86,    17.76,    12.68,    14.37
      108.0,      16.61,    21.79,    17.72,    12.63,    14.31
      109.0,      16.55,    21.71,    17.68,    12.57,    14.26
      110.0,      16.50,    21.63,    17.64,    12.52,    14.20
      111.0,      16.44,    21.56,    17.60,    12.47,    14.14
      112.0,      16.39,    21.49,    17.56,    12.42,    14.09
      113.0,      16.34,    21.41,    17.52,    12.38,    14.04
      114.0,      16.29,    21.34,    17.48,    12.33,    13.98
      115.0,      16.23,    21.27,    17.45,    12.28,    13.93
      116.0,      16.18,    21.20,    17.41,    12.24,    13.88
      117.0,      16.13,    21.13,    17.38,    12.20,    13.83
      118.0,      16.09,    21.07,    17.34,    12.15,    13.79
      119.0,      16.04,    21.00,    17.31,    12.11,    13.74
      120.0,      15.99,    20.93,    17.27,    12.07,    13.69
      121.0,      15.95,    20.86,    17.24,    12.03,    13.65
      122.0,      15.90,    20.80,    17.21,    11.99,    13.60
      123.0,      15.86,    20.73,    17.17,    11.96,    13.56
      124.0,      15.81,    20.67,    17.14,    11.92,    13.52
      125.0,      15.77,    20.61,    17.11,    11.88,    13.48
      126.0,      15.73,    20.54,    17.08,    11.85,    13.43
      127.0,      15.68,    20.48,    17.05,    11.81,    13.39
      128.0,      15.64,    20.42,    17.02,    11.78,    13.35
      129.0,      15.60,    20.36,    16.99,    11.75,    13.32
      130.0,      15.56,    20.30,    16.96,    11.71,    13.28
      131.0,      15.52,    20.24,    16.93,    11.68,    13.24
      132.0,      15.48,    20.18,    16.90,    11.65,    13.20
      133.0,      15.44,    20.12,    16.87,    11.62,    13.17
      134.0,      15.41,    20.06,    16.85,    11.59,    13.13
      135.0,      15.37,    20.00,    16.82,    11.56,    13.09
      136.0,      15.33,    19.94,    16.79,    11.53,    13.06
      137.0,      15.30,    19.89,    16.76,    11.50,    13.03
      138.0,      15.26,    19.83,    16.74,    11.48,    12.99
      139.0,      15.22,    19.77,    16.71,    11.45,    12.96
      140.0,      15.19,    19.72,    16.69,    11.42,    12.92
      141.0,      15.15,    19.66,    16.66,    11.40,    12.89
      142.0,      15.12,    19.61,    16.63,    11.37,    12.86
      143.0,      15.08,    19.55,    16.61,    11.35,    12.83
      144.0,      15.05,    19.50,    16.58,    11.32,    12.80
      145.0,      15.02,    19.44,    16.56,    11.30,    12.77
      146.0,      14.98,    19.39,    16.53,    11.27,    12.74
      147.0,      14.95,    19.34,    16.51,    11.25,    12.71
      148.0,      14.92,    19.28,    16.49,    11.22,    12.68
      149.0,      14.89,    19.23,    16.46,    11.20,    12.65
      150.0,      14.85,    19.18,    16.44,    11.18,    12.62
      151.0,      14.82,    19.13,    16.41,    11.16,    12.59
      152.0,      14.79,    19.07,    16.39,    11.14,    12.56
      153.0,      14.76,    19.02,    16.37,    11.11,    12.53
      154.0,      14.73,    18.97,    16.35,    11.09,    12.50
      155.0,      14.70,    18.92,    16.32,    11.07,    12.48
      156.0,      14.67,    18.87,    16.30,    11.05,    12.45
      157.0,      14.64,    18.82,    16.28,    11.03,    12.42
      158.0,      14.61,    18.77,    16.25,    11.01,    12.39
      159.0,      14.58,    18.72,    16.23,    10.99,    12.37
      160.0,      14.55,    18.67,    16.21,    10.97,    12.34
      161.0,      14.52,    18.62,    16.19,    10.95,    12.32
      162.0,      14.49,    18.57,    16.17,    10.94,    12.29
      163.0,      14.46,    18.52,    16.15,    10.92,    12.26
      164.0,      14.43,    18.47,    16.12,    10.90,    12.24
      165.0,      14.41,    18.43,    16.10,    10.88,    12.21
      166.0,      14.38,    18.38,    16.08,    10.86,    12.19
      167.0,      14.35,    18.33,    16.06,    10.84,    12.16
      168.0,      14.32,    18.28,    16.04,    10.83,    12.14
      169.0,      14.29,    18.24,    16.02,    10.81,    12.11
      170.0,      14.27,    18.19,    16.00,    10.79,    12.09
      171.0,      14.24,    18.14,    15.98,    10.78,    12.06
      172.0,      14.21,    18.09,    15.96,    10.76,    12.04
      173.0,      14.19,    18.05,    15.94,    10.74,    12.02
      174.0,      14.16,    18.00,    15.92,    10.73,    11.99
      175.0,      14.13,    17.95,    15.90,    10.71,    11.97
      176.0,      14.11,    17.91,    15.88,    10.70,    11.95
      177.0,      14.08,    17.86,    15.86,    10.68,    11.92
      178.0,      14.05,    17.82,    15.84,    10.66,    11.90
      179.0,      14.03,    17.77,    15.82,    10.65,    11.88
      180.0,      14.00,    17.73,    15.80,    10.63,    11.85
      181.0,      13.98,    17.68,    15.78,    10.62,    11.83
      182.0,      13.95,    17.64,    15.76,    10.60,    11.81
      183.0,      13.93,    17.59,    15.74,    10.59,    11.79
      184.0,      13.90,    17.55,    15.72,    10.57,    11.76
      185.0,      13.87,    17.50,    15.70,    10.56,    11.74
      186.0,      13.85,    17.46,    15.68,    10.55,    11.72
      187.0,      13.82,    17.41,    15.66,    10.53,    11.70
      188.0,      13.80,    17.37,    15.64,    10.52,    11.67
      189.0,      13.78,    17.33,    15.62,    10.50,    11.65
      190.0,      13.75,    17.28,    15.60,    10.49,    11.63
      191.0,      13.73,    17.24,    15.58,    10.47,    11.61
      192.0,      13.70,    17.20,    15.56,    10.46,    11.59
      193.0,      13.68,    17.15,    15.54,    10.45,    11.57
      194.0,      13.65,    17.11,    15.53,    10.43,    11.54
      195.0,      13.63,    17.07,    15.51,    10.42,    11.52
      196.0,      13.60,    17.02,    15.49,    10.41,    11.50
      197.0,      13.58,    16.98,    15.47,    10.39,    11.48
      198.0,      13.56,    16.94,    15.45,    10.38,    11.46
      199.0,      13.53,    16.90,    15.43,    10.37,    11.44
      200.0,      13.51,    16.85,    15.41,    10.35,    11.42
      201.0,      13.49,    16.81,    15.39,    10.34,    11.40
      202.0,      13.46,    16.77,    15.38,    10.33,    11.38
      203.0,      13.44,    16.73,    15.36,    10.32,    11.36
      204.0,      13.42,    16.69,    15.34,    10.30,    11.33
      205.0,      13.39,    16.64,    15.32,    10.29,    11.31
      206.0,      13.37,    16.60,    15.30,    10.28,    11.29
      207.0,      13.35,    16.56,    15.28,    10.27,    11.27
      208.0,      13.32,    16.52,    15.27,    10.25,    11.25
      209.0,      13.30,    16.48,    15.25,    10.24,    11.23
      210.0,      13.28,    16.44,    15.23,    10.23,    11.21
      211.0,      13.25,    16.40,    15.21,    10.22,    11.19
      212.0,      13.23,    16.36,    15.19,    10.20,    11.17
      213.0,      13.21,    16.32,    15.18,    10.19,    11.15
      214.0,      13.19,    16.28,    15.16,    10.18,    11.13
      215.0,      13.16,    16.24,    15.14,    10.17,    11.11
      216.0,      13.14,    16.20,    15.12,    10.16,    11.09
      217.0,      13.12,    16.16,    15.10,    10.15,    11.07
      218.0,      13.10,    16.12,    15.09,    10.13,    11.05
      219.0,      13.07,    16.08,    15.07,    10.12,    11.03
      220.0,      13.05,    16.04,    15.05,    10.11,    11.01
      221.0,      13.03,    16.00,    15.03,    10.10,    10.99
      222.0,      13.01,    15.96,    15.02,    10.09,    10.97
      223.0,      12.99,    15.92,    15.00,    10.08,    10.96
      224.0,      12.96,    15.88,    14.98,    10.06,    10.94
      225.0,      12.94,    15.84,    14.96,    10.05,    10.92
      226.0,      12.92,    15.80,    14.94,    10.04,    10.90
      227.0,      12.90,    15.76,    14.93,    10.03,    10.88
      228.0,      12.88,    15.72,    14.91,    10.02,    10.86
      229.0,      12.86,    15.68,    14.89,    10.01,    10.84
      230.0,      12.83,    15.64,    14.87,    10.00,    10.82
      231.0,      12.81,    15.61,    14.86,     9.99,    10.80
      232.0,      12.79,    15.57,    14.84,     9.97,    10.78
      233.0,      12.77,    15.53,    14.82,     9.96,    10.76
      234.0,      12.75,    15.49,    14.81,     9.95,    10.74
      235.0,      12.73,    15.45,    14.79,     9.94,    10.73
      236.0,      12.71,    15.41,    14.77,     9.93,    10.71
      237.0,      12.68,    15.38,    14.75,     9.92,    10.69
      238.0,      12.66,    15.34,    14.74,     9.91,    10.67
      239.0,      12.64,    15.30,    14.72,     9.90,    10.65
      240.0,      12.62,    15.26,    14.70,     9.89,    10.63
      241.0,      12.60,    15.23,    14.68,     9.88,    10.61
      242.0,      12.58,    15.19,    14.67,     9.86,    10.59
      243.0,      12.56,    15.15,    14.65,     9.85,    10.58
      244.0,      12.54,    15.11,    14.63,     9.84,    10.56
      245.0,      12.52,    15.08,    14.62,     9.83,    10.54
      246.0,      12.50,    15.04,    14.60,     9.82,    10.52
      247.0,      12.47,    15.00,    14.58,     9.81,    10.50
      248.0,      12.45,    14.97,    14.57,     9.80,    10.48
      249.0,      12.43,    14.93,    14.55,     9.79,    10.47
      250.0,      12.41,    14.89,    14.53,     9.78,    10.45
      251.0,      12.39,    14.86,    14.52,     9.77,    10.43
      252.0,      12.37,    14.82,    14.50,     9.76,    10.41
      253.0,      12.35,    14.78,    14.48,     9.75,    10.39
      254.0,      12.33,    14.75,    14.46,     9.74,    10.37
      255.0,      12.31,    14.71,    14.45,     9.73,    10.36
      256.0,      12.29,    14.68,    14.43,     9.72,    10.34
      257.0,      12.27,    14.64,    14.41,     9.71,    10.32
      258.0,      12.25,    14.60,    14.40,     9.70,    10.30
      259.0,      12.23,    14.57,    14.38,     9.69,    10.28
      260.0,      12.21,    14.53,    14.36,     9.67,    10.27
      261.0,      12.19,    14.50,    14.35,     9.66,    10.25
      262.0,      12.17,    14.46,    14.33,     9.65,    10.23
      263.0,      12.15,    14.43,    14.31,     9.64,    10.21
      264.0,      12.13,    14.39,    14.30,     9.63,    10.19
      265.0,      12.11,    14.35,    14.28,     9.62,    10.18
      266.0,      12.09,    14.32,    14.26,     9.61,    10.16
      267.0,      12.07,    14.28,    14.25,     9.60,    10.14
      268.0,      12.05,    14.25,    14.23,     9.59,    10.12
      269.0,      12.03,    14.21,    14.22,     9.58,    10.11
      270.0,      12.01,    14.18,    14.20,     9.57,    10.09
      271.0,      11.99,    14.14,    14.18,     9.56,    10.07
      272.0,      11.97,    14.11,    14.17,     9.55,    10.05
      273.0,      11.95,    14.08,    14.15,     9.54,    10.04
      274.0,      11.93,    14.04,    14.13,     9.53,    10.02
      275.0,      11.91,    14.01,    14.12,     9.52,    10.00
      276.0,      11.89,    13.97,    14.10,     9.51,     9.98
      277.0,      11.87,    13.94,    14.08,     9.50,     9.97
      278.0,      11.85,    13.90,    14.07,     9.49,     9.95
      279.0,      11.83,    13.87,    14.05,     9.48,     9.93
      280.0,      11.81,    13.84,    14.04,     9.47,     9.91
      281.0,      11.80,    13.80,    14.02,     9.46,     9.90
      282.0,      11.78,    13.77,    14.00,     9.45,     9.88
      283.0,      11.76,    13.73,    13.99,     9.44,     9.86
      284.0,      11.74,    13.70,    13.97,     9.43,     9.85
      285.0,      11.72,    13.67,    13.95,     9.42,     9.83
      286.0,      11.70,    13.63,    13.94,     9.41,     9.81
      287.0,      11.68,    13.60,    13.92,     9.40,     9.79
      288.0,      11.66,    13.57,    13.91,     9.39,     9.78
      289.0,      11.64,    13.53,    13.89,     9.38,     9.76
      290.0,      11.62,    13.50,    13.87,     9.37,     9.74
      291.0,      11.60,    13.47,    13.86,     9.36,     9.73
      292.0,      11.59,    13.44,    13.84,     9.35,     9.71
      293.0,      11.57,    13.40,    13.83,     9.34,     9.69
      294.0,      11.55,    13.37,    13.81,     9.33,     9.68
      295.0,      11.53,    13.34,    13.79,     9.32,     9.66
      296.0,      11.51,    13.30,    13.78,     9.31,     9.64
      297.0,      11.49,    13.27,    13.76,     9.31,     9.63
      298.0,      11.47,    13.24,    13.75,     9.30,     9.61
      299.0,      11.45,    13.21,    13.73,     9.29,     9.59
      300.0,      11.44,    13.17,    13.71,     9.28,     9.58
      301.0,      11.42,    13.14,    13.70,     9.27,     9.56
      302.0,      11.40,    13.11,    13.68,     9.26,     9.54
      303.0,      11.38,    13.08,    13.67,     9.25,     9.53
      304.0,      11.36,    13.05,    13.65,     9.24,     9.51
      305.0,      11.34,    13.01,    13.64,     9.23,     9.49
      306.0,      11.32,    12.98,    13.62,     9.22,     9.48
      307.0,      11.31,    12.95,    13.60,     9.21,     9.46
      308.0,      11.29,    12.92,    13.59,     9.20,     9.44
      309.0,      11.27,    12.89,    13.57,     9.19,     9.43
      310.0,      11.25,    12.86,    13.56,     9.18,     9.41
