Radius (km), Mean (m/s), NE (m/s), SE (m/s), SW (m/s), NW (m/s)
        0.0,       0.00,     0.00,     0.00,     0.00,     0.00
        1.0,       3.19,     2.95,     3.38,     3.41,     3.03
        2.0,       5.75,     5.57,     5.89,     5.89,     5.64
        3.0,       8.16,     8.13,     8.22,     8.14,     8.14
        4.0,      10.57,    10.72,    10.53,    10.36,    10.66
        5.0,      13.09,    13.46,    12.95,    12.65,    13.31
        6.0,      15.79,    16.41,    15.51,    15.07,    16.18
        7.0,      18.69,    19.61,    18.23,    17.64,    19.30
        8.0,      21.76,    23.03,    21.04,    20.33,    22.65
        9.0,      24.90,    26.56,    23.84,    23.05,    26.13
       10.0,      27.98,    30.07,    26.53,    25.69,    29.62
       11.0,      30.86,    33.40,    28.98,    28.12,    32.93
       12.0,      33.39,    36.39,    31.06,    30.23,    35.89
       13.0,      35.47,    38.89,    32.71,    31.93,    38.35
       14.0,      37.02,    40.83,    33.89,    33.16,    40.21
       15.0,      38.03,    42.17,    34.60,    33.92,    41.44
       16.0,      38.52,    42.92,    34.89,    34.24,    42.05
       17.0,      38.58,    43.18,    34.85,    34.19,    42.12
       18.0,      38.31,    43.05,    34.56,    33.88,    41.76
       19.0,      37.81,    42.65,    34.12,    33.38,    41.11
       20.0,      37.20,    42.10,    33.61,    32.80,    40.29
       21.0,      36.55,    41.50,    33.10,    32.19,    39.42
       22.0,      35.92,    40.91,    32.59,    31.60,    38.56
       23.0,      35.31,    40.35,    32.12,    31.03,    37.74
       24.0,      34.74,    39.82,    31.66,    30.49,    36.97
       25.0,      34.19,    39.32,    31.22,    29.97,    36.24
       26.0,      33.65,    38.83,    30.79,    29.46,    35.53
       27.0,      33.13,    38.35,    30.38,    28.96,    34.84
       28.0,      32.63,    37.89,    29.98,    28.48,    34.17
       29.0,      32.14,    37.44,    29.59,    28.01,    33.52
       30.0,      31.67,    37.00,    29.21,    27.56,    32.90
       31.0,      31.21,    36.58,    28.85,    27.12,    32.29
       32.0,      30.76,    36.16,    28.50,    26.68,    31.71
       33.0,      30.33,    35.76,    28.15,    26.27,    31.14
       34.0,      29.91,    35.37,    27.82,    25.86,    30.59
       35.0,      29.50,    34.99,    27.50,    25.46,    30.05
       36.0,      29.11,    34.62,    27.19,    25.07,    29.54
       37.0,      28.72,    34.26,    26.89,    24.70,    29.04
       38.0,      28.35,    33.91,    26.60,    24.33,    28.55
       39.0,      27.99,    33.57,    26.31,    23.98,    28.08
       40.0,      27.63,    33.24,    26.04,    23.63,    27.63
       41.0,      27.29,    32.91,    25.77,    23.30,    27.18
       42.0,      26.96,    32.60,    25.51,    22.97,    26.76
       43.0,      26.64,    32.29,    25.26,    22.65,    26.34
       44.0,      26.32,    32.00,    25.02,    22.34,    25.94
       45.0,      26.02,    31.71,    24.78,    22.04,    25.55
       46.0,      25.73,    31.42,    24.56,    21.75,    25.17
       47.0,      25.44,    31.15,    24.34,    21.46,    24.81
       48.0,      25.16,    30.88,    24.12,    21.18,    24.45
       49.0,      24.89,    30.62,    23.91,    20.91,    24.11
       50.0,      24.63,    30.36,    23.71,    20.65,    23.78
       51.0,      24.37,    30.12,    23.51,    20.39,    23.46
       52.0,      24.12,    29.87,    23.32,    20.14,    23.14
       53.0,      23.88,    29.64,    23.14,    19.90,    22.84
       54.0,      23.64,    29.41,    22.96,    19.67,    22.54
       55.0,      23.42,    29.18,    22.78,    19.44,    22.26
       56.0,      23.19,    28.96,    22.62,    19.21,    21.98
       57.0,      22.98,    28.75,    22.45,    19.00,    21.71
       58.0,      22.77,    28.54,    22.29,    18.78,    21.45
       59.0,      22.56,    28.34,    22.14,    18.58,    21.20
       60.0,      22.36,    28.14,    21.99,    18.38,    20.95
       61.0,      22.17,    27.94,    21.84,    18.18,    20.72
       62.0,      21.98,    27.75,    21.70,    17.99,    20.48
       63.0,      21.80,    27.57,    21.56,    17.81,    20.26
       64.0,      21.62,    27.39,    21.43,    17.63,    20.04
       65.0,      21.45,    27.21,    21.30,    17.45,    19.83
       66.0,      21.28,    27.04,    21.17,    17.28,    19.63
       67.0,      21.11,    26.87,    21.05,    17.11,    19.43
       68.0,      20.95,    26.70,    20.93,    16.95,    19.23
       69.0,      20.80,    26.54,    20.81,    16.79,    19.05
       70.0,      20.64,    26.38,    20.70,    16.64,    18.86
       71.0,      20.50,    26.23,    20.59,    16.49,    18.69
       72.0,      20.35,    26.07,    20.48,    16.34,    18.51
       73.0,      20.21,    25.93,    20.38,    16.20,    18.35
       74.0,      20.08,    25.78,    20.27,    16.06,    18.18
       75.0,      19.94,    25.64,    20.18,    15.93,    18.03
       76.0,      19.81,    25.50,    20.08,    15.80,    17.87
       77.0,      19.68,    25.36,    19.99,    15.67,    17.72
       78.0,      19.56,    25.23,    19.89,    15.54,    17.58
       79.0,      19.44,    25.10,    19.80,    15.42,    17.44
       80.0,      19.32,    24.97,    19.72,    15.30,    17.30
       81.0,      19.21,    24.84,    19.63,    15.19,    17.17
       82.0,      19.09,    24.72,    19.55,    15.07,    17.04
       83.0,      18.99,    24.59,    19.47,    14.96,    16.91
       84.0,      18.88,    24.48,    19.39,    14.86,    16.79
       85.0,      18.77,    24.36,    19.32,    14.75,    16.67
       86.0,      18.67,    24.24,    19.24,    14.65,    16.55
       87.0,      18.57,    24.13,    19.17,    14.55,    16.44
       88.0,      18.48,    24.02,    19.10,    14.46,    16.33
       89.0,      18.38,    23.91,    19.03,    14.36,    16.22
       90.0,      18.29,    23.80,    18.96,    14.27,    16.12
       91.0,      18.20,    23.70,    18.90,    14.18,    16.02
       92.0,      18.11,    23.60,    18.83,    14.09,    15.92
       93.0,      18.02,    23.49,    18.77,    14.01,    15.82
       94.0,      17.94,    23.39,    18.71,    13.92,    15.72
       95.0,      17.85,    23.29,    18.65,    13.84,    15.63
       96.0,      17.77,    23.20,    18.59,    13.76,    15.54
       97.0,      17.69,    23.10,    18.53,    13.68,    15.46
       98.0,      17.62,    23.01,    18.47,    13.61,    15.37
       99.0,      17.54,    22.92,    18.42,    13.54,    15.29
      100.0,      17.46,    22.83,    18.36,    13.46,    15.21
      101.0,      17.39,    22.74,    18.31,    13.39,    15.13
      102.0,      17.32,    22.65,    18.26,    13.32,    15.05
      103.0,      17.25,    22.56,    18.21,    13.26,    14.97
      104.0,      17.18,    22.47,    18.16,    13.19,    14.90
      105.0,      17.11,    22.39,    18.11,    13.13,    14.83
      106.0,      17.05,    22.31,    18.06,    13.07,    14.76
      107.0,      16.98,    22.22,    18.02,    13.00,    14.69
      108.0,      16.92,    22.14,    17.97,    12.95,    14.62
      109.0,      16.86,    22.06,    17.93,    12.89,    14.56
      110.0,      16.80,    21.98,    17.88,    12.83,    14.49
      111.0,      16.74,    21.90,    17.84,    12.77,    14.43
      112.0,      16.68,    21.83,    17.80,    12.72,    14.37
      113.0,      16.62,    21.75,    17.75,    12.67,    14.31
      114.0,      16.56,    21.68,    17.71,    12.61,    14.25
      115.0,      16.51,    21.60,    17.67,    12.56,    14.19
      116.0,      16.45,    21.53,    17.63,    12.51,    14.13
      117.0,      16.40,    21.46,    17.59,    12.47,    14.08
      118.0,      16.35,    21.38,    17.56,    12.42,    14.03
      119.0,      16.29,    21.31,    17.52,    12.37,    13.97
      120.0,      16.24,    21.24,    17.48,    12.33,    13.92
      121.0,      16.19,    21.17,    17.44,    12.28,    13.87
      122.0,      16.14,    21.10,    17.41,    12.24,    13.82
      123.0,      16.09,    21.04,    17.37,    12.20,    13.77
      124.0,      16.05,    20.97,    17.34,    12.15,    13.72
      125.0,      16.00,    20.90,    17.30,    12.11,    13.67
      126.0,      15.95,    20.84,    17.27,    12.07,    13.63
      127.0,      15.91,    20.77,    17.24,    12.03,    13.58
      128.0,      15.86,    20.71,    17.20,    11.99,    13.54
      129.0,      15.82,    20.64,    17.17,    11.96,    13.49
      130.0,      15.77,    20.58,    17.14,    11.92,    13.45
      131.0,      15.73,    20.52,    17.11,    11.88,    13.41
      132.0,      15.69,    20.45,    17.08,    11.85,    13.37
      133.0,      15.64,    20.39,    17.05,    11.81,    13.33
      134.0,      15.60,    20.33,    17.02,    11.78,    13.29
      135.0,      15.56,    20.27,    16.99,    11.75,    13.25
      136.0,      15.52,    20.21,    16.96,    11.71,    13.21
      137.0,      15.48,    20.15,    16.93,    11.68,    13.17
      138.0,      15.44,    20.09,    16.90,    11.65,    13.13
      139.0,      15.40,    20.03,    16.87,    11.62,    13.09
      140.0,      15.36,    19.97,    16.84,    11.59,    13.06
      141.0,      15.33,    19.91,    16.81,    11.56,    13.02
      142.0,      15.29,    19.86,    16.79,    11.53,    12.98
      143.0,      15.25,    19.80,    16.76,    11.50,    12.95
      144.0,      15.22,    19.74,    16.73,    11.47,    12.91
      145.0,      15.18,    19.69,    16.71,    11.44,    12.88
      146.0,      15.14,    19.63,    16.68,    11.42,    12.85
      147.0,      15.11,    19.58,    16.65,    11.39,    12.81
      148.0,      15.07,    19.52,    16.63,    11.36,    12.78
      149.0,      15.04,    19.47,    16.60,    11.34,    12.75
      150.0,      15.00,    19.41,    16.58,    11.31,    12.72
      151.0,      14.97,    19.36,    16.55,    11.29,    12.68
      152.0,      14.94,    19.30,    16.53,    11.26,    12.65
      153.0,      14.90,    19.25,    16.50,    11.24,    12.62
      154.0,      14.87,    19.20,    16.48,    11.21,    12.59
      155.0,      14.84,    19.15,    16.45,    11.19,    12.56
      156.0,      14.80,    19.09,    16.43,    11.17,    12.53
      157.0,      14.77,    19.04,    16.40,    11.14,    12.50
      158.0,      14.74,    18.99,    16.38,    11.12,    12.47
      159.0,      14.71,    18.94,    16.36,    11.10,    12.44
      160.0,      14.68,    18.89,    16.33,    11.08,    12.42
      161.0,      14.65,    18.84,    16.31,    11.06,    12.39
      162.0,      14.62,    18.79,    16.29,    11.03,    12.36
      163.0,      14.59,    18.74,    16.26,    11.01,    12.33
      164.0,      14.56,    18.69,    16.24,    10.99,    12.31
      165.0,      14.53,    18.64,    16.22,    10.97,    12.28
      166.0,      14.50,    18.59,    16.20,    10.95,    12.25
      167.0,      14.47,    18.54,    16.17,    10.93,    12.22
      168.0,      14.44,    18.49,    16.15,    10.91,    12.20
      169.0,      14.41,    18.44,    16.13,    10.89,    12.17
      170.0,      14.38,    18.39,    16.11,    10.87,    12.15
      171.0,      14.35,    18.34,    16.09,    10.86,    12.12
      172.0,      14.32,    18.29,    16.06,    10.84,    12.09
      173.0,      14.29,    18.25,    16.04,    10.82,    12.07
      174.0,      14.27,    18.20,    16.02,    10.80,    12.04
      175.0,      14.24,    18.15,    16.00,    10.78,    12.02
      176.0,      14.21,    18.10,    15.98,    10.76,    11.99
      177.0,      14.18,    18.06,    15.96,    10.75,    11.97
      178.0,      14.16,    18.01,    15.94,    10.73,    11.95
      179.0,      14.13,    17.96,    15.92,    10.71,    11.92
      180.0,      14.10,    17.92,    15.89,    10.70,    11.90
      181.0,      14.07,    17.87,    15.87,    10.68,    11.87
      182.0,      14.05,    17.83,    15.85,    10.66,    11.85
      183.0,      14.02,    17.78,    15.83,    10.65,    11.83
      184.0,      13.99,    17.73,    15.81,    10.63,    11.80
      185.0,      13.97,    17.69,    15.79,    10.61,    11.78
      186.0,      13.94,    17.64,    15.77,    10.60,    11.76
      187.0,      13.92,    17.60,    15.75,    10.58,    11.73
      188.0,      13.89,    17.55,    15.73,    10.57,    11.71
      189.0,      13.87,    17.51,    15.71,    10.55,    11.69
      190.0,      13.84,    17.46,    15.69,    10.54,    11.67
      191.0,      13.81,    17.42,    15.67,    10.52,    11.64
      192.0,      13.79,    17.38,    15.65,    10.51,    11.62
      193.0,      13.76,    17.33,    15.63,    10.49,    11.60
      194.0,      13.74,    17.29,    15.61,    10.48,    11.58
      195.0,      13.71,    17.24,    15.59,    10.46,    11.56
      196.0,      13.69,    17.20,    15.57,    10.45,    11.53
      197.0,      13.66,    17.16,    15.55,    10.43,    11.51
      198.0,      13.64,    17.11,    15.53,    10.42,    11.49
      199.0,      13.62,    17.07,    15.52,    10.41,    11.47
      200.0,      13.59,    17.03,    15.50,    10.39,    11.45
      201.0,      13.57,    16.98,    15.48,    10.38,    11.43
      202.0,      13.54,    16.94,    15.46,    10.36,    11.41
      203.0,      13.52,    16.90,    15.44,    10.35,    11.38
      204.0,      13.49,    16.86,    15.42,    10.34,    11.36
      205.0,      13.47,    16.81,    15.40,    10.32,    11.34
      206.0,      13.45,    16.77,    15.38,    10.31,    11.32
      207.0,      13.42,    16.73,    15.36,    10.30,    11.30
      208.0,      13.40,    16.69,    15.34,    10.28,    11.28
      209.0,      13.38,    16.65,    15.32,    10.27,    11.26
      210.0,      13.35,    16.61,    15.31,    10.26,    11.24
      211.0,      13.33,    16.56,    15.29,    10.24,    11.22
      212.0,      13.31,    16.52,    15.27,    10.23,    11.20
      213.0,      13.28,    16.48,    15.25,    10.22,    11.18
      214.0,      13.26,    16.44,    15.23,    10.21,    11.16
      215.0,      13.24,    16.40,    15.21,    10.19,    11.14
      216.0,      13.21,    16.36,    15.19,    10.18,    11.12
      217.0,      13.19,    16.32,    15.18,    10.17,    11.10
      218.0,      13.17,    16.28,    15.16,    10.16,    11.08
      219.0,      13.15,    16.24,    15.14,    10.14,    11.06
      220.0,      13.12,    16.20,    15.12,    10.13,    11.04
      221.0,      13.10,    16.16,    15.10,    10.12,    11.02
      222.0,      13.08,    16.12,    15.08,    10.11,    11.00
      223.0,      13.06,    16.08,    15.07,    10.10,    10.98
      224.0,      13.03,    16.04,    15.05,    10.08,    10.96
      225.0,      13.01,    16.00,    15.03,    10.07,    10.94
      226.0,      12.99,    15.96,    15.01,    10.06,    10.92
      227.0,      12.97,    15.92,    14.99,    10.05,    10.90
      228.0,      12.94,    15.88,    14.98,    10.04,    10.88
      229.0,      12.92,    15.84,    14.96,    10.02,    10.86
      230.0,      12.90,    15.80,    14.94,    10.01,    10.85
      231.0,      12.88,    15.76,    14.92,    10.00,    10.83
      232.0,      12.86,    15.72,    14.91,     9.99,    10.81
      233.0,      12.83,    15.68,    14.89,     9.98,    10.79
      234.0,      12.81,    15.65,    14.87,     9.97,    10.77
      235.0,      12.79,    15.61,    14.85,     9.96,    10.75
      236.0,      12.77,    15.57,    14.83,     9.94,    10.73
      237.0,      12.75,    15.53,    14.82,     9.93,    10.71
      238.0,      12.73,    15.49,    14.80,     9.92,    10.70
      239.0,      12.71,    15.45,    14.78,     9.91,    10.68
      240.0,      12.68,    15.42,    14.76,     9.90,    10.66
      241.0,      12.66,    15.38,    14.75,     9.89,    10.64
      242.0,      12.64,    15.34,    14.73,     9.88,    10.62
      243.0,      12.62,    15.30,    14.71,     9.87,    10.60
      244.0,      12.60,    15.26,    14.69,     9.86,    10.58
      245.0,      12.58,    15.23,    14.68,     9.84,    10.57
      246.0,      12.56,    15.19,    14.66,     9.83,    10.55
      247.0,      12.54,    15.15,    14.64,     9.82,    10.53
      248.0,      12.52,    15.12,    14.62,     9.81,    10.51
      249.0,      12.49,    15.08,    14.61,     9.80,    10.49
      250.0,      12.47,    15.04,    14.59,     9.79,    10.48
      251.0,      12.45,    15.00,    14.57,     9.78,    10.46
      252.0,      12.43,    14.97,    14.55,     9.77,    10.44
      253.0,      12.41,    14.93,    14.54,     9.76,    10.42
      254.0,      12.39,    14.89,    14.52,     9.75,    10.40
      255.0,      12.37,    14.86,    14.50,     9.74,    10.39
      256.0,      12.35,    14.82,    14.49,     9.73,    10.37
      257.0,      12.33,    14.78,    14.47,     9.72,    10.35
      258.0,      12.31,    14.75,    14.45,     9.70,    10.33
      259.0,      12.29,    14.71,    14.43,     9.69,    10.31
      260.0,      12.27,    14.68,    14.42,     9.68,    10.30
      261.0,      12.25,    14.64,    14.40,     9.67,    10.28
      262.0,      12.23,    14.60,    14.38,     9.66,    10.26
      263.0,      12.21,    14.57,    14.37,     9.65,    10.24
      264.0,      12.19,    14.53,    14.35,     9.64,    10.23
      265.0,      12.17,    14.50,    14.33,     9.63,    10.21
      266.0,      12.15,    14.46,    14.32,     9.62,    10.19
      267.0,      12.13,    14.43,    14.30,     9.61,    10.17
      268.0,      12.11,    14.39,    14.28,     9.60,    10.16
      269.0,      12.09,    14.36,    14.27,     9.59,    10.14
      270.0,      12.07,    14.32,    14.25,     9.58,    10.12
      271.0,      12.05,    14.29,    14.23,     9.57,    10.10
      272.0,      12.03,    14.25,    14.22,     9.56,    10.09
      273.0,      12.01,    14.22,    14.20,     9.55,    10.07
      274.0,      11.99,    14.18,    14.18,     9.54,    10.05
      275.0,      11.97,    14.15,    14.17,     9.53,    10.04
      276.0,      11.95,    14.11,    14.15,     9.52,    10.02
      277.0,      11.93,    14.08,    14.13,     9.51,    10.00
      278.0,      11.91,    14.04,    14.12,     9.50,     9.98
      279.0,      11.89,    14.01,    14.10,     9.49,     9.97
      280.0,      11.87,    13.97,    14.08,     9.48,     9.95
      281.0,      11.85,    13.94,    14.07,     9.47,     9.93
      282.0,      11.83,    13.91,    14.05,     9.46,     9.92
      283.0,      11.81,    13.87,    14.03,     9.45,     9.90
      284.0,      11.79,    13.84,    14.02,     9.44,     9.88
      285.0,      11.77,    13.80,    14.00,     9.43,     9.87
      286.0,      11.76,    13.77,    13.98,     9.42,     9.85
      287.0,      11.74,    13.74,    13.97,     9.41,     9.83
      288.0,      11.72,    13.70,    13.95,     9.40,     9.82
      289.0,      11.70,    13.67,    13.93,     9.39,     9.80
      290.0,      11.68,    13.64,    13.92,     9.38,     9.78
      291.0,      11.66,    13.60,    13.90,     9.37,     9.77
      292.0,      11.64,    13.57,    13.89,     9.36,     9.75
      293.0,      11.62,    13.54,    13.87,     9.35,     9.73
      294.0,      11.60,    13.50,    13.85,     9.34,     9.72
      295.0,      11.58,    13.47,    13.84,     9.33,     9.70
      296.0,      11.57,    13.44,    13.82,     9.32,     9.68
      297.0,      11.55,    13.41,    13.80,     9.31,     9.67
      298.0,      11.53,    13.37,    13.79,     9.30,     9.65
      299.0,      11.51,    13.34,    13.77,     9.29,     9.63
      300.0,      11.49,    13.31,    13.76,     9.28,     9.62
      301.0,      11.47,    13.27,    13.74,     9.27,     9.60
      302.0,      11.45,    13.24,    13.72,     9.26,     9.58
      303.0,      11.43,    13.21,    13.71,     9.25,     9.57
      304.0,      11.42,    13.18,    13.69,     9.24,     9.55
      305.0,      11.40,    13.15,    13.67,     9.23,     9.54
      306.0,      11.38,    13.11,    13.66,     9.23,     9.52
      307.0,      11.36,    13.08,    13.64,     9.22,     9.50
      308.0,      11.34,    13.05,    13.63,     9.21,     9.49
      309.0,      11.32,    13.02,    13.61,     9.20,     9.47
      310.0,      11.31,    12.99,    13.60,     9.19,     9.46
