Radius (km), Mean (m/s), NE (m/s), SE (m/s), SW (m/s), NW (m/s)
        0.0,       0.00,     0.00,     0.00,     0.00,     0.00
        1.0,       2.63,     2.60,     2.66,     2.66,     2.60
        2.0,       4.30,     4.29,     4.31,     4.31,     4.29
        3.0,       5.73,     5.75,     5.70,     5.70,     5.75
        4.0,       7.02,     7.08,     6.97,     6.97,     7.08
        5.0,       8.23,     8.32,     8.13,     8.13,     8.32
        6.0,       9.36,     9.50,     9.23,     9.23,     9.50
        7.0,      10.44,    10.62,    10.27,    10.27,    10.62
        8.0,      11.48,    11.69,    11.27,    11.27,    11.69
        9.0,      12.48,    12.73,    12.23,    12.23,    12.73
       10.0,      13.45,    13.74,    13.16,    13.16,    13.74
       11.0,      14.39,    14.72,    14.06,    14.06,    14.72
       12.0,      15.32,    15.71,    14.94,    14.94,    15.70
       13.0,      16.27,    16.72,    15.84,    15.82,    16.71
       14.0,      17.29,    17.82,    16.80,    16.74,    17.80
       15.0,      18.41,    19.03,    17.85,    17.76,    19.01
       16.0,      19.65,    20.35,    19.02,    18.89,    20.33
       17.0,      20.99,    21.77,    20.30,    20.14,    21.76
       18.0,      22.41,    23.24,    21.66,    21.48,    23.24
       19.0,      23.82,    24.70,    23.02,    22.85,    24.71
       20.0,      25.16,    26.05,    24.32,    24.18,    26.09
       21.0,      26.34,    27.23,    25.47,    25.38,    27.29
       22.0,      27.31,    28.18,    26.41,    26.38,    28.26
       23.0,      28.00,    28.86,    27.08,    27.10,    28.95
       24.0,      28.40,    29.26,    27.47,    27.53,    29.35
       25.0,      28.53,    29.40,    27.58,    27.66,    29.48
       26.0,      28.41,    29.31,    27.44,    27.51,    29.37
       27.0,      28.09,    29.05,    27.10,    27.14,    29.08
       28.0,      27.65,    28.68,    26.62,    26.61,    28.67
       29.0,      27.13,    28.25,    26.07,    25.98,    28.20
       30.0,      26.58,    27.81,    25.49,    25.31,    27.71
       31.0,      26.05,    27.38,    24.93,    24.65,    27.23
       32.0,      25.54,    26.97,    24.38,    24.02,    26.78
       33.0,      25.05,    26.58,    23.87,    23.42,    26.35
       34.0,      24.60,    26.20,    23.38,    22.86,    25.94
       35.0,      24.16,    25.84,    22.92,    22.32,    25.54
       36.0,      23.73,    25.50,    22.47,    21.80,    25.16
       37.0,      23.32,    25.17,    22.03,    21.30,    24.80
       38.0,      22.93,    24.85,    21.62,    20.82,    24.45
       39.0,      22.56,    24.54,    21.22,    20.36,    24.11
       40.0,      22.19,    24.24,    20.83,    19.91,    23.78
       41.0,      21.84,    23.96,    20.46,    19.49,    23.47
       42.0,      21.51,    23.68,    20.11,    19.08,    23.16
       43.0,      21.18,    23.42,    19.76,    18.68,    22.87
       44.0,      20.87,    23.16,    19.43,    18.30,    22.59
       45.0,      20.57,    22.92,    19.12,    17.94,    22.32
       46.0,      20.28,    22.68,    18.81,    17.59,    22.06
       47.0,      20.01,    22.45,    18.52,    17.25,    21.81
       48.0,      19.74,    22.23,    18.24,    16.92,    21.57
       49.0,      19.48,    22.02,    17.96,    16.61,    21.34
       50.0,      19.24,    21.81,    17.70,    16.31,    21.11
       51.0,      19.00,    21.62,    17.45,    16.02,    20.90
       52.0,      18.77,    21.43,    17.21,    15.74,    20.69
       53.0,      18.55,    21.24,    16.98,    15.48,    20.49
       54.0,      18.33,    21.07,    16.75,    15.22,    20.30
       55.0,      18.13,    20.90,    16.53,    14.97,    20.11
       56.0,      17.93,    20.73,    16.33,    14.73,    19.93
       57.0,      17.74,    20.57,    16.13,    14.51,    19.76
       58.0,      17.56,    20.42,    15.93,    14.28,    19.59
       59.0,      17.38,    20.27,    15.75,    14.07,    19.43
       60.0,      17.21,    20.13,    15.57,    13.87,    19.27
       61.0,      17.05,    19.99,    15.40,    13.67,    19.12
       62.0,      16.89,    19.86,    15.23,    13.48,    18.98
       63.0,      16.74,    19.73,    15.07,    13.30,    18.84
       64.0,      16.59,    19.61,    14.92,    13.12,    18.71
       65.0,      16.45,    19.49,    14.77,    12.96,    18.58
       66.0,      16.31,    19.37,    14.62,    12.79,    18.45
       67.0,      16.18,    19.26,    14.49,    12.64,    18.33
       68.0,      16.05,    19.15,    14.35,    12.49,    18.21
       69.0,      15.93,    19.05,    14.22,    12.34,    18.10
       70.0,      15.81,    18.95,    14.10,    12.20,    17.99
       71.0,      15.70,    18.85,    13.98,    12.07,    17.89
       72.0,      15.59,    18.75,    13.87,    11.94,    17.78
       73.0,      15.48,    18.66,    13.75,    11.81,    17.69
       74.0,      15.38,    18.57,    13.65,    11.69,    17.59
       75.0,      15.28,    18.49,    13.54,    11.57,    17.50
       76.0,      15.18,    18.41,    13.45,    11.46,    17.41
       77.0,      15.09,    18.33,    13.35,    11.35,    17.32
       78.0,      15.00,    18.25,    13.26,    11.25,    17.24
       79.0,      14.91,    18.17,    13.17,    11.15,    17.16
       80.0,      14.83,    18.10,    13.08,    11.05,    17.08
       81.0,      14.75,    18.03,    13.00,    10.96,    17.00
       82.0,      14.67,    17.96,    12.92,    10.87,    16.93
       83.0,      14.59,    17.89,    12.84,    10.78,    16.86
       84.0,      14.52,    17.83,    12.76,    10.70,    16.79
       85.0,      14.45,    17.77,    12.69,    10.62,    16.72
       86.0,      14.38,    17.70,    12.62,    10.54,    16.66
       87.0,      14.31,    17.65,    12.55,    10.47,    16.60
       88.0,      14.25,    17.59,    12.48,    10.39,    16.54
       89.0,      14.19,    17.53,    12.42,    10.32,    16.48
       90.0,      14.13,    17.48,    12.36,    10.26,    16.42
       91.0,      14.07,    17.42,    12.30,    10.19,    16.36
       92.0,      14.01,    17.37,    12.24,    10.13,    16.31
       93.0,      13.96,    17.32,    12.19,    10.07,    16.26
       94.0,      13.91,    17.27,    12.13,    10.01,    16.21
       95.0,      13.85,    17.23,    12.08,     9.95,    16.16
       96.0,      13.80,    17.18,    12.03,     9.90,    16.11
       97.0,      13.76,    17.14,    11.98,     9.84,    16.06
       98.0,      13.71,    17.09,    11.93,     9.79,    16.02
       99.0,      13.66,    17.05,    11.89,     9.74,    15.97
      100.0,      13.62,    17.01,    11.84,     9.69,    15.93
      101.0,      13.57,    16.97,    11.80,     9.65,    15.89
      102.0,      13.53,    16.93,    11.76,     9.60,    15.84
      103.0,      13.49,    16.89,    11.71,     9.56,    15.80
      104.0,      13.45,    16.85,    11.67,     9.52,    15.76
      105.0,      13.41,    16.81,    11.64,     9.48,    15.73
      106.0,      13.37,    16.78,    11.60,     9.44,    15.69
      107.0,      13.34,    16.74,    11.56,     9.40,    15.65
      108.0,      13.30,    16.71,    11.53,     9.36,    15.62
      109.0,      13.27,    16.67,    11.49,     9.32,    15.58
      110.0,      13.23,    16.64,    11.46,     9.29,    15.55
      111.0,      13.20,    16.61,    11.43,     9.25,    15.52
      112.0,      13.17,    16.58,    11.39,     9.22,    15.48
      113.0,      13.14,    16.54,    11.36,     9.19,    15.45
      114.0,      13.11,    16.51,    11.33,     9.16,    15.42
      115.0,      13.08,    16.48,    11.30,     9.13,    15.39
      116.0,      13.05,    16.45,    11.27,     9.10,    15.36
      117.0,      13.02,    16.42,    11.25,     9.07,    15.33
      118.0,      12.99,    16.40,    11.22,     9.04,    15.30
      119.0,      12.96,    16.37,    11.19,     9.02,    15.27
      120.0,      12.94,    16.34,    11.17,     8.99,    15.25
      121.0,      12.91,    16.31,    11.14,     8.96,    15.22
      122.0,      12.88,    16.29,    11.12,     8.94,    15.19
      123.0,      12.86,    16.26,    11.09,     8.91,    15.17
      124.0,      12.83,    16.24,    11.07,     8.89,    15.14
      125.0,      12.81,    16.21,    11.05,     8.87,    15.12
      126.0,      12.79,    16.19,    11.02,     8.85,    15.09
      127.0,      12.76,    16.16,    11.00,     8.82,    15.07
      128.0,      12.74,    16.14,    10.98,     8.80,    15.04
      129.0,      12.72,    16.11,    10.96,     8.78,    15.02
      130.0,      12.70,    16.09,    10.94,     8.76,    15.00
      131.0,      12.67,    16.07,    10.92,     8.74,    14.97
      132.0,      12.65,    16.04,    10.90,     8.72,    14.95
      133.0,      12.63,    16.02,    10.88,     8.70,    14.93
      134.0,      12.61,    16.00,    10.86,     8.68,    14.91
      135.0,      12.59,    15.98,    10.84,     8.67,    14.88
      136.0,      12.57,    15.95,    10.82,     8.65,    14.86
      137.0,      12.55,    15.93,    10.80,     8.63,    14.84
      138.0,      12.53,    15.91,    10.78,     8.61,    14.82
      139.0,      12.51,    15.89,    10.77,     8.60,    14.80
      140.0,      12.49,    15.87,    10.75,     8.58,    14.78
      141.0,      12.48,    15.85,    10.73,     8.57,    14.76
      142.0,      12.46,    15.83,    10.71,     8.55,    14.74
      143.0,      12.44,    15.81,    10.70,     8.53,    14.72
      144.0,      12.42,    15.79,    10.68,     8.52,    14.70
      145.0,      12.40,    15.77,    10.66,     8.50,    14.68
      146.0,      12.39,    15.75,    10.65,     8.49,    14.66
      147.0,      12.37,    15.73,    10.63,     8.47,    14.64
      148.0,      12.35,    15.71,    10.62,     8.46,    14.62
      149.0,      12.34,    15.69,    10.60,     8.45,    14.61
      150.0,      12.32,    15.67,    10.59,     8.43,    14.59
      151.0,      12.30,    15.65,    10.57,     8.42,    14.57
      152.0,      12.29,    15.63,    10.56,     8.41,    14.55
      153.0,      12.27,    15.62,    10.54,     8.39,    14.53
      154.0,      12.26,    15.60,    10.53,     8.38,    14.52
      155.0,      12.24,    15.58,    10.51,     8.37,    14.50
      156.0,      12.22,    15.56,    10.50,     8.36,    14.48
      157.0,      12.21,    15.54,    10.49,     8.34,    14.46
      158.0,      12.19,    15.52,    10.47,     8.33,    14.45
      159.0,      12.18,    15.51,    10.46,     8.32,    14.43
      160.0,      12.16,    15.49,    10.45,     8.31,    14.41
      161.0,      12.15,    15.47,    10.43,     8.30,    14.40
      162.0,      12.13,    15.45,    10.42,     8.28,    14.38
      163.0,      12.12,    15.44,    10.41,     8.27,    14.36
      164.0,      12.11,    15.42,    10.39,     8.26,    14.35
      165.0,      12.09,    15.40,    10.38,     8.25,    14.33
      166.0,      12.08,    15.38,    10.37,     8.24,    14.31
      167.0,      12.06,    15.37,    10.36,     8.23,    14.30
      168.0,      12.05,    15.35,    10.34,     8.22,    14.28
      169.0,      12.03,    15.33,    10.33,     8.21,    14.27
      170.0,      12.02,    15.32,    10.32,     8.20,    14.25
      171.0,      12.01,    15.30,    10.31,     8.19,    14.23
      172.0,      11.99,    15.28,    10.29,     8.18,    14.22
      173.0,      11.98,    15.27,    10.28,     8.17,    14.20
      174.0,      11.97,    15.25,    10.27,     8.16,    14.19
      175.0,      11.95,    15.23,    10.26,     8.15,    14.17
      176.0,      11.94,    15.22,    10.25,     8.14,    14.16
      177.0,      11.93,    15.20,    10.23,     8.13,    14.14
      178.0,      11.91,    15.18,    10.22,     8.12,    14.12
      179.0,      11.90,    15.17,    10.21,     8.11,    14.11
      180.0,      11.89,    15.15,    10.20,     8.10,    14.09
      181.0,      11.87,    15.14,    10.19,     8.09,    14.08
      182.0,      11.86,    15.12,    10.18,     8.08,    14.06
      183.0,      11.85,    15.10,    10.16,     8.07,    14.05
      184.0,      11.83,    15.09,    10.15,     8.06,    14.03
      185.0,      11.82,    15.07,    10.14,     8.05,    14.02
      186.0,      11.81,    15.06,    10.13,     8.04,    14.00
      187.0,      11.80,    15.04,    10.12,     8.03,    13.99
      188.0,      11.78,    15.02,    10.11,     8.02,    13.97
      189.0,      11.77,    15.01,    10.10,     8.01,    13.96
      190.0,      11.76,    14.99,    10.09,     8.00,    13.95
      191.0,      11.74,    14.98,    10.08,     7.99,    13.93
      192.0,      11.73,    14.96,    10.07,     7.99,    13.92
      193.0,      11.72,    14.95,    10.05,     7.98,    13.90
      194.0,      11.71,    14.93,    10.04,     7.97,    13.89
      195.0,      11.69,    14.92,    10.03,     7.96,    13.87
      196.0,      11.68,    14.90,    10.02,     7.95,    13.86
      197.0,      11.67,    14.88,    10.01,     7.94,    13.84
      198.0,      11.66,    14.87,    10.00,     7.93,    13.83
      199.0,      11.65,    14.85,     9.99,     7.92,    13.81
      200.0,      11.63,    14.84,     9.98,     7.92,    13.80
      201.0,      11.62,    14.82,     9.97,     7.91,    13.79
      202.0,      11.61,    14.81,     9.96,     7.90,    13.77
      203.0,      11.60,    14.79,     9.95,     7.89,    13.76
      204.0,      11.58,    14.78,     9.94,     7.88,    13.74
      205.0,      11.57,    14.76,     9.93,     7.87,    13.73
      206.0,      11.56,    14.75,     9.92,     7.86,    13.72
      207.0,      11.55,    14.73,     9.91,     7.86,    13.70
      208.0,      11.54,    14.72,     9.90,     7.85,    13.69
      209.0,      11.52,    14.70,     9.89,     7.84,    13.67
      210.0,      11.51,    14.69,     9.88,     7.83,    13.66
      211.0,      11.50,    14.67,     9.86,     7.82,    13.65
      212.0,      11.49,    14.66,     9.85,     7.81,    13.63
      213.0,      11.48,    14.64,     9.84,     7.81,    13.62
      214.0,      11.47,    14.63,     9.83,     7.80,    13.60
      215.0,      11.45,    14.61,     9.82,     7.79,    13.59
      216.0,      11.44,    14.60,     9.81,     7.78,    13.58
      217.0,      11.43,    14.58,     9.80,     7.77,    13.56
      218.0,      11.42,    14.57,     9.79,     7.77,    13.55
      219.0,      11.41,    14.55,     9.78,     7.76,    13.53
      220.0,      11.40,    14.54,     9.77,     7.75,    13.52
      221.0,      11.38,    14.52,     9.76,     7.74,    13.51
      222.0,      11.37,    14.51,     9.75,     7.73,    13.49
      223.0,      11.36,    14.49,     9.74,     7.73,    13.48
      224.0,      11.35,    14.48,     9.73,     7.72,    13.47
      225.0,      11.34,    14.47,     9.72,     7.71,    13.45
      226.0,      11.33,    14.45,     9.71,     7.70,    13.44
      227.0,      11.31,    14.44,     9.70,     7.69,    13.42
      228.0,      11.30,    14.42,     9.69,     7.69,    13.41
      229.0,      11.29,    14.41,     9.68,     7.68,    13.40
      230.0,      11.28,    14.39,     9.67,     7.67,    13.38
      231.0,      11.27,    14.38,     9.66,     7.66,    13.37
      232.0,      11.26,    14.36,     9.65,     7.65,    13.36
      233.0,      11.25,    14.35,     9.64,     7.65,    13.34
      234.0,      11.23,    14.33,     9.63,     7.64,    13.33
      235.0,      11.22,    14.32,     9.63,     7.63,    13.32
      236.0,      11.21,    14.31,     9.62,     7.62,    13.30
      237.0,      11.20,    14.29,     9.61,     7.61,    13.29
      238.0,      11.19,    14.28,     9.60,     7.61,    13.28
      239.0,      11.18,    14.26,     9.59,     7.60,    13.26
      240.0,      11.17,    14.25,     9.58,     7.59,    13.25
      241.0,      11.16,    14.23,     9.57,     7.58,    13.24
      242.0,      11.14,    14.22,     9.56,     7.58,    13.22
      243.0,      11.13,    14.21,     9.55,     7.57,    13.21
      244.0,      11.12,    14.19,     9.54,     7.56,    13.20
      245.0,      11.11,    14.18,     9.53,     7.55,    13.18
      246.0,      11.10,    14.16,     9.52,     7.55,    13.17
      247.0,      11.09,    14.15,     9.51,     7.54,    13.16
      248.0,      11.08,    14.13,     9.50,     7.53,    13.14
      249.0,      11.07,    14.12,     9.49,     7.52,    13.13
      250.0,      11.05,    14.11,     9.48,     7.51,    13.12
      251.0,      11.04,    14.09,     9.47,     7.51,    13.10
      252.0,      11.03,    14.08,     9.46,     7.50,    13.09
      253.0,      11.02,    14.06,     9.45,     7.49,    13.08
      254.0,      11.01,    14.05,     9.44,     7.48,    13.06
      255.0,      11.00,    14.03,     9.43,     7.48,    13.05
      256.0,      10.99,    14.02,     9.42,     7.47,    13.04
      257.0,      10.98,    14.01,     9.41,     7.46,    13.03
      258.0,      10.97,    13.99,     9.40,     7.45,    13.01
      259.0,      10.95,    13.98,     9.39,     7.45,    13.00
      260.0,      10.94,    13.96,     9.39,     7.44,    12.99
      261.0,      10.93,    13.95,     9.38,     7.43,    12.97
      262.0,      10.92,    13.94,     9.37,     7.42,    12.96
      263.0,      10.91,    13.92,     9.36,     7.42,    12.95
      264.0,      10.90,    13.91,     9.35,     7.41,    12.93
      265.0,      10.89,    13.89,     9.34,     7.40,    12.92
      266.0,      10.88,    13.88,     9.33,     7.39,    12.91
      267.0,      10.87,    13.87,     9.32,     7.39,    12.90
      268.0,      10.86,    13.85,     9.31,     7.38,    12.88
      269.0,      10.85,    13.84,     9.30,     7.37,    12.87
      270.0,      10.83,    13.83,     9.29,     7.36,    12.86
      271.0,      10.82,    13.81,     9.28,     7.36,    12.84
      272.0,      10.81,    13.80,     9.27,     7.35,    12.83
      273.0,      10.80,    13.78,     9.26,     7.34,    12.82
      274.0,      10.79,    13.77,     9.25,     7.34,    12.80
      275.0,      10.78,    13.76,     9.24,     7.33,    12.79
      276.0,      10.77,    13.74,     9.24,     7.32,    12.78
      277.0,      10.76,    13.73,     9.23,     7.31,    12.77
      278.0,      10.75,    13.72,     9.22,     7.31,    12.75
      279.0,      10.74,    13.70,     9.21,     7.30,    12.74
      280.0,      10.73,    13.69,     9.20,     7.29,    12.73
      281.0,      10.72,    13.67,     9.19,     7.28,    12.72
      282.0,      10.70,    13.66,     9.18,     7.28,    12.70
      283.0,      10.69,    13.65,     9.17,     7.27,    12.69
      284.0,      10.68,    13.63,     9.16,     7.26,    12.68
      285.0,      10.67,    13.62,     9.15,     7.25,    12.66
      286.0,      10.66,    13.61,     9.14,     7.25,    12.65
      287.0,      10.65,    13.59,     9.13,     7.24,    12.64
      288.0,      10.64,    13.58,     9.13,     7.23,    12.63
      289.0,      10.63,    13.56,     9.12,     7.23,    12.61
      290.0,      10.62,    13.55,     9.11,     7.22,    12.60
      291.0,      10.61,    13.54,     9.10,     7.21,    12.59
      292.0,      10.60,    13.52,     9.09,     7.20,    12.58
      293.0,      10.59,    13.51,     9.08,     7.20,    12.56
      294.0,      10.58,    13.50,     9.07,     7.19,    12.55
      295.0,      10.57,    13.48,     9.06,     7.18,    12.54
      296.0,      10.56,    13.47,     9.05,     7.18,    12.53
      297.0,      10.55,    13.46,     9.04,     7.17,    12.51
      298.0,      10.53,    13.44,     9.03,     7.16,    12.50
      299.0,      10.52,    13.43,     9.03,     7.15,    12.49
      300.0,      10.51,    13.42,     9.02,     7.15,    12.48
      301.0,      10.50,    13.40,     9.01,     7.14,    12.46
      302.0,      10.49,    13.39,     9.00,     7.13,    12.45
      303.0,      10.48,    13.38,     8.99,     7.13,    12.44
      304.0,      10.47,    13.36,     8.98,     7.12,    12.43
      305.0,      10.46,    13.35,     8.97,     7.11,    12.41
      306.0,      10.45,    13.34,     8.96,     7.10,    12.40
      307.0,      10.44,    13.32,     8.95,     7.10,    12.39
      308.0,      10.43,    13.31,     8.94,     7.09,    12.38
      309.0,      10.42,    13.30,     8.94,     7.08,    12.36
      310.0,      10.41,    13.28,     8.93,     7.08,    12.35
