Radius (km), Mean (m/s), NE (m/s), SE (m/s), SW (m/s), NW (m/s)
        0.0,       0.00,     0.00,     0.00,     0.00,     0.00
        1.0,       2.63,     2.60,     2.66,     2.66,     2.60
        2.0,       4.29,     4.29,     4.30,     4.30,     4.29
        3.0,       5.72,     5.75,     5.70,     5.70,     5.75
        4.0,       7.02,     7.08,     6.96,     6.96,     7.08
        5.0,       8.22,     8.32,     8.13,     8.13,     8.32
        6.0,       9.36,     9.49,     9.23,     9.23,     9.49
        7.0,      10.44,    10.61,    10.27,    10.27,    10.61
        8.0,      11.48,    11.69,    11.27,    11.27,    11.69
        9.0,      12.48,    12.73,    12.23,    12.23,    12.73
       10.0,      13.44,    13.74,    13.15,    13.15,    13.74
       11.0,      14.39,    14.72,    14.05,    14.05,    14.72
       12.0,      15.32,    15.68,    14.94,    14.94,    15.71
       13.0,      16.27,    16.66,    15.86,    15.86,    16.73
       14.0,      17.29,    17.68,    16.83,    16.83,    17.83
       15.0,      18.40,    18.76,    17.90,    17.91,    19.04
       16.0,      19.62,    19.94,    19.09,    19.09,    20.36
       17.0,      20.93,    21.19,    20.38,    20.38,    21.78
       18.0,      22.29,    22.48,    21.73,    21.73,    23.24
       19.0,      23.65,    23.79,    23.07,    23.08,    24.67
       20.0,      24.93,    25.04,    24.34,    24.34,    26.01
       21.0,      26.07,    26.17,    25.46,    25.46,    27.18
       22.0,      26.99,    27.14,    26.36,    26.36,    28.11
       23.0,      27.67,    27.90,    27.01,    27.00,    28.78
       24.0,      28.09,    28.44,    27.38,    27.37,    29.19
       25.0,      28.27,    28.77,    27.48,    27.48,    29.33
       26.0,      28.22,    28.90,    27.36,    27.36,    29.26
       27.0,      28.00,    28.87,    27.06,    27.06,    29.03
       28.0,      27.67,    28.73,    26.64,    26.64,    28.69
       29.0,      27.28,    28.53,    26.15,    26.15,    28.29
       30.0,      26.87,    28.29,    25.64,    25.64,    27.88
       31.0,      26.46,    28.06,    25.14,    25.15,    27.48
       32.0,      26.07,    27.83,    24.67,    24.67,    27.10
       33.0,      25.70,    27.61,    24.22,    24.23,    26.74
       34.0,      25.35,    27.40,    23.79,    23.80,    26.40
       35.0,      25.01,    27.19,    23.38,    23.39,    26.07
       36.0,      24.68,    26.99,    22.99,    23.00,    25.75
       37.0,      24.36,    26.79,    22.61,    22.62,    25.44
       38.0,      24.06,    26.60,    22.24,    22.25,    25.14
       39.0,      23.76,    26.41,    21.89,    21.90,    24.86
       40.0,      23.48,    26.22,    21.55,    21.56,    24.58
       41.0,      23.20,    26.04,    21.22,    21.24,    24.32
       42.0,      22.94,    25.86,    20.91,    20.93,    24.07
       43.0,      22.68,    25.68,    20.61,    20.62,    23.82
       44.0,      22.44,    25.51,    20.32,    20.34,    23.58
       45.0,      22.20,    25.34,    20.04,    20.06,    23.35
       46.0,      21.96,    25.17,    19.77,    19.79,    23.13
       47.0,      21.74,    25.00,    19.51,    19.53,    22.92
       48.0,      21.53,    24.84,    19.26,    19.28,    22.72
       49.0,      21.32,    24.68,    19.02,    19.04,    22.52
       50.0,      21.11,    24.53,    18.79,    18.81,    22.33
       51.0,      20.92,    24.38,    18.57,    18.59,    22.15
       52.0,      20.73,    24.23,    18.35,    18.37,    21.97
       53.0,      20.55,    24.08,    18.15,    18.17,    21.80
       54.0,      20.37,    23.93,    17.95,    17.97,    21.64
       55.0,      20.20,    23.79,    17.75,    17.78,    21.48
       56.0,      20.04,    23.65,    17.57,    17.59,    21.32
       57.0,      19.88,    23.52,    17.39,    17.42,    21.18
       58.0,      19.72,    23.38,    17.22,    17.24,    21.03
       59.0,      19.57,    23.25,    17.05,    17.08,    20.90
       60.0,      19.42,    23.12,    16.90,    16.92,    20.76
       61.0,      19.28,    22.99,    16.74,    16.77,    20.63
       62.0,      19.15,    22.87,    16.59,    16.62,    20.51
       63.0,      19.02,    22.74,    16.45,    16.48,    20.39
       64.0,      18.89,    22.62,    16.31,    16.34,    20.27
       65.0,      18.76,    22.50,    16.18,    16.21,    20.16
       66.0,      18.64,    22.39,    16.05,    16.08,    20.05
       67.0,      18.53,    22.27,    15.93,    15.96,    19.95
       68.0,      18.41,    22.16,    15.81,    15.84,    19.85
       69.0,      18.30,    22.05,    15.69,    15.72,    19.75
       70.0,      18.20,    21.94,    15.58,    15.61,    19.65
       71.0,      18.09,    21.83,    15.48,    15.50,    19.56
       72.0,      17.99,    21.73,    15.37,    15.40,    19.47
       73.0,      17.90,    21.62,    15.27,    15.30,    19.39
       74.0,      17.80,    21.52,    15.18,    15.20,    19.30
       75.0,      17.71,    21.42,    15.08,    15.11,    19.22
       76.0,      17.62,    21.32,    14.99,    15.02,    19.14
       77.0,      17.53,    21.22,    14.90,    14.93,    19.07
       78.0,      17.45,    21.13,    14.82,    14.85,    18.99
       79.0,      17.37,    21.04,    14.74,    14.77,    18.92
       80.0,      17.29,    20.94,    14.66,    14.69,    18.85
       81.0,      17.21,    20.85,    14.58,    14.61,    18.79
       82.0,      17.13,    20.76,    14.51,    14.54,    18.72
       83.0,      17.06,    20.67,    14.44,    14.47,    18.66
       84.0,      16.99,    20.59,    14.37,    14.40,    18.60
       85.0,      16.92,    20.50,    14.30,    14.33,    18.54
       86.0,      16.85,    20.42,    14.24,    14.27,    18.48
       87.0,      16.79,    20.34,    14.18,    14.21,    18.42
       88.0,      16.72,    20.25,    14.12,    14.15,    18.37
       89.0,      16.66,    20.17,    14.06,    14.09,    18.31
       90.0,      16.60,    20.09,    14.00,    14.03,    18.26
       91.0,      16.54,    20.02,    13.95,    13.98,    18.21
       92.0,      16.48,    19.94,    13.89,    13.92,    18.16
       93.0,      16.42,    19.87,    13.84,    13.87,    18.11
       94.0,      16.37,    19.79,    13.79,    13.82,    18.06
       95.0,      16.31,    19.72,    13.74,    13.77,    18.02
       96.0,      16.26,    19.65,    13.69,    13.73,    17.97
       97.0,      16.21,    19.57,    13.65,    13.68,    17.93
       98.0,      16.16,    19.50,    13.60,    13.63,    17.89
       99.0,      16.11,    19.44,    13.56,    13.59,    17.85
      100.0,      16.06,    19.37,    13.52,    13.55,    17.81
      101.0,      16.01,    19.30,    13.48,    13.51,    17.77
      102.0,      15.97,    19.23,    13.44,    13.47,    17.73
      103.0,      15.92,    19.17,    13.40,    13.43,    17.69
      104.0,      15.88,    19.10,    13.36,    13.39,    17.65
      105.0,      15.83,    19.04,    13.32,    13.35,    17.62
      106.0,      15.79,    18.98,    13.29,    13.32,    17.58
      107.0,      15.75,    18.92,    13.25,    13.28,    17.55
      108.0,      15.71,    18.86,    13.22,    13.25,    17.51
      109.0,      15.67,    18.80,    13.18,    13.22,    17.48
      110.0,      15.63,    18.74,    13.15,    13.18,    17.45
      111.0,      15.59,    18.68,    13.12,    13.15,    17.42
      112.0,      15.55,    18.62,    13.09,    13.12,    17.38
      113.0,      15.52,    18.56,    13.06,    13.09,    17.35
      114.0,      15.48,    18.51,    13.03,    13.06,    17.32
      115.0,      15.44,    18.45,    13.00,    13.03,    17.29
      116.0,      15.41,    18.40,    12.97,    13.00,    17.26
      117.0,      15.37,    18.34,    12.94,    12.98,    17.23
      118.0,      15.34,    18.29,    12.92,    12.95,    17.21
      119.0,      15.31,    18.24,    12.89,    12.92,    17.18
      120.0,      15.28,    18.19,    12.87,    12.90,    17.15
      121.0,      15.24,    18.13,    12.84,    12.87,    17.12
      122.0,      15.21,    18.08,    12.82,    12.85,    17.10
      123.0,      15.18,    18.03,    12.79,    12.82,    17.07
      124.0,      15.15,    17.98,    12.77,    12.80,    17.05
      125.0,      15.12,    17.93,    12.74,    12.78,    17.02
      126.0,      15.09,    17.89,    12.72,    12.75,    17.00
      127.0,      15.06,    17.84,    12.70,    12.73,    16.97
      128.0,      15.03,    17.79,    12.68,    12.71,    16.95
      129.0,      15.00,    17.74,    12.65,    12.69,    16.92
      130.0,      14.97,    17.70,    12.63,    12.67,    16.90
      131.0,      14.95,    17.65,    12.61,    12.65,    16.88
      132.0,      14.92,    17.61,    12.59,    12.62,    16.85
      133.0,      14.89,    17.56,    12.57,    12.60,    16.83
      134.0,      14.87,    17.52,    12.55,    12.58,    16.81
      135.0,      14.84,    17.47,    12.53,    12.56,    16.78
      136.0,      14.81,    17.43,    12.51,    12.55,    16.76
      137.0,      14.79,    17.39,    12.49,    12.53,    16.74
      138.0,      14.76,    17.35,    12.48,    12.51,    16.72
      139.0,      14.74,    17.30,    12.46,    12.49,    16.70
      140.0,      14.71,    17.26,    12.44,    12.47,    16.68
      141.0,      14.69,    17.22,    12.42,    12.45,    16.65
      142.0,      14.66,    17.18,    12.40,    12.43,    16.63
      143.0,      14.64,    17.14,    12.38,    12.42,    16.61
      144.0,      14.62,    17.10,    12.37,    12.40,    16.59
      145.0,      14.59,    17.06,    12.35,    12.38,    16.57
      146.0,      14.57,    17.02,    12.33,    12.37,    16.55
      147.0,      14.55,    16.98,    12.32,    12.35,    16.53
      148.0,      14.52,    16.95,    12.30,    12.33,    16.51
      149.0,      14.50,    16.91,    12.28,    12.32,    16.49
      150.0,      14.48,    16.87,    12.27,    12.30,    16.47
      151.0,      14.46,    16.83,    12.25,    12.28,    16.45
      152.0,      14.43,    16.80,    12.24,    12.27,    16.43
      153.0,      14.41,    16.76,    12.22,    12.25,    16.42
      154.0,      14.39,    16.72,    12.20,    12.24,    16.40
      155.0,      14.37,    16.69,    12.19,    12.22,    16.38
      156.0,      14.35,    16.65,    12.17,    12.21,    16.36
      157.0,      14.33,    16.62,    12.16,    12.19,    16.34
      158.0,      14.31,    16.58,    12.14,    12.18,    16.32
      159.0,      14.29,    16.55,    12.13,    12.16,    16.30
      160.0,      14.26,    16.51,    12.11,    12.15,    16.28
      161.0,      14.24,    16.48,    12.10,    12.13,    16.27
      162.0,      14.22,    16.44,    12.09,    12.12,    16.25
      163.0,      14.20,    16.41,    12.07,    12.10,    16.23
      164.0,      14.18,    16.38,    12.06,    12.09,    16.21
      165.0,      14.16,    16.34,    12.04,    12.07,    16.19
      166.0,      14.14,    16.31,    12.03,    12.06,    16.18
      167.0,      14.12,    16.28,    12.01,    12.05,    16.16
      168.0,      14.11,    16.25,    12.00,    12.03,    16.14
      169.0,      14.09,    16.22,    11.99,    12.02,    16.12
      170.0,      14.07,    16.18,    11.97,    12.00,    16.11
      171.0,      14.05,    16.15,    11.96,    11.99,    16.09
      172.0,      14.03,    16.12,    11.95,    11.98,    16.07
      173.0,      14.01,    16.09,    11.93,    11.96,    16.05
      174.0,      13.99,    16.06,    11.92,    11.95,    16.04
      175.0,      13.97,    16.03,    11.91,    11.94,    16.02
      176.0,      13.95,    16.00,    11.89,    11.92,    16.00
      177.0,      13.94,    15.97,    11.88,    11.91,    15.99
      178.0,      13.92,    15.94,    11.87,    11.90,    15.97
      179.0,      13.90,    15.91,    11.85,    11.88,    15.95
      180.0,      13.88,    15.88,    11.84,    11.87,    15.93
      181.0,      13.86,    15.85,    11.83,    11.86,    15.92
      182.0,      13.84,    15.82,    11.81,    11.85,    15.90
      183.0,      13.83,    15.79,    11.80,    11.83,    15.88
      184.0,      13.81,    15.76,    11.79,    11.82,    15.87
      185.0,      13.79,    15.73,    11.78,    11.81,    15.85
      186.0,      13.77,    15.70,    11.76,    11.79,    15.83
      187.0,      13.76,    15.68,    11.75,    11.78,    15.82
      188.0,      13.74,    15.65,    11.74,    11.77,    15.80
      189.0,      13.72,    15.62,    11.73,    11.76,    15.78
      190.0,      13.70,    15.59,    11.71,    11.74,    15.77
      191.0,      13.69,    15.56,    11.70,    11.73,    15.75
      192.0,      13.67,    15.54,    11.69,    11.72,    15.74
      193.0,      13.65,    15.51,    11.68,    11.71,    15.72
      194.0,      13.64,    15.48,    11.66,    11.69,    15.70
      195.0,      13.62,    15.46,    11.65,    11.68,    15.69
      196.0,      13.60,    15.43,    11.64,    11.67,    15.67
      197.0,      13.59,    15.40,    11.63,    11.66,    15.65
      198.0,      13.57,    15.38,    11.61,    11.64,    15.64
      199.0,      13.55,    15.35,    11.60,    11.63,    15.62
      200.0,      13.53,    15.32,    11.59,    11.62,    15.61
      201.0,      13.52,    15.30,    11.58,    11.61,    15.59
      202.0,      13.50,    15.27,    11.57,    11.60,    15.57
      203.0,      13.49,    15.24,    11.55,    11.58,    15.56
      204.0,      13.47,    15.22,    11.54,    11.57,    15.54
      205.0,      13.45,    15.19,    11.53,    11.56,    15.53
      206.0,      13.44,    15.17,    11.52,    11.55,    15.51
      207.0,      13.42,    15.14,    11.51,    11.54,    15.50
      208.0,      13.40,    15.12,    11.49,    11.52,    15.48
      209.0,      13.39,    15.09,    11.48,    11.51,    15.46
      210.0,      13.37,    15.07,    11.47,    11.50,    15.45
      211.0,      13.36,    15.04,    11.46,    11.49,    15.43
      212.0,      13.34,    15.02,    11.45,    11.48,    15.42
      213.0,      13.32,    14.99,    11.43,    11.47,    15.40
      214.0,      13.31,    14.97,    11.42,    11.45,    15.39
      215.0,      13.29,    14.94,    11.41,    11.44,    15.37
      216.0,      13.28,    14.92,    11.40,    11.43,    15.35
      217.0,      13.26,    14.89,    11.39,    11.42,    15.34
      218.0,      13.24,    14.87,    11.38,    11.41,    15.32
      219.0,      13.23,    14.85,    11.36,    11.40,    15.31
      220.0,      13.21,    14.82,    11.35,    11.38,    15.29
      221.0,      13.20,    14.80,    11.34,    11.37,    15.28
      222.0,      13.18,    14.77,    11.33,    11.36,    15.26
      223.0,      13.17,    14.75,    11.32,    11.35,    15.25
      224.0,      13.15,    14.73,    11.31,    11.34,    15.23
      225.0,      13.14,    14.70,    11.30,    11.33,    15.22
      226.0,      13.12,    14.68,    11.28,    11.31,    15.20
      227.0,      13.10,    14.66,    11.27,    11.30,    15.18
      228.0,      13.09,    14.63,    11.26,    11.29,    15.17
      229.0,      13.07,    14.61,    11.25,    11.28,    15.15
      230.0,      13.06,    14.59,    11.24,    11.27,    15.14
      231.0,      13.04,    14.56,    11.23,    11.26,    15.12
      232.0,      13.03,    14.54,    11.22,    11.25,    15.11
      233.0,      13.01,    14.52,    11.20,    11.23,    15.09
      234.0,      13.00,    14.50,    11.19,    11.22,    15.08
      235.0,      12.98,    14.47,    11.18,    11.21,    15.06
      236.0,      12.97,    14.45,    11.17,    11.20,    15.05
      237.0,      12.95,    14.43,    11.16,    11.19,    15.03
      238.0,      12.94,    14.41,    11.15,    11.18,    15.02
      239.0,      12.92,    14.38,    11.14,    11.17,    15.00
      240.0,      12.91,    14.36,    11.13,    11.15,    14.99
      241.0,      12.89,    14.34,    11.11,    11.14,    14.97
      242.0,      12.88,    14.32,    11.10,    11.13,    14.96
      243.0,      12.86,    14.30,    11.09,    11.12,    14.94
      244.0,      12.85,    14.27,    11.08,    11.11,    14.93
      245.0,      12.83,    14.25,    11.07,    11.10,    14.91
      246.0,      12.82,    14.23,    11.06,    11.09,    14.90
      247.0,      12.80,    14.21,    11.05,    11.08,    14.88
      248.0,      12.79,    14.19,    11.04,    11.07,    14.87
      249.0,      12.77,    14.16,    11.02,    11.05,    14.85
      250.0,      12.76,    14.14,    11.01,    11.04,    14.84
      251.0,      12.74,    14.12,    11.00,    11.03,    14.82
      252.0,      12.73,    14.10,    10.99,    11.02,    14.81
      253.0,      12.72,    14.08,    10.98,    11.01,    14.79
      254.0,      12.70,    14.06,    10.97,    11.00,    14.78
      255.0,      12.69,    14.04,    10.96,    10.99,    14.76
      256.0,      12.67,    14.01,    10.95,    10.98,    14.75
      257.0,      12.66,    13.99,    10.94,    10.97,    14.73
      258.0,      12.64,    13.97,    10.93,    10.95,    14.72
      259.0,      12.63,    13.95,    10.91,    10.94,    14.70
      260.0,      12.61,    13.93,    10.90,    10.93,    14.69
      261.0,      12.60,    13.91,    10.89,    10.92,    14.67
      262.0,      12.59,    13.89,    10.88,    10.91,    14.66
      263.0,      12.57,    13.87,    10.87,    10.90,    14.64
      264.0,      12.56,    13.85,    10.86,    10.89,    14.63
      265.0,      12.54,    13.83,    10.85,    10.88,    14.62
      266.0,      12.53,    13.81,    10.84,    10.87,    14.60
      267.0,      12.51,    13.79,    10.83,    10.86,    14.59
      268.0,      12.50,    13.76,    10.82,    10.85,    14.57
      269.0,      12.49,    13.74,    10.81,    10.83,    14.56
      270.0,      12.47,    13.72,    10.79,    10.82,    14.54
      271.0,      12.46,    13.70,    10.78,    10.81,    14.53
      272.0,      12.44,    13.68,    10.77,    10.80,    14.51
      273.0,      12.43,    13.66,    10.76,    10.79,    14.50
      274.0,      12.41,    13.64,    10.75,    10.78,    14.48
      275.0,      12.40,    13.62,    10.74,    10.77,    14.47
      276.0,      12.39,    13.60,    10.73,    10.76,    14.46
      277.0,      12.37,    13.58,    10.72,    10.75,    14.44
      278.0,      12.36,    13.56,    10.71,    10.74,    14.43
      279.0,      12.34,    13.54,    10.70,    10.73,    14.41
      280.0,      12.33,    13.52,    10.69,    10.72,    14.40
      281.0,      12.32,    13.50,    10.68,    10.70,    14.38
      282.0,      12.30,    13.48,    10.67,    10.69,    14.37
      283.0,      12.29,    13.46,    10.65,    10.68,    14.35
      284.0,      12.27,    13.44,    10.64,    10.67,    14.34
      285.0,      12.26,    13.42,    10.63,    10.66,    14.33
      286.0,      12.25,    13.40,    10.62,    10.65,    14.31
      287.0,      12.23,    13.38,    10.61,    10.64,    14.30
      288.0,      12.22,    13.36,    10.60,    10.63,    14.28
      289.0,      12.21,    13.34,    10.59,    10.62,    14.27
      290.0,      12.19,    13.32,    10.58,    10.61,    14.25
      291.0,      12.18,    13.31,    10.57,    10.60,    14.24
      292.0,      12.16,    13.29,    10.56,    10.59,    14.23
      293.0,      12.15,    13.27,    10.55,    10.58,    14.21
      294.0,      12.14,    13.25,    10.54,    10.57,    14.20
      295.0,      12.12,    13.23,    10.53,    10.56,    14.18
      296.0,      12.11,    13.21,    10.52,    10.55,    14.17
      297.0,      12.10,    13.19,    10.51,    10.53,    14.15
      298.0,      12.08,    13.17,    10.50,    10.52,    14.14
      299.0,      12.07,    13.15,    10.49,    10.51,    14.13
      300.0,      12.06,    13.13,    10.48,    10.50,    14.11
      301.0,      12.04,    13.11,    10.46,    10.49,    14.10
      302.0,      12.03,    13.09,    10.45,    10.48,    14.08
      303.0,      12.01,    13.07,    10.44,    10.47,    14.07
      304.0,      12.00,    13.06,    10.43,    10.46,    14.06
      305.0,      11.99,    13.04,    10.42,    10.45,    14.04
      306.0,      11.97,    13.02,    10.41,    10.44,    14.03
      307.0,      11.96,    13.00,    10.40,    10.43,    14.01
      308.0,      11.95,    12.98,    10.39,    10.42,    14.00
      309.0,      11.93,    12.96,    10.38,    10.41,    13.99
      310.0,      11.92,    12.94,    10.37,    10.40,    13.97
