Radius (km), Mean (m/s), NE (m/s), SE (m/s), SW (m/s), NW (m/s)
        0.0,       9.13,     9.19,     8.36,     7.67,    11.29
        1.0,      15.48,    15.66,    14.59,    14.02,    17.67
        2.0,      20.26,    20.64,    19.17,    18.74,    22.48
        3.0,      24.07,    24.67,    22.82,    22.55,    26.26
        4.0,      26.96,    27.75,    25.59,    25.47,    29.03
        5.0,      28.95,    29.91,    27.50,    27.52,    30.86
        6.0,      30.11,    31.21,    28.64,    28.74,    31.85
        7.0,      30.57,    31.79,    29.10,    29.24,    32.16
        8.0,      30.49,    31.80,    29.05,    29.16,    31.97
        9.0,      30.05,    31.42,    28.64,    28.67,    31.45
       10.0,      29.39,    30.81,    28.03,    27.94,    30.76
       11.0,      28.64,    30.11,    27.34,    27.09,    30.01
       12.0,      27.89,    29.41,    26.64,    26.23,    29.28
       13.0,      27.18,    28.74,    25.97,    25.40,    28.59
       14.0,      26.50,    28.11,    25.35,    24.63,    27.92
       15.0,      25.86,    27.51,    24.75,    23.89,    27.29
       16.0,      25.24,    26.93,    24.18,    23.19,    26.68
       17.0,      24.65,    26.38,    23.63,    22.51,    26.09
       18.0,      24.08,    25.85,    23.10,    21.85,    25.52
       19.0,      23.53,    25.33,    22.59,    21.23,    24.97
       20.0,      23.00,    24.84,    22.10,    20.62,    24.44
       21.0,      22.49,    24.36,    21.62,    20.04,    23.93
       22.0,      22.00,    23.90,    21.17,    19.47,    23.44
       23.0,      21.52,    23.46,    20.73,    18.93,    22.96
       24.0,      21.07,    23.04,    20.31,    18.41,    22.51
       25.0,      20.63,    22.63,    19.90,    17.91,    22.07
       26.0,      20.20,    22.23,    19.51,    17.43,    21.64
       27.0,      19.80,    21.85,    19.14,    16.96,    21.23
       28.0,      19.41,    21.49,    18.78,    16.52,    20.84
       29.0,      19.03,    21.13,    18.43,    16.09,    20.46
       30.0,      18.66,    20.80,    18.09,    15.67,    20.09
       31.0,      18.31,    20.47,    17.77,    15.27,    19.74
       32.0,      17.97,    20.15,    17.46,    14.89,    19.40
       33.0,      17.65,    19.85,    17.16,    14.52,    19.07
       34.0,      17.33,    19.56,    16.87,    14.16,    18.75
       35.0,      17.03,    19.27,    16.59,    13.82,    18.45
       36.0,      16.74,    19.00,    16.32,    13.48,    18.15
       37.0,      16.46,    18.74,    16.07,    13.17,    17.87
       38.0,      16.19,    18.48,    15.82,    12.86,    17.59
       39.0,      15.93,    18.24,    15.58,    12.56,    17.33
       40.0,      15.68,    18.00,    15.35,    12.28,    17.07
       41.0,      15.43,    17.78,    15.12,    12.00,    16.83
       42.0,      15.20,    17.56,    14.91,    11.74,    16.59
       43.0,      14.97,    17.35,    14.70,    11.48,    16.36
       44.0,      14.76,    17.14,    14.50,    11.24,    16.14
       45.0,      14.55,    16.94,    14.31,    11.00,    15.93
       46.0,      14.34,    16.75,    14.13,    10.78,    15.72
       47.0,      14.15,    16.57,    13.95,    10.56,    15.52
       48.0,      13.96,    16.39,    13.77,    10.35,    15.33
       49.0,      13.78,    16.22,    13.61,    10.14,    15.15
       50.0,      13.60,    16.05,    13.45,     9.95,    14.97
       51.0,      13.43,    15.89,    13.29,     9.76,    14.79
       52.0,      13.27,    15.74,    13.14,     9.58,    14.63
       53.0,      13.11,    15.59,    13.00,     9.40,    14.47
       54.0,      12.96,    15.44,    12.86,     9.23,    14.31
       55.0,      12.81,    15.30,    12.73,     9.07,    14.16
       56.0,      12.67,    15.17,    12.60,     8.91,    14.02
       57.0,      12.54,    15.04,    12.47,     8.76,    13.88
       58.0,      12.40,    14.91,    12.35,     8.61,    13.74
       59.0,      12.28,    14.79,    12.23,     8.47,    13.61
       60.0,      12.15,    14.67,    12.12,     8.34,    13.49
       61.0,      12.03,    14.55,    12.01,     8.21,    13.36
       62.0,      11.92,    14.44,    11.90,     8.08,    13.25
       63.0,      11.81,    14.33,    11.80,     7.96,    13.13
       64.0,      11.70,    14.23,    11.70,     7.84,    13.02
       65.0,      11.60,    14.13,    11.61,     7.73,    12.92
       66.0,      11.49,    14.03,    11.51,     7.62,    12.81
       67.0,      11.40,    13.93,    11.43,     7.52,    12.72
       68.0,      11.30,    13.84,    11.34,     7.42,    12.62
       69.0,      11.21,    13.75,    11.25,     7.32,    12.53
       70.0,      11.12,    13.66,    11.17,     7.22,    12.44
       71.0,      11.04,    13.58,    11.10,     7.13,    12.35
       72.0,      10.96,    13.50,    11.02,     7.05,    12.27
       73.0,      10.88,    13.42,    10.95,     6.96,    12.18
       74.0,      10.80,    13.34,    10.87,     6.88,    12.11
       75.0,      10.72,    13.26,    10.80,     6.80,    12.03
       76.0,      10.65,    13.19,    10.74,     6.72,    11.96
       77.0,      10.58,    13.12,    10.67,     6.65,    11.88
       78.0,      10.51,    13.05,    10.61,     6.58,    11.82
       79.0,      10.45,    12.98,    10.55,     6.51,    11.75
       80.0,      10.38,    12.92,    10.49,     6.45,    11.68
       81.0,      10.32,    12.85,    10.43,     6.38,    11.62
       82.0,      10.26,    12.79,    10.37,     6.32,    11.56
       83.0,      10.20,    12.73,    10.32,     6.26,    11.50
       84.0,      10.15,    12.67,    10.27,     6.20,    11.44
       85.0,      10.09,    12.61,    10.22,     6.15,    11.39
       86.0,      10.04,    12.55,    10.16,     6.10,    11.33
       87.0,       9.99,    12.50,    10.12,     6.04,    11.28
       88.0,       9.93,    12.44,    10.07,     5.99,    11.23
       89.0,       9.89,    12.39,    10.02,     5.95,    11.18
       90.0,       9.84,    12.34,     9.98,     5.90,    11.14
       91.0,       9.79,    12.29,     9.93,     5.85,    11.09
       92.0,       9.75,    12.24,     9.89,     5.81,    11.04
       93.0,       9.70,    12.19,     9.85,     5.77,    11.00
       94.0,       9.66,    12.14,     9.81,     5.73,    10.96
       95.0,       9.62,    12.10,     9.77,     5.69,    10.92
       96.0,       9.58,    12.05,     9.73,     5.65,    10.88
       97.0,       9.54,    12.01,     9.69,     5.61,    10.84
       98.0,       9.50,    11.97,     9.66,     5.58,    10.80
       99.0,       9.46,    11.92,     9.62,     5.54,    10.76
      100.0,       9.43,    11.88,     9.59,     5.51,    10.73
      101.0,       9.39,    11.84,     9.55,     5.48,    10.69
      102.0,       9.36,    11.80,     9.52,     5.44,    10.66
      103.0,       9.32,    11.76,     9.49,     5.41,    10.62
      104.0,       9.29,    11.72,     9.45,     5.39,    10.59
      105.0,       9.26,    11.68,     9.42,     5.36,    10.56
      106.0,       9.22,    11.65,     9.39,     5.33,    10.53
      107.0,       9.19,    11.61,     9.36,     5.30,    10.50
      108.0,       9.16,    11.57,     9.33,     5.28,    10.47
      109.0,       9.13,    11.54,     9.30,     5.25,    10.44
      110.0,       9.11,    11.50,     9.27,     5.23,    10.42
      111.0,       9.08,    11.47,     9.25,     5.20,    10.39
      112.0,       9.05,    11.44,     9.22,     5.18,    10.36
      113.0,       9.02,    11.40,     9.19,     5.16,    10.34
      114.0,       9.00,    11.37,     9.17,     5.13,    10.31
      115.0,       8.97,    11.34,     9.14,     5.11,    10.29
      116.0,       8.94,    11.31,     9.12,     5.09,    10.26
      117.0,       8.92,    11.27,     9.09,     5.07,    10.24
      118.0,       8.89,    11.24,     9.07,     5.05,    10.22
      119.0,       8.87,    11.21,     9.04,     5.03,    10.19
      120.0,       8.85,    11.18,     9.02,     5.02,    10.17
      121.0,       8.82,    11.15,     8.99,     5.00,    10.15
      122.0,       8.80,    11.12,     8.97,     4.98,    10.13
      123.0,       8.78,    11.09,     8.95,     4.96,    10.11
      124.0,       8.76,    11.06,     8.93,     4.95,    10.09
      125.0,       8.74,    11.04,     8.90,     4.93,    10.07
      126.0,       8.71,    11.01,     8.88,     4.92,    10.05
      127.0,       8.69,    10.98,     8.86,     4.90,    10.03
      128.0,       8.67,    10.95,     8.84,     4.89,    10.01
      129.0,       8.65,    10.93,     8.82,     4.87,     9.99
      130.0,       8.63,    10.90,     8.80,     4.86,     9.97
      131.0,       8.61,    10.87,     8.78,     4.84,     9.96
      132.0,       8.59,    10.84,     8.76,     4.83,     9.94
      133.0,       8.57,    10.82,     8.74,     4.82,     9.92
      134.0,       8.55,    10.79,     8.72,     4.80,     9.90
      135.0,       8.54,    10.77,     8.70,     4.79,     9.89
      136.0,       8.52,    10.74,     8.68,     4.78,     9.87
      137.0,       8.50,    10.72,     8.66,     4.77,     9.85
      138.0,       8.48,    10.69,     8.64,     4.76,     9.84
      139.0,       8.46,    10.67,     8.63,     4.74,     9.82
      140.0,       8.45,    10.64,     8.61,     4.73,     9.81
      141.0,       8.43,    10.62,     8.59,     4.72,     9.79
      142.0,       8.41,    10.59,     8.57,     4.71,     9.78
      143.0,       8.40,    10.57,     8.55,     4.70,     9.76
      144.0,       8.38,    10.54,     8.54,     4.69,     9.75
      145.0,       8.36,    10.52,     8.52,     4.68,     9.73
      146.0,       8.35,    10.50,     8.50,     4.67,     9.72
      147.0,       8.33,    10.47,     8.48,     4.66,     9.70
      148.0,       8.31,    10.45,     8.47,     4.65,     9.69
      149.0,       8.30,    10.43,     8.45,     4.64,     9.68
      150.0,       8.28,    10.40,     8.43,     4.63,     9.66
      151.0,       8.27,    10.38,     8.42,     4.62,     9.65
      152.0,       8.25,    10.36,     8.40,     4.61,     9.64
      153.0,       8.24,    10.34,     8.38,     4.60,     9.62
      154.0,       8.22,    10.31,     8.37,     4.60,     9.61
      155.0,       8.21,    10.29,     8.35,     4.59,     9.60
      156.0,       8.19,    10.27,     8.33,     4.58,     9.58
      157.0,       8.18,    10.25,     8.32,     4.57,     9.57
      158.0,       8.16,    10.22,     8.30,     4.56,     9.56
      159.0,       8.15,    10.20,     8.29,     4.55,     9.55
      160.0,       8.13,    10.18,     8.27,     4.55,     9.54
      161.0,       8.12,    10.16,     8.26,     4.54,     9.52
      162.0,       8.11,    10.14,     8.24,     4.53,     9.51
      163.0,       8.09,    10.12,     8.23,     4.52,     9.50
      164.0,       8.08,    10.09,     8.21,     4.52,     9.49
      165.0,       8.06,    10.07,     8.20,     4.51,     9.48
      166.0,       8.05,    10.05,     8.18,     4.50,     9.46
      167.0,       8.04,    10.03,     8.16,     4.49,     9.45
      168.0,       8.02,    10.01,     8.15,     4.49,     9.44
      169.0,       8.01,     9.99,     8.14,     4.48,     9.43
      170.0,       7.99,     9.97,     8.12,     4.47,     9.42
      171.0,       7.98,     9.95,     8.11,     4.47,     9.41
      172.0,       7.97,     9.93,     8.09,     4.46,     9.40
      173.0,       7.96,     9.91,     8.08,     4.45,     9.38
      174.0,       7.94,     9.89,     8.06,     4.45,     9.37
      175.0,       7.93,     9.87,     8.05,     4.44,     9.36
      176.0,       7.92,     9.84,     8.03,     4.43,     9.35
      177.0,       7.90,     9.82,     8.02,     4.43,     9.34
      178.0,       7.89,     9.80,     8.00,     4.42,     9.33
      179.0,       7.88,     9.78,     7.99,     4.41,     9.32
      180.0,       7.86,     9.76,     7.98,     4.41,     9.31
      181.0,       7.85,     9.74,     7.96,     4.40,     9.30
      182.0,       7.84,     9.72,     7.95,     4.40,     9.29
      183.0,       7.83,     9.70,     7.93,     4.39,     9.28
      184.0,       7.81,     9.68,     7.92,     4.38,     9.27
      185.0,       7.80,     9.66,     7.91,     4.38,     9.26
      186.0,       7.79,     9.65,     7.89,     4.37,     9.25
      187.0,       7.78,     9.63,     7.88,     4.37,     9.24
      188.0,       7.76,     9.61,     7.86,     4.36,     9.23
      189.0,       7.75,     9.59,     7.85,     4.35,     9.22
      190.0,       7.74,     9.57,     7.84,     4.35,     9.21
      191.0,       7.73,     9.55,     7.82,     4.34,     9.20
      192.0,       7.72,     9.53,     7.81,     4.34,     9.19
      193.0,       7.70,     9.51,     7.80,     4.33,     9.18
      194.0,       7.69,     9.49,     7.78,     4.32,     9.17
      195.0,       7.68,     9.47,     7.77,     4.32,     9.16
      196.0,       7.67,     9.45,     7.76,     4.31,     9.15
      197.0,       7.65,     9.43,     7.74,     4.31,     9.14
      198.0,       7.64,     9.41,     7.73,     4.30,     9.13
      199.0,       7.63,     9.39,     7.72,     4.30,     9.12
      200.0,       7.62,     9.38,     7.70,     4.29,     9.11
      201.0,       7.61,     9.36,     7.69,     4.29,     9.10
      202.0,       7.60,     9.34,     7.68,     4.28,     9.09
      203.0,       7.58,     9.32,     7.66,     4.28,     9.08
      204.0,       7.57,     9.30,     7.65,     4.27,     9.07
      205.0,       7.56,     9.28,     7.64,     4.26,     9.06
      206.0,       7.55,     9.26,     7.62,     4.26,     9.05
      207.0,       7.54,     9.25,     7.61,     4.25,     9.04
      208.0,       7.53,     9.23,     7.60,     4.25,     9.03
      209.0,       7.51,     9.21,     7.58,     4.24,     9.02
      210.0,       7.50,     9.19,     7.57,     4.24,     9.01
      211.0,       7.49,     9.17,     7.56,     4.23,     9.00
      212.0,       7.48,     9.15,     7.55,     4.23,     8.99
      213.0,       7.47,     9.13,     7.53,     4.22,     8.98
      214.0,       7.46,     9.12,     7.52,     4.22,     8.97
      215.0,       7.45,     9.10,     7.51,     4.21,     8.96
      216.0,       7.43,     9.08,     7.49,     4.21,     8.95
      217.0,       7.42,     9.06,     7.48,     4.20,     8.94
      218.0,       7.41,     9.04,     7.47,     4.20,     8.94
      219.0,       7.40,     9.03,     7.46,     4.19,     8.93
      220.0,       7.39,     9.01,     7.44,     4.19,     8.92
      221.0,       7.38,     8.99,     7.43,     4.18,     8.91
      222.0,       7.37,     8.97,     7.42,     4.18,     8.90
      223.0,       7.36,     8.95,     7.41,     4.17,     8.89
      224.0,       7.34,     8.94,     7.39,     4.17,     8.88
      225.0,       7.33,     8.92,     7.38,     4.16,     8.87
      226.0,       7.32,     8.90,     7.37,     4.16,     8.86
      227.0,       7.31,     8.88,     7.36,     4.15,     8.85
      228.0,       7.30,     8.87,     7.34,     4.15,     8.84
      229.0,       7.29,     8.85,     7.33,     4.14,     8.83
      230.0,       7.28,     8.83,     7.32,     4.14,     8.83
      231.0,       7.27,     8.81,     7.31,     4.13,     8.82
      232.0,       7.26,     8.80,     7.29,     4.13,     8.81
      233.0,       7.25,     8.78,     7.28,     4.12,     8.80
      234.0,       7.23,     8.76,     7.27,     4.12,     8.79
      235.0,       7.22,     8.74,     7.26,     4.11,     8.78
      236.0,       7.21,     8.73,     7.24,     4.11,     8.77
      237.0,       7.20,     8.71,     7.23,     4.10,     8.76
      238.0,       7.19,     8.69,     7.22,     4.10,     8.75
      239.0,       7.18,     8.67,     7.21,     4.09,     8.74
      240.0,       7.17,     8.66,     7.20,     4.09,     8.74
      241.0,       7.16,     8.64,     7.18,     4.09,     8.73
      242.0,       7.15,     8.62,     7.17,     4.08,     8.72
      243.0,       7.14,     8.61,     7.16,     4.08,     8.71
      244.0,       7.13,     8.59,     7.15,     4.07,     8.70
      245.0,       7.12,     8.57,     7.14,     4.07,     8.69
      246.0,       7.11,     8.55,     7.12,     4.06,     8.68
      247.0,       7.09,     8.54,     7.11,     4.06,     8.67
      248.0,       7.08,     8.52,     7.10,     4.05,     8.66
      249.0,       7.07,     8.50,     7.09,     4.05,     8.66
      250.0,       7.06,     8.49,     7.08,     4.04,     8.65
      251.0,       7.05,     8.47,     7.06,     4.04,     8.64
      252.0,       7.04,     8.45,     7.05,     4.03,     8.63
      253.0,       7.03,     8.44,     7.04,     4.03,     8.62
      254.0,       7.02,     8.42,     7.03,     4.02,     8.61
      255.0,       7.01,     8.40,     7.02,     4.02,     8.60
      256.0,       7.00,     8.39,     7.00,     4.02,     8.59
      257.0,       6.99,     8.37,     6.99,     4.01,     8.59
      258.0,       6.98,     8.35,     6.98,     4.01,     8.58
      259.0,       6.97,     8.34,     6.97,     4.00,     8.57
      260.0,       6.96,     8.32,     6.96,     4.00,     8.56
      261.0,       6.95,     8.30,     6.95,     3.99,     8.55
      262.0,       6.94,     8.29,     6.93,     3.99,     8.54
      263.0,       6.93,     8.27,     6.92,     3.98,     8.53
      264.0,       6.92,     8.26,     6.91,     3.98,     8.52
      265.0,       6.91,     8.24,     6.90,     3.97,     8.52
      266.0,       6.90,     8.22,     6.89,     3.97,     8.51
      267.0,       6.89,     8.21,     6.88,     3.96,     8.50
      268.0,       6.88,     8.19,     6.86,     3.96,     8.49
      269.0,       6.87,     8.17,     6.85,     3.96,     8.48
      270.0,       6.86,     8.16,     6.84,     3.95,     8.47
      271.0,       6.85,     8.14,     6.83,     3.95,     8.46
      272.0,       6.84,     8.13,     6.82,     3.94,     8.46
      273.0,       6.83,     8.11,     6.81,     3.94,     8.45
      274.0,       6.82,     8.09,     6.80,     3.93,     8.44
      275.0,       6.81,     8.08,     6.78,     3.93,     8.43
      276.0,       6.80,     8.06,     6.77,     3.92,     8.42
      277.0,       6.79,     8.05,     6.76,     3.92,     8.41
      278.0,       6.78,     8.03,     6.75,     3.92,     8.41
      279.0,       6.77,     8.01,     6.74,     3.91,     8.40
      280.0,       6.76,     8.00,     6.73,     3.91,     8.39
      281.0,       6.75,     7.98,     6.72,     3.90,     8.38
      282.0,       6.74,     7.97,     6.71,     3.90,     8.37
      283.0,       6.73,     7.95,     6.69,     3.89,     8.36
      284.0,       6.72,     7.93,     6.68,     3.89,     8.35
      285.0,       6.71,     7.92,     6.67,     3.88,     8.35
      286.0,       6.70,     7.90,     6.66,     3.88,     8.34
      287.0,       6.69,     7.89,     6.65,     3.88,     8.33
      288.0,       6.68,     7.87,     6.64,     3.87,     8.32
      289.0,       6.67,     7.86,     6.63,     3.87,     8.31
      290.0,       6.66,     7.84,     6.62,     3.86,     8.30
      291.0,       6.65,     7.83,     6.61,     3.86,     8.30
      292.0,       6.64,     7.81,     6.59,     3.85,     8.29
      293.0,       6.63,     7.79,     6.58,     3.85,     8.28
      294.0,       6.62,     7.78,     6.57,     3.84,     8.27
      295.0,       6.61,     7.76,     6.56,     3.84,     8.26
      296.0,       6.60,     7.75,     6.55,     3.84,     8.25
      297.0,       6.59,     7.73,     6.54,     3.83,     8.25
      298.0,       6.58,     7.72,     6.53,     3.83,     8.24
      299.0,       6.57,     7.70,     6.52,     3.82,     8.23
      300.0,       6.56,     7.69,     6.51,     3.82,     8.22
      301.0,       6.55,     7.67,     6.50,     3.81,     8.21
      302.0,       6.54,     7.66,     6.48,     3.81,     8.20
      303.0,       6.53,     7.64,     6.47,     3.81,     8.20
      304.0,       6.52,     7.63,     6.46,     3.80,     8.19
      305.0,       6.51,     7.61,     6.45,     3.80,     8.18
      306.0,       6.50,     7.60,     6.44,     3.79,     8.17
      307.0,       6.49,     7.58,     6.43,     3.79,     8.16
      308.0,       6.48,     7.57,     6.42,     3.78,     8.15
      309.0,       6.47,     7.55,     6.41,     3.78,     8.15
      310.0,       6.46,     7.54,     6.40,     3.78,     8.14
