Radius (km), Mean (m/s), NE (m/s), SE (m/s), SW (m/s), NW (m/s)
        0.0,       0.00,     0.00,     0.00,     0.00,     0.00
        1.0,       1.02,     0.38,     0.93,     1.38,     1.38
        2.0,       2.20,     1.10,     2.12,     2.79,     2.79
        3.0,       3.47,     2.05,     3.43,     4.20,     4.20
        4.0,       4.82,     3.20,     4.83,     5.63,     5.63
        5.0,       6.23,     4.50,     6.30,     7.05,     7.05
        6.0,       7.69,     5.96,     7.82,     8.48,     8.48
        7.0,       9.19,     7.55,     9.39,     9.92,     9.92
        8.0,      10.74,     9.27,    11.00,    11.35,    11.35
        9.0,      12.34,    11.11,    12.65,    12.79,    12.79
       10.0,      13.97,    13.06,    14.34,    14.23,    14.23
       11.0,      15.63,    15.12,    16.05,    15.67,    15.67
       12.0,      17.33,    17.29,    17.80,    17.12,    17.12
       13.0,      19.06,    19.55,    19.58,    18.56,    18.56
       14.0,      20.83,    21.91,    21.38,    20.01,    20.01
       15.0,      22.62,    24.35,    23.20,    21.46,    21.46
       16.0,      24.44,    26.89,    25.05,    22.91,    22.91
       17.0,      26.29,    29.52,    26.92,    24.36,    24.36
       18.0,      28.17,    32.23,    28.81,    25.81,    25.81
       19.0,      30.08,    35.05,    30.72,    27.26,    27.29
       20.0,      32.09,    38.07,    32.71,    28.72,    28.84
       21.0,      34.26,    41.46,    34.84,    30.22,    30.52
       22.0,      36.69,    45.36,    37.22,    31.82,    32.37
       23.0,      39.44,    49.86,    39.92,    33.57,    34.41
       24.0,      42.51,    54.96,    42.97,    35.51,    36.62
       25.0,      45.83,    60.51,    46.28,    37.62,    38.92
       26.0,      49.26,    66.24,    49.73,    39.85,    41.23
       27.0,      52.62,    71.82,    53.12,    42.11,    43.42
       28.0,      55.68,    76.89,    56.21,    44.25,    45.38
       29.0,      58.27,    81.13,    58.82,    46.14,    47.00
       30.0,      60.23,    84.29,    60.76,    47.67,    48.21
       31.0,      61.48,    86.24,    61.95,    48.74,    48.99
       32.0,      62.00,    86.98,    62.35,    49.32,    49.35
       33.0,      61.85,    86.61,    62.05,    49.40,    49.35
       34.0,      61.16,    85.36,    61.15,    49.06,    49.06
       35.0,      60.07,    83.50,    59.82,    48.38,    48.59
       36.0,      58.75,    81.29,    58.24,    47.47,    48.01
       37.0,      57.34,    78.97,    56.57,    46.44,    47.39
       38.0,      55.96,    76.71,    54.92,    45.39,    46.79
       39.0,      54.64,    74.59,    53.37,    44.39,    46.21
       40.0,      53.41,    72.62,    51.92,    43.45,    45.66
       41.0,      52.26,    70.76,    50.57,    42.58,    45.12
       42.0,      51.15,    68.98,    49.28,    41.77,    44.59
       43.0,      50.09,    67.27,    48.04,    40.98,    44.07
       44.0,      49.06,    65.62,    46.85,    40.22,    43.56
       45.0,      48.07,    64.04,    45.71,    39.48,    43.05
       46.0,      47.11,    62.51,    44.60,    38.77,    42.56
       47.0,      46.18,    61.05,    43.54,    38.07,    42.07
       48.0,      45.29,    59.64,    42.52,    37.40,    41.59
       49.0,      44.42,    58.28,    41.54,    36.75,    41.11
       50.0,      43.58,    56.97,    40.59,    36.12,    40.65
       51.0,      42.77,    55.71,    39.68,    35.51,    40.19
       52.0,      41.99,    54.50,    38.81,    34.91,    39.73
       53.0,      41.23,    53.33,    37.96,    34.34,    39.29
       54.0,      40.50,    52.21,    37.15,    33.78,    38.85
       55.0,      39.79,    51.13,    36.37,    33.24,    38.42
       56.0,      39.10,    50.09,    35.62,    32.71,    37.99
       57.0,      38.44,    49.08,    34.90,    32.20,    37.57
       58.0,      37.79,    48.12,    34.20,    31.70,    37.16
       59.0,      37.17,    47.19,    33.53,    31.22,    36.75
       60.0,      36.57,    46.29,    32.88,    30.76,    36.35
       61.0,      35.99,    45.43,    32.26,    30.30,    35.96
       62.0,      35.42,    44.59,    31.66,    29.86,    35.57
       63.0,      34.87,    43.79,    31.08,    29.44,    35.19
       64.0,      34.34,    43.02,    30.52,    29.02,    34.81
       65.0,      33.83,    42.27,    29.99,    28.62,    34.44
       66.0,      33.33,    41.56,    29.47,    28.23,    34.08
       67.0,      32.85,    40.86,    28.97,    27.85,    33.72
       68.0,      32.38,    40.20,    28.49,    27.48,    33.37
       69.0,      31.93,    39.55,    28.03,    27.12,    33.02
       70.0,      31.49,    38.93,    27.58,    26.77,    32.67
       71.0,      31.06,    38.34,    27.15,    26.43,    32.34
       72.0,      30.65,    37.76,    26.74,    26.10,    32.00
       73.0,      30.25,    37.20,    26.34,    25.78,    31.68
       74.0,      29.86,    36.66,    25.95,    25.46,    31.35
       75.0,      29.48,    36.15,    25.58,    25.16,    31.04
       76.0,      29.11,    35.65,    25.22,    24.86,    30.72
       77.0,      28.76,    35.16,    24.87,    24.57,    30.41
       78.0,      28.41,    34.70,    24.54,    24.29,    30.11
       79.0,      28.07,    34.25,    24.22,    24.02,    29.81
       80.0,      27.75,    33.81,    23.91,    23.75,    29.52
       81.0,      27.43,    33.39,    23.61,    23.50,    29.23
       82.0,      27.12,    32.99,    23.32,    23.24,    28.94
       83.0,      26.82,    32.60,    23.04,    23.00,    28.66
       84.0,      26.53,    32.22,    22.76,    22.76,    28.38
       85.0,      26.25,    31.85,    22.50,    22.52,    28.11
       86.0,      25.97,    31.50,    22.25,    22.30,    27.84
       87.0,      25.70,    31.15,    22.01,    22.07,    27.58
       88.0,      25.44,    30.82,    21.77,    21.86,    27.32
       89.0,      25.19,    30.50,    21.54,    21.65,    27.06
       90.0,      24.94,    30.19,    21.32,    21.44,    26.81
       91.0,      24.70,    29.89,    21.11,    21.24,    26.56
       92.0,      24.46,    29.60,    20.90,    21.04,    26.31
       93.0,      24.24,    29.32,    20.70,    20.85,    26.07
       94.0,      24.01,    29.05,    20.51,    20.66,    25.83
       95.0,      23.80,    28.79,    20.32,    20.48,    25.60
       96.0,      23.58,    28.53,    20.14,    20.30,    25.37
       97.0,      23.38,    28.28,    19.96,    20.12,    25.14
       98.0,      23.18,    28.04,    19.79,    19.95,    24.91
       99.0,      22.98,    27.81,    19.63,    19.79,    24.69
      100.0,      22.79,    27.58,    19.47,    19.62,    24.48
      101.0,      22.60,    27.37,    19.31,    19.46,    24.26
      102.0,      22.42,    27.15,    19.16,    19.31,    24.05
      103.0,      22.24,    26.95,    19.02,    19.15,    23.84
      104.0,      22.07,    26.75,    18.88,    19.00,    23.64
      105.0,      21.90,    26.55,    18.74,    18.86,    23.44
      106.0,      21.73,    26.36,    18.60,    18.71,    23.24
      107.0,      21.57,    26.18,    18.48,    18.57,    23.04
      108.0,      21.41,    26.00,    18.35,    18.43,    22.85
      109.0,      21.25,    25.83,    18.23,    18.30,    22.66
      110.0,      21.10,    25.66,    18.11,    18.17,    22.47
      111.0,      20.95,    25.49,    17.99,    18.04,    22.29
      112.0,      20.81,    25.33,    17.88,    17.91,    22.11
      113.0,      20.66,    25.18,    17.77,    17.78,    21.93
      114.0,      20.53,    25.03,    17.67,    17.66,    21.75
      115.0,      20.39,    24.88,    17.56,    17.54,    21.58
      116.0,      20.26,    24.74,    17.46,    17.42,    21.41
      117.0,      20.13,    24.59,    17.36,    17.30,    21.24
      118.0,      20.00,    24.46,    17.27,    17.19,    21.07
      119.0,      19.87,    24.32,    17.18,    17.08,    20.91
      120.0,      19.75,    24.19,    17.08,    16.97,    20.75
      121.0,      19.63,    24.07,    17.00,    16.86,    20.59
      122.0,      19.51,    23.94,    16.91,    16.75,    20.43
      123.0,      19.39,    23.82,    16.82,    16.65,    20.28
      124.0,      19.28,    23.70,    16.74,    16.55,    20.12
      125.0,      19.17,    23.59,    16.66,    16.45,    19.97
      126.0,      19.06,    23.47,    16.58,    16.35,    19.83
      127.0,      18.95,    23.36,    16.51,    16.25,    19.68
      128.0,      18.84,    23.25,    16.43,    16.15,    19.54
      129.0,      18.74,    23.15,    16.36,    16.06,    19.40
      130.0,      18.64,    23.04,    16.29,    15.96,    19.26
      131.0,      18.54,    22.94,    16.22,    15.87,    19.12
      132.0,      18.44,    22.84,    16.15,    15.78,    18.98
      133.0,      18.34,    22.74,    16.08,    15.69,    18.85
      134.0,      18.25,    22.65,    16.01,    15.60,    18.72
      135.0,      18.15,    22.55,    15.95,    15.51,    18.59
      136.0,      18.06,    22.46,    15.88,    15.43,    18.46
      137.0,      17.97,    22.37,    15.82,    15.34,    18.34
      138.0,      17.88,    22.28,    15.76,    15.26,    18.21
      139.0,      17.79,    22.19,    15.70,    15.18,    18.09
      140.0,      17.70,    22.11,    15.64,    15.10,    17.97
      141.0,      17.62,    22.02,    15.58,    15.02,    17.85
      142.0,      17.53,    21.94,    15.53,    14.94,    17.73
      143.0,      17.45,    21.86,    15.47,    14.86,    17.62
      144.0,      17.37,    21.78,    15.42,    14.78,    17.50
      145.0,      17.29,    21.70,    15.36,    14.71,    17.39
      146.0,      17.21,    21.62,    15.31,    14.63,    17.28
      147.0,      17.13,    21.54,    15.26,    14.56,    17.17
      148.0,      17.05,    21.47,    15.20,    14.48,    17.07
      149.0,      16.98,    21.39,    15.15,    14.41,    16.96
      150.0,      16.90,    21.32,    15.10,    14.34,    16.86
      151.0,      16.83,    21.25,    15.05,    14.27,    16.75
      152.0,      16.76,    21.17,    15.01,    14.20,    16.65
      153.0,      16.68,    21.10,    14.96,    14.13,    16.55
      154.0,      16.61,    21.03,    14.91,    14.06,    16.45
      155.0,      16.54,    20.96,    14.86,    13.99,    16.36
      156.0,      16.47,    20.90,    14.82,    13.92,    16.26
      157.0,      16.41,    20.83,    14.77,    13.85,    16.17
      158.0,      16.34,    20.76,    14.73,    13.79,    16.07
      159.0,      16.27,    20.70,    14.68,    13.72,    15.98
      160.0,      16.20,    20.63,    14.64,    13.66,    15.89
      161.0,      16.14,    20.57,    14.60,    13.59,    15.80
      162.0,      16.07,    20.50,    14.55,    13.53,    15.71
      163.0,      16.01,    20.44,    14.51,    13.47,    15.63
      164.0,      15.95,    20.38,    14.47,    13.40,    15.54
      165.0,      15.89,    20.32,    14.43,    13.34,    15.46
      166.0,      15.82,    20.26,    14.39,    13.28,    15.37
      167.0,      15.76,    20.20,    14.35,    13.22,    15.29
      168.0,      15.70,    20.14,    14.31,    13.16,    15.21
      169.0,      15.64,    20.08,    14.27,    13.10,    15.13
      170.0,      15.58,    20.02,    14.23,    13.04,    15.05
      171.0,      15.53,    19.96,    14.19,    12.98,    14.97
      172.0,      15.47,    19.90,    14.15,    12.92,    14.90
      173.0,      15.41,    19.85,    14.11,    12.86,    14.82
      174.0,      15.35,    19.79,    14.07,    12.81,    14.75
      175.0,      15.30,    19.73,    14.03,    12.75,    14.67
      176.0,      15.24,    19.68,    14.00,    12.69,    14.60
      177.0,      15.19,    19.62,    13.96,    12.64,    14.53
      178.0,      15.13,    19.57,    13.92,    12.58,    14.46
      179.0,      15.08,    19.51,    13.89,    12.53,    14.39
      180.0,      15.02,    19.46,    13.85,    12.47,    14.32
      181.0,      14.97,    19.40,    13.81,    12.42,    14.25
      182.0,      14.92,    19.35,    13.78,    12.36,    14.19
      183.0,      14.87,    19.30,    13.74,    12.31,    14.12
      184.0,      14.82,    19.25,    13.71,    12.26,    14.05
      185.0,      14.76,    19.19,    13.67,    12.20,    13.99
      186.0,      14.71,    19.14,    13.64,    12.15,    13.93
      187.0,      14.66,    19.09,    13.60,    12.10,    13.86
      188.0,      14.61,    19.04,    13.57,    12.05,    13.80
      189.0,      14.56,    18.99,    13.53,    11.99,    13.74
      190.0,      14.51,    18.94,    13.50,    11.94,    13.68
      191.0,      14.47,    18.89,    13.47,    11.89,    13.62
      192.0,      14.42,    18.84,    13.43,    11.84,    13.56
      193.0,      14.37,    18.79,    13.40,    11.79,    13.51
      194.0,      14.32,    18.74,    13.37,    11.74,    13.45
      195.0,      14.28,    18.69,    13.33,    11.69,    13.39
      196.0,      14.23,    18.64,    13.30,    11.64,    13.34
      197.0,      14.18,    18.59,    13.27,    11.59,    13.28
      198.0,      14.14,    18.54,    13.23,    11.54,    13.23
      199.0,      14.09,    18.49,    13.20,    11.50,    13.17
      200.0,      14.05,    18.44,    13.17,    11.45,    13.12
      201.0,      14.00,    18.40,    13.14,    11.40,    13.07
      202.0,      13.96,    18.35,    13.11,    11.35,    13.02
      203.0,      13.91,    18.30,    13.07,    11.30,    12.97
      204.0,      13.87,    18.25,    13.04,    11.26,    12.92
      205.0,      13.82,    18.21,    13.01,    11.21,    12.87
      206.0,      13.78,    18.16,    12.98,    11.16,    12.82
      207.0,      13.74,    18.11,    12.95,    11.12,    12.77
      208.0,      13.70,    18.07,    12.92,    11.07,    12.72
      209.0,      13.65,    18.02,    12.89,    11.03,    12.68
      210.0,      13.61,    17.97,    12.86,    10.98,    12.63
      211.0,      13.57,    17.93,    12.83,    10.93,    12.58
      212.0,      13.53,    17.88,    12.80,    10.89,    12.54
      213.0,      13.49,    17.84,    12.77,    10.84,    12.49
      214.0,      13.44,    17.79,    12.74,    10.80,    12.45
      215.0,      13.40,    17.75,    12.70,    10.76,    12.41
      216.0,      13.36,    17.70,    12.67,    10.71,    12.36
      217.0,      13.32,    17.66,    12.65,    10.67,    12.32
      218.0,      13.28,    17.61,    12.62,    10.62,    12.28
      219.0,      13.24,    17.57,    12.59,    10.58,    12.24
      220.0,      13.20,    17.52,    12.56,    10.54,    12.20
      221.0,      13.16,    17.48,    12.53,    10.49,    12.16
      222.0,      13.12,    17.44,    12.50,    10.45,    12.12
      223.0,      13.09,    17.39,    12.47,    10.41,    12.08
      224.0,      13.05,    17.35,    12.44,    10.37,    12.04
      225.0,      13.01,    17.31,    12.41,    10.32,    12.00
      226.0,      12.97,    17.26,    12.38,    10.28,    11.96
      227.0,      12.93,    17.22,    12.35,    10.24,    11.92
      228.0,      12.90,    17.18,    12.32,    10.20,    11.88
      229.0,      12.86,    17.13,    12.29,    10.16,    11.85
      230.0,      12.82,    17.09,    12.27,    10.12,    11.81
      231.0,      12.78,    17.05,    12.24,    10.08,    11.78
      232.0,      12.75,    17.01,    12.21,    10.03,    11.74
      233.0,      12.71,    16.96,    12.18,     9.99,    11.70
      234.0,      12.67,    16.92,    12.15,     9.95,    11.67
      235.0,      12.64,    16.88,    12.12,     9.91,    11.64
      236.0,      12.60,    16.84,    12.10,     9.87,    11.60
      237.0,      12.57,    16.79,    12.07,     9.83,    11.57
      238.0,      12.53,    16.75,    12.04,     9.79,    11.53
      239.0,      12.49,    16.71,    12.01,     9.75,    11.50
      240.0,      12.46,    16.67,    11.98,     9.71,    11.47
      241.0,      12.42,    16.63,    11.96,     9.68,    11.44
      242.0,      12.39,    16.59,    11.93,     9.64,    11.40
      243.0,      12.35,    16.55,    11.90,     9.60,    11.37
      244.0,      12.32,    16.51,    11.87,     9.56,    11.34
      245.0,      12.29,    16.46,    11.85,     9.52,    11.31
      246.0,      12.25,    16.42,    11.82,     9.48,    11.28
      247.0,      12.22,    16.38,    11.79,     9.44,    11.25
      248.0,      12.18,    16.34,    11.76,     9.41,    11.22
      249.0,      12.15,    16.30,    11.74,     9.37,    11.19
      250.0,      12.12,    16.26,    11.71,     9.33,    11.16
      251.0,      12.08,    16.22,    11.68,     9.29,    11.13
      252.0,      12.05,    16.18,    11.66,     9.26,    11.11
      253.0,      12.02,    16.14,    11.63,     9.22,    11.08
      254.0,      11.98,    16.10,    11.60,     9.18,    11.05
      255.0,      11.95,    16.06,    11.58,     9.15,    11.02
      256.0,      11.92,    16.02,    11.55,     9.11,    10.99
      257.0,      11.89,    15.98,    11.52,     9.07,    10.97
      258.0,      11.85,    15.94,    11.50,     9.04,    10.94
      259.0,      11.82,    15.90,    11.47,     9.00,    10.91
      260.0,      11.79,    15.87,    11.44,     8.96,    10.89
      261.0,      11.76,    15.83,    11.42,     8.93,    10.86
      262.0,      11.73,    15.79,    11.39,     8.89,    10.84
      263.0,      11.70,    15.75,    11.37,     8.86,    10.81
      264.0,      11.66,    15.71,    11.34,     8.82,    10.79
      265.0,      11.63,    15.67,    11.31,     8.79,    10.76
      266.0,      11.60,    15.63,    11.29,     8.75,    10.74
      267.0,      11.57,    15.59,    11.26,     8.72,    10.71
      268.0,      11.54,    15.56,    11.24,     8.68,    10.69
      269.0,      11.51,    15.52,    11.21,     8.65,    10.66
      270.0,      11.48,    15.48,    11.19,     8.61,    10.64
      271.0,      11.45,    15.44,    11.16,     8.58,    10.62
      272.0,      11.42,    15.40,    11.13,     8.54,    10.59
      273.0,      11.39,    15.37,    11.11,     8.51,    10.57
      274.0,      11.36,    15.33,    11.08,     8.48,    10.55
      275.0,      11.33,    15.29,    11.06,     8.44,    10.52
      276.0,      11.30,    15.25,    11.03,     8.41,    10.50
      277.0,      11.27,    15.22,    11.01,     8.37,    10.48
      278.0,      11.24,    15.18,    10.98,     8.34,    10.46
      279.0,      11.21,    15.14,    10.96,     8.31,    10.44
      280.0,      11.18,    15.10,    10.93,     8.27,    10.41
      281.0,      11.15,    15.07,    10.91,     8.24,    10.39
      282.0,      11.12,    15.03,    10.88,     8.21,    10.37
      283.0,      11.09,    14.99,    10.86,     8.18,    10.35
      284.0,      11.07,    14.96,    10.83,     8.14,    10.33
      285.0,      11.04,    14.92,    10.81,     8.11,    10.31
      286.0,      11.01,    14.88,    10.78,     8.08,    10.29
      287.0,      10.98,    14.85,    10.76,     8.05,    10.27
      288.0,      10.95,    14.81,    10.73,     8.01,    10.25
      289.0,      10.92,    14.77,    10.71,     7.98,    10.23
      290.0,      10.90,    14.74,    10.69,     7.95,    10.21
      291.0,      10.87,    14.70,    10.66,     7.92,    10.19
      292.0,      10.84,    14.67,    10.64,     7.89,    10.17
      293.0,      10.81,    14.63,    10.61,     7.86,    10.15
      294.0,      10.78,    14.59,    10.59,     7.82,    10.13
      295.0,      10.76,    14.56,    10.56,     7.79,    10.11
      296.0,      10.73,    14.52,    10.54,     7.76,    10.09
      297.0,      10.70,    14.49,    10.52,     7.73,    10.08
      298.0,      10.68,    14.45,    10.49,     7.70,    10.06
      299.0,      10.65,    14.42,    10.47,     7.67,    10.04
      300.0,      10.62,    14.38,    10.44,     7.64,    10.02
      301.0,      10.59,    14.35,    10.42,     7.61,    10.00
      302.0,      10.57,    14.31,    10.40,     7.58,     9.99
      303.0,      10.54,    14.28,    10.37,     7.55,     9.97
      304.0,      10.51,    14.24,    10.35,     7.52,     9.95
      305.0,      10.49,    14.21,    10.33,     7.49,     9.93
      306.0,      10.46,    14.17,    10.30,     7.46,     9.91
      307.0,      10.44,    14.14,    10.28,     7.43,     9.90
      308.0,      10.41,    14.10,    10.26,     7.40,     9.88
      309.0,      10.38,    14.07,    10.23,     7.37,     9.86
      310.0,      10.36,    14.03,    10.21,     7.34,     9.85
