Radius (km), Mean (m/s), NE (m/s), SE (m/s), SW (m/s), NW (m/s)
        0.0,       0.00,     0.00,     0.00,     0.00,     0.00
        1.0,       1.17,     0.98,     1.22,     1.49,     0.98
        2.0,       2.14,     1.91,     2.22,     2.54,     1.91
        3.0,       3.06,     2.81,     3.15,     3.46,     2.81
        4.0,       3.93,     3.69,     4.03,     4.32,     3.69
        5.0,       4.79,     4.57,     4.89,     5.12,     4.57
        6.0,       5.62,     5.44,     5.73,     5.88,     5.44
        7.0,       6.44,     6.30,     6.54,     6.62,     6.30
        8.0,       7.24,     7.15,     7.34,     7.33,     7.15
        9.0,       8.04,     8.00,     8.13,     8.02,     8.00
       10.0,       8.82,     8.85,     8.90,     8.70,     8.85
       11.0,       9.60,     9.69,     9.67,     9.35,     9.69
       12.0,      10.37,    10.53,    10.42,    10.00,    10.53
       13.0,      11.13,    11.36,    11.17,    10.63,    11.36
       14.0,      11.89,    12.19,    11.91,    11.25,    12.19
       15.0,      12.64,    13.02,    12.64,    11.86,    13.02
       16.0,      13.38,    13.85,    13.36,    12.46,    13.85
       17.0,      14.12,    14.67,    14.08,    13.05,    14.67
       18.0,      14.85,    15.50,    14.79,    13.63,    15.50
       19.0,      15.59,    16.32,    15.50,    14.21,    16.32
       20.0,      16.31,    17.14,    16.20,    14.78,    17.14
       21.0,      17.04,    17.95,    16.90,    15.34,    17.95
       22.0,      17.75,    18.77,    17.59,    15.90,    18.77
       23.0,      18.47,    19.58,    18.28,    16.44,    19.58
       24.0,      19.18,    20.39,    18.97,    16.99,    20.39
       25.0,      19.89,    21.20,    19.65,    17.53,    21.20
       26.0,      20.60,    22.01,    20.32,    18.06,    22.01
       27.0,      21.30,    22.81,    21.00,    18.59,    22.81
       28.0,      22.00,    23.62,    21.67,    19.11,    23.62
       29.0,      22.70,    24.42,    22.33,    19.63,    24.42
       30.0,      23.40,    25.23,    23.00,    20.15,    25.23
       31.0,      24.09,    26.03,    23.66,    20.66,    26.03
       32.0,      24.78,    26.83,    24.32,    21.17,    26.83
       33.0,      25.47,    27.63,    24.97,    21.67,    27.63
       34.0,      26.16,    28.42,    25.62,    22.17,    28.42
       35.0,      26.85,    29.22,    26.27,    22.67,    29.22
       36.0,      27.53,    30.02,    26.92,    23.17,    30.02
       37.0,      28.21,    30.81,    27.57,    23.66,    30.81
       38.0,      28.89,    31.60,    28.21,    24.14,    31.60
       39.0,      29.57,    32.40,    28.85,    24.63,    32.40
       40.0,      30.24,    33.19,    29.49,    25.11,    33.19
       41.0,      30.92,    33.98,    30.13,    25.59,    33.98
       42.0,      31.60,    34.78,    30.79,    26.07,    34.78
       43.0,      32.32,    35.60,    31.49,    26.58,    35.61
       44.0,      33.08,    36.47,    32.25,    27.11,    36.50
       45.0,      33.91,    37.41,    33.07,    27.68,    37.47
       46.0,      34.80,    38.43,    33.96,    28.30,    38.52
       47.0,      35.76,    39.53,    34.89,    28.95,    39.66
       48.0,      36.73,    40.66,    35.82,    29.60,    40.82
       49.0,      37.68,    41.79,    36.71,    30.24,    41.98
       50.0,      38.56,    42.85,    37.50,    30.83,    43.04
       51.0,      39.31,    43.77,    38.17,    31.34,    43.97
       52.0,      39.91,    44.52,    38.68,    31.75,    44.69
       53.0,      40.32,    45.05,    39.01,    32.04,    45.19
       54.0,      40.55,    45.36,    39.18,    32.22,    45.44
       55.0,      40.60,    45.44,    39.21,    32.29,    45.47
       56.0,      40.51,    45.34,    39.11,    32.26,    45.31
       57.0,      40.30,    45.09,    38.93,    32.18,    45.01
       58.0,      40.04,    44.76,    38.71,    32.05,    44.63
       59.0,      39.74,    44.38,    38.48,    31.91,    44.20
       60.0,      39.44,    43.99,    38.24,    31.76,    43.78
       61.0,      39.16,    43.63,    38.02,    31.62,    43.38
       62.0,      38.90,    43.29,    37.81,    31.50,    43.00
       63.0,      38.65,    42.97,    37.61,    31.37,    42.66
       64.0,      38.41,    42.67,    37.40,    31.25,    42.32
       65.0,      38.18,    42.38,    37.20,    31.13,    42.00
       66.0,      37.95,    42.09,    37.00,    31.02,    41.68
       67.0,      37.72,    41.81,    36.80,    30.90,    41.38
       68.0,      37.50,    41.53,    36.60,    30.78,    41.07
       69.0,      37.28,    41.26,    36.41,    30.66,    40.78
       70.0,      37.06,    40.99,    36.21,    30.55,    40.49
       71.0,      36.85,    40.73,    36.02,    30.43,    40.21
       72.0,      36.64,    40.47,    35.83,    30.31,    39.94
       73.0,      36.43,    40.22,    35.64,    30.20,    39.67
       74.0,      36.23,    39.97,    35.45,    30.08,    39.41
       75.0,      36.03,    39.73,    35.26,    29.97,    39.15
       76.0,      35.83,    39.49,    35.07,    29.86,    38.90
       77.0,      35.63,    39.25,    34.89,    29.74,    38.65
       78.0,      35.44,    39.02,    34.71,    29.63,    38.41
       79.0,      35.25,    38.79,    34.52,    29.52,    38.17
       80.0,      35.06,    38.57,    34.34,    29.41,    37.94
       81.0,      34.88,    38.34,    34.16,    29.30,    37.71
       82.0,      34.69,    38.12,    33.98,    29.19,    37.48
       83.0,      34.51,    37.91,    33.81,    29.08,    37.26
       84.0,      34.34,    37.70,    33.63,    28.97,    37.05
       85.0,      34.16,    37.49,    33.45,    28.86,    36.84
       86.0,      33.98,    37.28,    33.28,    28.75,    36.63
       87.0,      33.81,    37.08,    33.11,    28.64,    36.42
       88.0,      33.64,    36.88,    32.94,    28.53,    36.22
       89.0,      33.47,    36.68,    32.77,    28.43,    36.02
       90.0,      33.31,    36.48,    32.60,    28.32,    35.83
       91.0,      33.14,    36.29,    32.43,    28.21,    35.64
       92.0,      32.98,    36.10,    32.26,    28.11,    35.45
       93.0,      32.82,    35.91,    32.10,    28.00,    35.26
       94.0,      32.66,    35.72,    31.94,    27.90,    35.08
       95.0,      32.50,    35.54,    31.77,    27.80,    34.90
       96.0,      32.34,    35.35,    31.61,    27.69,    34.72
       97.0,      32.19,    35.17,    31.45,    27.59,    34.55
       98.0,      32.04,    35.00,    31.29,    27.49,    34.38
       99.0,      31.89,    34.82,    31.13,    27.38,    34.21
      100.0,      31.73,    34.65,    30.97,    27.28,    34.04
      101.0,      31.59,    34.47,    30.82,    27.18,    33.87
      102.0,      31.44,    34.30,    30.66,    27.08,    33.71
      103.0,      31.29,    34.13,    30.51,    26.98,    33.55
      104.0,      31.15,    33.97,    30.36,    26.88,    33.39
      105.0,      31.00,    33.80,    30.20,    26.78,    33.23
      106.0,      30.86,    33.64,    30.05,    26.68,    33.08
      107.0,      30.72,    33.47,    29.90,    26.58,    32.92
      108.0,      30.58,    33.31,    29.76,    26.48,    32.77
      109.0,      30.44,    33.15,    29.61,    26.38,    32.62
      110.0,      30.30,    33.00,    29.46,    26.29,    32.47
      111.0,      30.17,    32.84,    29.32,    26.19,    32.33
      112.0,      30.03,    32.68,    29.17,    26.09,    32.18
      113.0,      29.90,    32.53,    29.03,    26.00,    32.04
      114.0,      29.76,    32.38,    28.89,    25.90,    31.89
      115.0,      29.63,    32.23,    28.74,    25.81,    31.75
      116.0,      29.50,    32.08,    28.60,    25.71,    31.61
      117.0,      29.37,    31.93,    28.46,    25.62,    31.48
      118.0,      29.24,    31.78,    28.33,    25.52,    31.34
      119.0,      29.11,    31.63,    28.19,    25.43,    31.21
      120.0,      28.99,    31.49,    28.05,    25.34,    31.07
      121.0,      28.86,    31.34,    27.92,    25.24,    30.94
      122.0,      28.73,    31.20,    27.78,    25.15,    30.81
      123.0,      28.61,    31.06,    27.65,    25.06,    30.68
      124.0,      28.49,    30.92,    27.51,    24.97,    30.55
      125.0,      28.36,    30.78,    27.38,    24.88,    30.42
      126.0,      28.24,    30.64,    27.25,    24.79,    30.29
      127.0,      28.12,    30.50,    27.12,    24.70,    30.17
      128.0,      28.00,    30.36,    26.99,    24.61,    30.04
      129.0,      27.88,    30.22,    26.86,    24.52,    29.92
      130.0,      27.76,    30.09,    26.74,    24.43,    29.79
      131.0,      27.64,    29.95,    26.61,    24.34,    29.67
      132.0,      27.53,    29.82,    26.48,    24.25,    29.55
      133.0,      27.41,    29.69,    26.36,    24.16,    29.43
      134.0,      27.29,    29.56,    26.23,    24.07,    29.31
      135.0,      27.18,    29.43,    26.11,    23.99,    29.19
      136.0,      27.06,    29.29,    25.99,    23.90,    29.07
      137.0,      26.95,    29.17,    25.87,    23.81,    28.96
      138.0,      26.84,    29.04,    25.75,    23.73,    28.84
      139.0,      26.73,    28.91,    25.63,    23.64,    28.72
      140.0,      26.61,    28.78,    25.51,    23.56,    28.61
      141.0,      26.50,    28.66,    25.39,    23.47,    28.50
      142.0,      26.39,    28.53,    25.27,    23.39,    28.38
      143.0,      26.28,    28.41,    25.16,    23.30,    28.27
      144.0,      26.18,    28.28,    25.04,    23.22,    28.16
      145.0,      26.07,    28.16,    24.93,    23.14,    28.05
      146.0,      25.96,    28.03,    24.81,    23.05,    27.94
      147.0,      25.85,    27.91,    24.70,    22.97,    27.83
      148.0,      25.75,    27.79,    24.59,    22.89,    27.72
      149.0,      25.64,    27.67,    24.48,    22.81,    27.61
      150.0,      25.54,    27.55,    24.36,    22.73,    27.50
      151.0,      25.43,    27.43,    24.25,    22.64,    27.40
      152.0,      25.33,    27.31,    24.14,    22.56,    27.29
      153.0,      25.22,    27.19,    24.04,    22.48,    27.18
      154.0,      25.12,    27.08,    23.93,    22.40,    27.08
      155.0,      25.02,    26.96,    23.82,    22.32,    26.97
      156.0,      24.92,    26.84,    23.71,    22.24,    26.87
      157.0,      24.82,    26.73,    23.61,    22.16,    26.76
      158.0,      24.72,    26.61,    23.50,    22.09,    26.66
      159.0,      24.62,    26.50,    23.40,    22.01,    26.56
      160.0,      24.52,    26.39,    23.30,    21.93,    26.46
      161.0,      24.42,    26.27,    23.19,    21.85,    26.36
      162.0,      24.32,    26.16,    23.09,    21.77,    26.25
      163.0,      24.22,    26.05,    22.99,    21.70,    26.15
      164.0,      24.12,    25.94,    22.89,    21.62,    26.05
      165.0,      24.03,    25.82,    22.79,    21.54,    25.95
      166.0,      23.93,    25.71,    22.69,    21.47,    25.86
      167.0,      23.84,    25.60,    22.59,    21.39,    25.76
      168.0,      23.74,    25.49,    22.49,    21.32,    25.66
      169.0,      23.65,    25.39,    22.40,    21.24,    25.56
      170.0,      23.55,    25.28,    22.30,    21.17,    25.46
      171.0,      23.46,    25.17,    22.20,    21.09,    25.37
      172.0,      23.37,    25.06,    22.11,    21.02,    25.27
      173.0,      23.27,    24.96,    22.01,    20.95,    25.18
      174.0,      23.18,    24.85,    21.92,    20.87,    25.08
      175.0,      23.09,    24.74,    21.82,    20.80,    24.99
      176.0,      23.00,    24.64,    21.73,    20.73,    24.89
      177.0,      22.91,    24.53,    21.64,    20.65,    24.80
      178.0,      22.82,    24.43,    21.55,    20.58,    24.70
      179.0,      22.73,    24.33,    21.46,    20.51,    24.61
      180.0,      22.64,    24.22,    21.37,    20.44,    24.52
      181.0,      22.55,    24.12,    21.28,    20.37,    24.42
      182.0,      22.46,    24.02,    21.19,    20.30,    24.33
      183.0,      22.37,    23.92,    21.10,    20.23,    24.24
      184.0,      22.28,    23.81,    21.01,    20.16,    24.15
      185.0,      22.20,    23.71,    20.92,    20.09,    24.06
      186.0,      22.11,    23.61,    20.84,    20.02,    23.97
      187.0,      22.02,    23.51,    20.75,    19.95,    23.88
      188.0,      21.94,    23.41,    20.67,    19.88,    23.79
      189.0,      21.85,    23.31,    20.58,    19.81,    23.70
      190.0,      21.77,    23.22,    20.50,    19.74,    23.61
      191.0,      21.68,    23.12,    20.41,    19.67,    23.52
      192.0,      21.60,    23.02,    20.33,    19.60,    23.43
      193.0,      21.51,    22.92,    20.25,    19.54,    23.35
      194.0,      21.43,    22.82,    20.16,    19.47,    23.26
      195.0,      21.35,    22.73,    20.08,    19.40,    23.17
      196.0,      21.26,    22.63,    20.00,    19.34,    23.09
      197.0,      21.18,    22.54,    19.92,    19.27,    23.00
      198.0,      21.10,    22.44,    19.84,    19.20,    22.91
      199.0,      21.02,    22.35,    19.76,    19.14,    22.83
      200.0,      20.94,    22.25,    19.68,    19.07,    22.74
      201.0,      20.86,    22.16,    19.60,    19.01,    22.66
      202.0,      20.78,    22.06,    19.52,    18.94,    22.57
      203.0,      20.70,    21.97,    19.45,    18.88,    22.49
      204.0,      20.62,    21.88,    19.37,    18.81,    22.40
      205.0,      20.54,    21.79,    19.29,    18.75,    22.32
      206.0,      20.46,    21.69,    19.22,    18.68,    22.24
      207.0,      20.38,    21.60,    19.14,    18.62,    22.16
      208.0,      20.30,    21.51,    19.07,    18.56,    22.07
      209.0,      20.22,    21.42,    18.99,    18.49,    21.99
      210.0,      20.15,    21.33,    18.92,    18.43,    21.91
      211.0,      20.07,    21.24,    18.85,    18.37,    21.83
      212.0,      19.99,    21.15,    18.77,    18.31,    21.75
      213.0,      19.92,    21.06,    18.70,    18.24,    21.66
      214.0,      19.84,    20.97,    18.63,    18.18,    21.58
      215.0,      19.77,    20.89,    18.56,    18.12,    21.50
      216.0,      19.69,    20.80,    18.49,    18.06,    21.42
      217.0,      19.62,    20.71,    18.42,    18.00,    21.34
      218.0,      19.54,    20.62,    18.35,    17.94,    21.26
      219.0,      19.47,    20.54,    18.28,    17.88,    21.19
      220.0,      19.39,    20.45,    18.21,    17.82,    21.11
      221.0,      19.32,    20.36,    18.14,    17.76,    21.03
      222.0,      19.25,    20.28,    18.07,    17.70,    20.95
      223.0,      19.18,    20.19,    18.00,    17.64,    20.87
      224.0,      19.10,    20.11,    17.93,    17.58,    20.79
      225.0,      19.03,    20.02,    17.87,    17.52,    20.72
      226.0,      18.96,    19.94,    17.80,    17.46,    20.64
      227.0,      18.89,    19.85,    17.73,    17.40,    20.56
      228.0,      18.82,    19.77,    17.67,    17.34,    20.49
      229.0,      18.75,    19.69,    17.60,    17.29,    20.41
      230.0,      18.68,    19.60,    17.54,    17.23,    20.34
      231.0,      18.61,    19.52,    17.47,    17.17,    20.26
      232.0,      18.54,    19.44,    17.41,    17.11,    20.18
      233.0,      18.47,    19.36,    17.35,    17.06,    20.11
      234.0,      18.40,    19.28,    17.28,    17.00,    20.04
      235.0,      18.33,    19.20,    17.22,    16.94,    19.96
      236.0,      18.26,    19.12,    17.16,    16.89,    19.89
      237.0,      18.19,    19.03,    17.10,    16.83,    19.81
      238.0,      18.13,    18.95,    17.03,    16.78,    19.74
      239.0,      18.06,    18.87,    16.97,    16.72,    19.67
      240.0,      17.99,    18.80,    16.91,    16.67,    19.59
      241.0,      17.93,    18.72,    16.85,    16.61,    19.52
      242.0,      17.86,    18.64,    16.79,    16.56,    19.45
      243.0,      17.79,    18.56,    16.73,    16.50,    19.38
      244.0,      17.73,    18.48,    16.67,    16.45,    19.30
      245.0,      17.66,    18.40,    16.61,    16.39,    19.23
      246.0,      17.60,    18.33,    16.56,    16.34,    19.16
      247.0,      17.53,    18.25,    16.50,    16.29,    19.09
      248.0,      17.47,    18.17,    16.44,    16.23,    19.02
      249.0,      17.40,    18.10,    16.38,    16.18,    18.95
      250.0,      17.34,    18.02,    16.33,    16.13,    18.88
      251.0,      17.27,    17.94,    16.27,    16.07,    18.81
      252.0,      17.21,    17.87,    16.21,    16.02,    18.74
      253.0,      17.15,    17.79,    16.16,    15.97,    18.67
      254.0,      17.08,    17.72,    16.10,    15.92,    18.60
      255.0,      17.02,    17.64,    16.05,    15.86,    18.53
      256.0,      16.96,    17.57,    15.99,    15.81,    18.46
      257.0,      16.90,    17.50,    15.94,    15.76,    18.39
      258.0,      16.84,    17.42,    15.88,    15.71,    18.33
      259.0,      16.77,    17.35,    15.83,    15.66,    18.26
      260.0,      16.71,    17.28,    15.78,    15.61,    18.19
      261.0,      16.65,    17.20,    15.72,    15.56,    18.12
      262.0,      16.59,    17.13,    15.67,    15.51,    18.06
      263.0,      16.53,    17.06,    15.62,    15.46,    17.99
      264.0,      16.47,    16.99,    15.57,    15.41,    17.92
      265.0,      16.41,    16.92,    15.51,    15.36,    17.86
      266.0,      16.35,    16.85,    15.46,    15.31,    17.79
      267.0,      16.29,    16.78,    15.41,    15.26,    17.72
      268.0,      16.23,    16.70,    15.36,    15.21,    17.66
      269.0,      16.17,    16.63,    15.31,    15.16,    17.59
      270.0,      16.12,    16.56,    15.26,    15.11,    17.53
      271.0,      16.06,    16.49,    15.21,    15.06,    17.46
      272.0,      16.00,    16.43,    15.16,    15.01,    17.40
      273.0,      15.94,    16.36,    15.11,    14.97,    17.33
      274.0,      15.88,    16.29,    15.06,    14.92,    17.27
      275.0,      15.83,    16.22,    15.01,    14.87,    17.21
      276.0,      15.77,    16.15,    14.96,    14.82,    17.14
      277.0,      15.71,    16.08,    14.92,    14.78,    17.08
      278.0,      15.66,    16.02,    14.87,    14.73,    17.01
      279.0,      15.60,    15.95,    14.82,    14.68,    16.95
      280.0,      15.54,    15.88,    14.77,    14.64,    16.89
      281.0,      15.49,    15.81,    14.73,    14.59,    16.83
      282.0,      15.43,    15.75,    14.68,    14.54,    16.76
      283.0,      15.38,    15.68,    14.63,    14.50,    16.70
      284.0,      15.32,    15.62,    14.59,    14.45,    16.64
      285.0,      15.27,    15.55,    14.54,    14.40,    16.58
      286.0,      15.21,    15.49,    14.50,    14.36,    16.52
      287.0,      15.16,    15.42,    14.45,    14.31,    16.46
      288.0,      15.11,    15.36,    14.41,    14.27,    16.40
      289.0,      15.05,    15.29,    14.36,    14.22,    16.33
      290.0,      15.00,    15.23,    14.32,    14.18,    16.27
      291.0,      14.95,    15.16,    14.27,    14.13,    16.21
      292.0,      14.89,    15.10,    14.23,    14.09,    16.15
      293.0,      14.84,    15.04,    14.19,    14.04,    16.09
      294.0,      14.79,    14.97,    14.14,    14.00,    16.03
      295.0,      14.74,    14.91,    14.10,    13.96,    15.97
      296.0,      14.68,    14.85,    14.06,    13.91,    15.92
      297.0,      14.63,    14.78,    14.01,    13.87,    15.86
      298.0,      14.58,    14.72,    13.97,    13.83,    15.80
      299.0,      14.53,    14.66,    13.93,    13.78,    15.74
      300.0,      14.48,    14.60,    13.89,    13.74,    15.68
      301.0,      14.43,    14.54,    13.85,    13.70,    15.62
      302.0,      14.38,    14.48,    13.81,    13.65,    15.57
      303.0,      14.32,    14.42,    13.76,    13.61,    15.51
      304.0,      14.27,    14.36,    13.72,    13.57,    15.45
      305.0,      14.22,    14.30,    13.68,    13.53,    15.39
      306.0,      14.17,    14.24,    13.64,    13.49,    15.34
      307.0,      14.13,    14.18,    13.60,    13.44,    15.28
      308.0,      14.08,    14.12,    13.56,    13.40,    15.22
      309.0,      14.03,    14.06,    13.52,    13.36,    15.17
      310.0,      13.98,    14.00,    13.48,    13.32,    15.11
