Radius (km), Mean (m/s), NE (m/s), SE (m/s), SW (m/s), NW (m/s)
        0.0,       0.00,     0.00,     0.00,     0.00,     0.00
        1.0,       1.14,     1.14,     1.14,     1.14,     1.14
        2.0,       2.13,     2.13,     2.13,     2.13,     2.13
        3.0,       3.07,     3.07,     3.07,     3.07,     3.07
        4.0,       3.98,     3.98,     3.98,     3.98,     3.98
        5.0,       4.86,     4.86,     4.86,     4.86,     4.86
        6.0,       5.73,     5.73,     5.73,     5.73,     5.73
        7.0,       6.59,     6.59,     6.59,     6.59,     6.59
        8.0,       7.43,     7.43,     7.43,     7.43,     7.43
        9.0,       8.26,     8.26,     8.26,     8.26,     8.26
       10.0,       9.09,     9.09,     9.09,     9.09,     9.09
       11.0,       9.90,     9.90,     9.90,     9.90,     9.90
       12.0,      10.71,    10.71,    10.71,    10.71,    10.71
       13.0,      11.51,    11.51,    11.51,    11.51,    11.51
       14.0,      12.31,    12.31,    12.31,    12.31,    12.31
       15.0,      13.10,    13.10,    13.10,    13.10,    13.10
       16.0,      13.89,    13.89,    13.89,    13.89,    13.89
       17.0,      14.67,    14.67,    14.67,    14.67,    14.67
       18.0,      15.44,    15.44,    15.44,    15.44,    15.44
       19.0,      16.22,    16.22,    16.22,    16.22,    16.22
       20.0,      16.98,    16.98,    16.98,    16.98,    16.98
       21.0,      17.75,    17.75,    17.75,    17.75,    17.75
       22.0,      18.51,    18.51,    18.51,    18.51,    18.51
       23.0,      19.27,    19.27,    19.27,    19.27,    19.27
       24.0,      20.02,    20.02,    20.02,    20.02,    20.02
       25.0,      20.77,    20.77,    20.77,    20.77,    20.77
       26.0,      21.52,    21.52,    21.52,    21.52,    21.52
       27.0,      22.27,    22.27,    22.27,    22.27,    22.27
       28.0,      23.01,    23.01,    23.01,    23.01,    23.01
       29.0,      23.75,    23.75,    23.75,    23.75,    23.75
       30.0,      24.49,    24.49,    24.49,    24.49,    24.49
       31.0,      25.22,    25.22,    25.22,    25.22,    25.22
       32.0,      25.96,    25.96,    25.96,    25.96,    25.96
       33.0,      26.69,    26.69,    26.69,    26.69,    26.69
       34.0,      27.41,    27.41,    27.41,    27.41,    27.41
       35.0,      28.14,    28.14,    28.14,    28.14,    28.14
       36.0,      28.87,    28.87,    28.87,    28.87,    28.87
       37.0,      29.59,    29.59,    29.59,    29.59,    29.59
       38.0,      30.31,    30.31,    30.31,    30.31,    30.31
       39.0,      31.03,    31.03,    31.03,    31.03,    31.03
       40.0,      31.74,    31.74,    31.74,    31.74,    31.74
       41.0,      32.46,    32.47,    32.47,    32.46,    32.46
       42.0,      33.20,    33.21,    33.22,    33.18,    33.20
       43.0,      33.98,    34.01,    34.01,    33.91,    33.97
       44.0,      34.82,    34.89,    34.88,    34.68,    34.82
       45.0,      35.74,    35.88,    35.82,    35.50,    35.75
       46.0,      36.74,    36.96,    36.84,    36.38,    36.77
       47.0,      37.79,    38.10,    37.90,    37.32,    37.84
       48.0,      38.86,    39.25,    38.95,    38.29,    38.94
       49.0,      39.89,    40.34,    39.96,    39.26,    39.99
       50.0,      40.82,    41.31,    40.86,    40.17,    40.94
       51.0,      41.61,    42.10,    41.61,    40.99,    41.74
       52.0,      42.21,    42.65,    42.17,    41.67,    42.33
       53.0,      42.60,    42.96,    42.55,    42.18,    42.70
       54.0,      42.78,    43.02,    42.73,    42.52,    42.85
       55.0,      42.77,    42.86,    42.75,    42.68,    42.80
       56.0,      42.61,    42.54,    42.64,    42.69,    42.59
       57.0,      42.34,    42.10,    42.44,    42.58,    42.26
       58.0,      42.01,    41.60,    42.19,    42.39,    41.87
       59.0,      41.66,    41.09,    41.92,    42.16,    41.46
       60.0,      41.31,    40.59,    41.66,    41.93,    41.05
       61.0,      40.98,    40.12,    41.42,    41.70,    40.67
       62.0,      40.66,    39.68,    41.18,    41.49,    40.31
       63.0,      40.37,    39.26,    40.95,    41.30,    39.96
       64.0,      40.08,    38.85,    40.72,    41.11,    39.63
       65.0,      39.80,    38.46,    40.49,    40.92,    39.31
       66.0,      39.52,    38.07,    40.27,    40.74,    38.99
       67.0,      39.25,    37.70,    40.05,    40.56,    38.69
       68.0,      38.98,    37.34,    39.83,    40.38,    38.38
       69.0,      38.72,    36.99,    39.61,    40.20,    38.09
       70.0,      38.46,    36.65,    39.39,    40.01,    37.80
       71.0,      38.21,    36.32,    39.17,    39.84,    37.52
       72.0,      37.97,    36.00,    38.96,    39.66,    37.25
       73.0,      37.72,    35.69,    38.75,    39.48,    36.98
       74.0,      37.48,    35.39,    38.53,    39.30,    36.71
       75.0,      37.25,    35.09,    38.32,    39.13,    36.46
       76.0,      37.02,    34.81,    38.12,    38.95,    36.21
       77.0,      36.79,    34.53,    37.91,    38.78,    35.96
       78.0,      36.57,    34.26,    37.70,    38.60,    35.72
       79.0,      36.35,    33.99,    37.50,    38.43,    35.48
       80.0,      36.14,    33.74,    37.30,    38.26,    35.25
       81.0,      35.92,    33.49,    37.10,    38.08,    35.03
       82.0,      35.72,    33.25,    36.90,    37.91,    34.81
       83.0,      35.51,    33.01,    36.70,    37.74,    34.59
       84.0,      35.31,    32.78,    36.50,    37.57,    34.38
       85.0,      35.11,    32.56,    36.31,    37.41,    34.17
       86.0,      34.92,    32.34,    36.12,    37.24,    33.97
       87.0,      34.72,    32.13,    35.92,    37.07,    33.77
       88.0,      34.53,    31.92,    35.73,    36.90,    33.57
       89.0,      34.35,    31.72,    35.54,    36.74,    33.38
       90.0,      34.16,    31.52,    35.36,    36.57,    33.20
       91.0,      33.98,    31.33,    35.17,    36.41,    33.01
       92.0,      33.80,    31.14,    34.98,    36.25,    32.83
       93.0,      33.62,    30.96,    34.80,    36.08,    32.65
       94.0,      33.45,    30.78,    34.62,    35.92,    32.48
       95.0,      33.28,    30.61,    34.44,    35.76,    32.31
       96.0,      33.11,    30.44,    34.26,    35.60,    32.14
       97.0,      32.94,    30.27,    34.08,    35.44,    31.98
       98.0,      32.78,    30.11,    33.90,    35.28,    31.82
       99.0,      32.62,    29.95,    33.73,    35.12,    31.66
      100.0,      32.46,    29.80,    33.55,    34.97,    31.50
      101.0,      32.30,    29.65,    33.38,    34.81,    31.35
      102.0,      32.14,    29.50,    33.21,    34.65,    31.20
      103.0,      31.99,    29.36,    33.04,    34.50,    31.05
      104.0,      31.83,    29.22,    32.87,    34.34,    30.91
      105.0,      31.68,    29.08,    32.70,    34.19,    30.76
      106.0,      31.53,    28.94,    32.53,    34.04,    30.62
      107.0,      31.39,    28.81,    32.37,    33.88,    30.49
      108.0,      31.24,    28.68,    32.20,    33.73,    30.35
      109.0,      31.10,    28.56,    32.04,    33.58,    30.22
      110.0,      30.96,    28.43,    31.88,    33.43,    30.09
      111.0,      30.82,    28.31,    31.72,    33.28,    29.96
      112.0,      30.68,    28.19,    31.56,    33.13,    29.83
      113.0,      30.54,    28.07,    31.40,    32.98,    29.70
      114.0,      30.40,    27.96,    31.24,    32.83,    29.58
      115.0,      30.27,    27.85,    31.08,    32.69,    29.46
      116.0,      30.14,    27.74,    30.93,    32.54,    29.34
      117.0,      30.00,    27.63,    30.78,    32.39,    29.22
      118.0,      29.87,    27.52,    30.62,    32.25,    29.10
      119.0,      29.74,    27.42,    30.47,    32.10,    28.99
      120.0,      29.62,    27.31,    30.32,    31.96,    28.87
      121.0,      29.49,    27.21,    30.17,    31.82,    28.76
      122.0,      29.37,    27.11,    30.02,    31.67,    28.65
      123.0,      29.24,    27.02,    29.87,    31.53,    28.54
      124.0,      29.12,    26.92,    29.73,    31.39,    28.43
      125.0,      29.00,    26.83,    29.58,    31.25,    28.33
      126.0,      28.88,    26.73,    29.44,    31.11,    28.22
      127.0,      28.76,    26.64,    29.30,    30.97,    28.12
      128.0,      28.64,    26.55,    29.15,    30.83,    28.02
      129.0,      28.52,    26.47,    29.01,    30.69,    27.92
      130.0,      28.41,    26.38,    28.87,    30.56,    27.82
      131.0,      28.29,    26.29,    28.73,    30.42,    27.72
      132.0,      28.18,    26.21,    28.60,    30.28,    27.62
      133.0,      28.06,    26.12,    28.46,    30.15,    27.52
      134.0,      27.95,    26.04,    28.32,    30.01,    27.43
      135.0,      27.84,    25.96,    28.19,    29.88,    27.34
      136.0,      27.73,    25.88,    28.05,    29.74,    27.24
      137.0,      27.62,    25.80,    27.92,    29.61,    27.15
      138.0,      27.51,    25.72,    27.79,    29.48,    27.06
      139.0,      27.40,    25.65,    27.66,    29.34,    26.97
      140.0,      27.30,    25.57,    27.53,    29.21,    26.88
      141.0,      27.19,    25.50,    27.40,    29.08,    26.79
      142.0,      27.09,    25.42,    27.27,    28.95,    26.70
      143.0,      26.98,    25.35,    27.14,    28.82,    26.62
      144.0,      26.88,    25.28,    27.02,    28.69,    26.53
      145.0,      26.78,    25.21,    26.89,    28.56,    26.45
      146.0,      26.67,    25.14,    26.76,    28.44,    26.36
      147.0,      26.57,    25.07,    26.64,    28.31,    26.28
      148.0,      26.47,    25.00,    26.52,    28.18,    26.20
      149.0,      26.37,    24.93,    26.40,    28.05,    26.12
      150.0,      26.27,    24.86,    26.27,    27.93,    26.03
      151.0,      26.18,    24.79,    26.15,    27.80,    25.95
      152.0,      26.08,    24.73,    26.03,    27.68,    25.87
      153.0,      25.98,    24.66,    25.92,    27.55,    25.80
      154.0,      25.89,    24.60,    25.80,    27.43,    25.72
      155.0,      25.79,    24.53,    25.68,    27.31,    25.64
      156.0,      25.70,    24.47,    25.57,    27.19,    25.56
      157.0,      25.60,    24.41,    25.45,    27.06,    25.49
      158.0,      25.51,    24.34,    25.34,    26.94,    25.41
      159.0,      25.42,    24.28,    25.22,    26.82,    25.34
      160.0,      25.32,    24.22,    25.11,    26.70,    25.26
      161.0,      25.23,    24.16,    25.00,    26.58,    25.19
      162.0,      25.14,    24.10,    24.89,    26.46,    25.11
      163.0,      25.05,    24.04,    24.78,    26.34,    25.04
      164.0,      24.96,    23.98,    24.67,    26.23,    24.97
      165.0,      24.87,    23.92,    24.56,    26.11,    24.90
      166.0,      24.78,    23.86,    24.45,    25.99,    24.82
      167.0,      24.69,    23.80,    24.34,    25.87,    24.75
      168.0,      24.61,    23.75,    24.23,    25.76,    24.68
      169.0,      24.52,    23.69,    24.13,    25.64,    24.61
      170.0,      24.43,    23.63,    24.02,    25.53,    24.54
      171.0,      24.35,    23.57,    23.92,    25.41,    24.47
      172.0,      24.26,    23.52,    23.82,    25.30,    24.41
      173.0,      24.17,    23.46,    23.71,    25.19,    24.34
      174.0,      24.09,    23.41,    23.61,    25.07,    24.27
      175.0,      24.01,    23.35,    23.51,    24.96,    24.20
      176.0,      23.92,    23.30,    23.41,    24.85,    24.13
      177.0,      23.84,    23.24,    23.31,    24.74,    24.07
      178.0,      23.76,    23.19,    23.21,    24.63,    24.00
      179.0,      23.67,    23.14,    23.11,    24.52,    23.94
      180.0,      23.59,    23.08,    23.01,    24.41,    23.87
      181.0,      23.51,    23.03,    22.92,    24.30,    23.81
      182.0,      23.43,    22.98,    22.82,    24.19,    23.74
      183.0,      23.35,    22.92,    22.72,    24.08,    23.68
      184.0,      23.27,    22.87,    22.63,    23.97,    23.61
      185.0,      23.19,    22.82,    22.53,    23.86,    23.55
      186.0,      23.11,    22.77,    22.44,    23.76,    23.49
      187.0,      23.03,    22.72,    22.35,    23.65,    23.42
      188.0,      22.96,    22.66,    22.25,    23.54,    23.36
      189.0,      22.88,    22.61,    22.16,    23.44,    23.30
      190.0,      22.80,    22.56,    22.07,    23.33,    23.23
      191.0,      22.72,    22.51,    21.98,    23.23,    23.17
      192.0,      22.65,    22.46,    21.89,    23.12,    23.11
      193.0,      22.57,    22.41,    21.80,    23.02,    23.05
      194.0,      22.50,    22.36,    21.71,    22.92,    22.99
      195.0,      22.42,    22.31,    21.62,    22.82,    22.93
      196.0,      22.35,    22.26,    21.54,    22.71,    22.87
      197.0,      22.27,    22.21,    21.45,    22.61,    22.81
      198.0,      22.20,    22.17,    21.36,    22.51,    22.75
      199.0,      22.12,    22.12,    21.28,    22.41,    22.69
      200.0,      22.05,    22.07,    21.19,    22.31,    22.63
      201.0,      21.98,    22.02,    21.11,    22.21,    22.57
      202.0,      21.90,    21.97,    21.02,    22.11,    22.51
      203.0,      21.83,    21.92,    20.94,    22.01,    22.45
      204.0,      21.76,    21.88,    20.86,    21.91,    22.39
      205.0,      21.69,    21.83,    20.77,    21.81,    22.34
      206.0,      21.62,    21.78,    20.69,    21.71,    22.28
      207.0,      21.55,    21.73,    20.61,    21.62,    22.22
      208.0,      21.48,    21.69,    20.53,    21.52,    22.16
      209.0,      21.41,    21.64,    20.45,    21.42,    22.11
      210.0,      21.34,    21.59,    20.37,    21.33,    22.05
      211.0,      21.27,    21.55,    20.29,    21.23,    21.99
      212.0,      21.20,    21.50,    20.21,    21.14,    21.94
      213.0,      21.13,    21.46,    20.14,    21.04,    21.88
      214.0,      21.06,    21.41,    20.06,    20.95,    21.82
      215.0,      20.99,    21.36,    19.98,    20.85,    21.77
      216.0,      20.92,    21.32,    19.90,    20.76,    21.71
      217.0,      20.86,    21.27,    19.83,    20.67,    21.66
      218.0,      20.79,    21.23,    19.75,    20.58,    21.60
      219.0,      20.72,    21.18,    19.68,    20.48,    21.55
      220.0,      20.66,    21.14,    19.60,    20.39,    21.49
      221.0,      20.59,    21.09,    19.53,    20.30,    21.44
      222.0,      20.52,    21.05,    19.46,    20.21,    21.38
      223.0,      20.46,    21.00,    19.39,    20.12,    21.33
      224.0,      20.39,    20.96,    19.31,    20.03,    21.28
      225.0,      20.33,    20.91,    19.24,    19.94,    21.22
      226.0,      20.26,    20.87,    19.17,    19.85,    21.17
      227.0,      20.20,    20.82,    19.10,    19.76,    21.11
      228.0,      20.14,    20.78,    19.03,    19.67,    21.06
      229.0,      20.07,    20.74,    18.96,    19.58,    21.01
      230.0,      20.01,    20.69,    18.89,    19.50,    20.95
      231.0,      19.94,    20.65,    18.82,    19.41,    20.90
      232.0,      19.88,    20.60,    18.75,    19.32,    20.85
      233.0,      19.82,    20.56,    18.68,    19.23,    20.80
      234.0,      19.76,    20.52,    18.62,    19.15,    20.74
      235.0,      19.69,    20.47,    18.55,    19.06,    20.69
      236.0,      19.63,    20.43,    18.48,    18.98,    20.64
      237.0,      19.57,    20.39,    18.42,    18.89,    20.59
      238.0,      19.51,    20.35,    18.35,    18.81,    20.54
      239.0,      19.45,    20.30,    18.29,    18.72,    20.49
      240.0,      19.39,    20.26,    18.22,    18.64,    20.43
      241.0,      19.33,    20.22,    18.16,    18.56,    20.38
      242.0,      19.27,    20.18,    18.09,    18.47,    20.33
      243.0,      19.21,    20.13,    18.03,    18.39,    20.28
      244.0,      19.15,    20.09,    17.97,    18.31,    20.23
      245.0,      19.09,    20.05,    17.90,    18.22,    20.18
      246.0,      19.03,    20.01,    17.84,    18.14,    20.13
      247.0,      18.97,    19.97,    17.78,    18.06,    20.08
      248.0,      18.91,    19.92,    17.72,    17.98,    20.03
      249.0,      18.85,    19.88,    17.66,    17.90,    19.98
      250.0,      18.80,    19.84,    17.59,    17.82,    19.93
      251.0,      18.74,    19.80,    17.53,    17.74,    19.88
      252.0,      18.68,    19.76,    17.47,    17.66,    19.83
      253.0,      18.62,    19.72,    17.41,    17.58,    19.78
      254.0,      18.57,    19.68,    17.36,    17.50,    19.73
      255.0,      18.51,    19.63,    17.30,    17.42,    19.68
      256.0,      18.45,    19.59,    17.24,    17.35,    19.63
      257.0,      18.40,    19.55,    17.18,    17.27,    19.59
      258.0,      18.34,    19.51,    17.12,    17.19,    19.54
      259.0,      18.28,    19.47,    17.07,    17.11,    19.49
      260.0,      18.23,    19.43,    17.01,    17.04,    19.44
      261.0,      18.17,    19.39,    16.95,    16.96,    19.39
      262.0,      18.12,    19.35,    16.90,    16.88,    19.34
      263.0,      18.06,    19.31,    16.84,    16.81,    19.30
      264.0,      18.01,    19.27,    16.79,    16.73,    19.25
      265.0,      17.95,    19.23,    16.73,    16.66,    19.20
      266.0,      17.90,    19.19,    16.68,    16.58,    19.15
      267.0,      17.85,    19.15,    16.62,    16.51,    19.11
      268.0,      17.79,    19.11,    16.57,    16.44,    19.06
      269.0,      17.74,    19.07,    16.51,    16.36,    19.01
      270.0,      17.69,    19.03,    16.46,    16.29,    18.96
      271.0,      17.63,    18.99,    16.41,    16.22,    18.92
      272.0,      17.58,    18.95,    16.35,    16.14,    18.87
      273.0,      17.53,    18.91,    16.30,    16.07,    18.82
      274.0,      17.47,    18.87,    16.25,    16.00,    18.78
      275.0,      17.42,    18.83,    16.20,    15.93,    18.73
      276.0,      17.37,    18.79,    16.15,    15.86,    18.68
      277.0,      17.32,    18.76,    16.10,    15.78,    18.64
      278.0,      17.27,    18.72,    16.05,    15.71,    18.59
      279.0,      17.22,    18.68,    16.00,    15.64,    18.55
      280.0,      17.16,    18.64,    15.95,    15.57,    18.50
      281.0,      17.11,    18.60,    15.90,    15.50,    18.46
      282.0,      17.06,    18.56,    15.85,    15.43,    18.41
      283.0,      17.01,    18.52,    15.80,    15.36,    18.36
      284.0,      16.96,    18.48,    15.75,    15.30,    18.32
      285.0,      16.91,    18.45,    15.70,    15.23,    18.27
      286.0,      16.86,    18.41,    15.65,    15.16,    18.23
      287.0,      16.81,    18.37,    15.60,    15.09,    18.18
      288.0,      16.76,    18.33,    15.56,    15.02,    18.14
      289.0,      16.71,    18.29,    15.51,    14.96,    18.09
      290.0,      16.66,    18.26,    15.46,    14.89,    18.05
      291.0,      16.62,    18.22,    15.42,    14.82,    18.01
      292.0,      16.57,    18.18,    15.37,    14.76,    17.96
      293.0,      16.52,    18.14,    15.32,    14.69,    17.92
      294.0,      16.47,    18.11,    15.28,    14.62,    17.87
      295.0,      16.42,    18.07,    15.23,    14.56,    17.83
      296.0,      16.37,    18.03,    15.19,    14.49,    17.78
      297.0,      16.33,    17.99,    15.14,    14.43,    17.74
      298.0,      16.28,    17.96,    15.10,    14.36,    17.70
      299.0,      16.23,    17.92,    15.05,    14.30,    17.65
      300.0,      16.18,    17.88,    15.01,    14.23,    17.61
      301.0,      16.14,    17.84,    14.97,    14.17,    17.57
      302.0,      16.09,    17.81,    14.92,    14.11,    17.52
      303.0,      16.04,    17.77,    14.88,    14.04,    17.48
      304.0,      16.00,    17.73,    14.84,    13.98,    17.44
      305.0,      15.95,    17.70,    14.79,    13.92,    17.39
      306.0,      15.90,    17.66,    14.75,    13.86,    17.35
      307.0,      15.86,    17.62,    14.71,    13.79,    17.31
      308.0,      15.81,    17.59,    14.67,    13.73,    17.27
      309.0,      15.77,    17.55,    14.62,    13.67,    17.22
      310.0,      15.72,    17.51,    14.58,    13.61,    17.18
