Radius (km), Mean (m/s), NE (m/s), SE (m/s), SW (m/s), NW (m/s)
        0.0,       0.00,     0.00,     0.00,     0.00,     0.00
        1.0,       1.52,     1.20,     1.67,     1.94,     1.27
        2.0,       3.17,     2.72,     3.39,     3.72,     2.83
        3.0,       4.87,     4.39,     5.13,     5.45,     4.52
        4.0,       6.62,     6.17,     6.88,     7.14,     6.30
        5.0,       8.40,     8.03,     8.64,     8.80,     8.15
        6.0,      10.22,     9.96,    10.40,    10.44,    10.06
        7.0,      12.05,    11.95,    12.17,    12.07,    12.02
        8.0,      13.91,    13.99,    13.95,    13.68,    14.02
        9.0,      15.79,    16.07,    15.73,    15.29,    16.06
       10.0,      17.68,    18.20,    17.51,    16.88,    18.14
       11.0,      19.59,    20.37,    19.30,    18.46,    20.24
       12.0,      21.52,    22.58,    21.10,    20.03,    22.38
       13.0,      23.49,    24.86,    22.92,    21.61,    24.59
       14.0,      25.57,    27.29,    24.81,    23.24,    26.93
       15.0,      27.82,    29.97,    26.83,    24.97,    29.51
       16.0,      30.32,    32.97,    29.03,    26.84,    32.43
       17.0,      33.09,    36.33,    31.43,    28.88,    35.71
       18.0,      36.10,    40.01,    33.99,    31.07,    39.32
       19.0,      39.25,    43.89,    36.64,    33.35,    43.13
       20.0,      42.42,    47.78,    39.30,    35.63,    46.96
       21.0,      45.43,    51.48,    41.84,    37.81,    50.60
       22.0,      48.13,    54.78,    44.13,    39.78,    53.82
       23.0,      50.36,    57.50,    46.07,    41.43,    56.44
       24.0,      52.04,    59.51,    47.60,    42.71,    58.34
       25.0,      53.12,    60.78,    48.69,    43.58,    59.45
       26.0,      53.63,    61.32,    49.35,    44.05,    59.81
       27.0,      53.64,    61.23,    49.64,    44.17,    59.53
       28.0,      53.26,    60.65,    49.63,    44.03,    58.74
       29.0,      52.62,    59.75,    49.43,    43.69,    57.63
       30.0,      51.85,    58.67,    49.13,    43.25,    56.34
       31.0,      51.03,    57.56,    48.78,    42.77,    55.02
       32.0,      50.24,    56.47,    48.44,    42.31,    53.75
       33.0,      49.50,    55.45,    48.13,    41.87,    52.56
       34.0,      48.81,    54.49,    47.83,    41.45,    51.45
       35.0,      48.14,    53.57,    47.55,    41.06,    50.40
       36.0,      47.50,    52.67,    47.27,    40.67,    49.38
       37.0,      46.87,    51.79,    47.00,    40.29,    48.41
       38.0,      46.26,    50.94,    46.73,    39.92,    47.47
       39.0,      45.67,    50.11,    46.46,    39.55,    46.56
       40.0,      45.09,    49.31,    46.19,    39.19,    45.69
       41.0,      44.53,    48.52,    45.93,    38.84,    44.85
       42.0,      43.99,    47.75,    45.66,    38.49,    44.04
       43.0,      43.45,    47.01,    45.41,    38.15,    43.26
       44.0,      42.94,    46.28,    45.15,    37.81,    42.51
       45.0,      42.43,    45.57,    44.90,    37.48,    41.78
       46.0,      41.94,    44.88,    44.65,    37.16,    41.08
       47.0,      41.46,    44.21,    44.40,    36.84,    40.40
       48.0,      41.00,    43.55,    44.15,    36.53,    39.75
       49.0,      40.54,    42.92,    43.91,    36.23,    39.12
       50.0,      40.10,    42.29,    43.67,    35.92,    38.52
       51.0,      39.67,    41.69,    43.43,    35.63,    37.93
       52.0,      39.25,    41.10,    43.19,    35.34,    37.37
       53.0,      38.84,    40.52,    42.96,    35.05,    36.82
       54.0,      38.44,    39.96,    42.73,    34.77,    36.29
       55.0,      38.05,    39.41,    42.50,    34.49,    35.79
       56.0,      37.67,    38.88,    42.27,    34.22,    35.29
       57.0,      37.30,    38.36,    42.04,    33.95,    34.82
       58.0,      36.93,    37.86,    41.82,    33.69,    34.36
       59.0,      36.58,    37.36,    41.60,    33.43,    33.92
       60.0,      36.23,    36.88,    41.38,    33.18,    33.49
       61.0,      35.90,    36.41,    41.16,    32.93,    33.08
       62.0,      35.57,    35.95,    40.95,    32.68,    32.68
       63.0,      35.24,    35.51,    40.74,    32.44,    32.29
       64.0,      34.93,    35.07,    40.52,    32.20,    31.92
       65.0,      34.62,    34.65,    40.31,    31.97,    31.56
       66.0,      34.32,    34.24,    40.11,    31.74,    31.21
       67.0,      34.03,    33.83,    39.90,    31.51,    30.87
       68.0,      33.74,    33.44,    39.70,    31.29,    30.54
       69.0,      33.46,    33.05,    39.49,    31.07,    30.22
       70.0,      33.18,    32.68,    39.29,    30.85,    29.91
       71.0,      32.92,    32.31,    39.09,    30.64,    29.62
       72.0,      32.65,    31.96,    38.90,    30.43,    29.33
       73.0,      32.39,    31.61,    38.70,    30.22,    29.05
       74.0,      32.14,    31.27,    38.51,    30.02,    28.78
       75.0,      31.90,    30.94,    38.31,    29.82,    28.52
       76.0,      31.65,    30.61,    38.12,    29.62,    28.26
       77.0,      31.42,    30.30,    37.93,    29.42,    28.01
       78.0,      31.19,    29.99,    37.75,    29.23,    27.77
       79.0,      30.96,    29.69,    37.56,    29.04,    27.54
       80.0,      30.74,    29.39,    37.38,    28.86,    27.31
       81.0,      30.52,    29.11,    37.19,    28.67,    27.09
       82.0,      30.30,    28.83,    37.01,    28.49,    26.88
       83.0,      30.09,    28.55,    36.83,    28.32,    26.67
       84.0,      29.89,    28.29,    36.65,    28.14,    26.47
       85.0,      29.69,    28.02,    36.47,    27.97,    26.28
       86.0,      29.49,    27.77,    36.30,    27.80,    26.09
       87.0,      29.29,    27.52,    36.12,    27.63,    25.90
       88.0,      29.10,    27.28,    35.95,    27.46,    25.72
       89.0,      28.91,    27.04,    35.78,    27.30,    25.54
       90.0,      28.73,    26.81,    35.60,    27.14,    25.37
       91.0,      28.55,    26.58,    35.43,    26.98,    25.21
       92.0,      28.37,    26.36,    35.27,    26.82,    25.04
       93.0,      28.20,    26.14,    35.10,    26.67,    24.89
       94.0,      28.03,    25.93,    34.93,    26.51,    24.73
       95.0,      27.86,    25.72,    34.77,    26.36,    24.58
       96.0,      27.69,    25.51,    34.60,    26.21,    24.43
       97.0,      27.53,    25.32,    34.44,    26.07,    24.29
       98.0,      27.37,    25.12,    34.28,    25.92,    24.15
       99.0,      27.21,    24.93,    34.12,    25.78,    24.01
      100.0,      27.06,    24.74,    33.96,    25.64,    23.88
      101.0,      26.90,    24.56,    33.80,    25.50,    23.75
      102.0,      26.75,    24.38,    33.64,    25.36,    23.62
      103.0,      26.60,    24.21,    33.49,    25.22,    23.50
      104.0,      26.46,    24.04,    33.33,    25.09,    23.37
      105.0,      26.31,    23.87,    33.18,    24.96,    23.25
      106.0,      26.17,    23.71,    33.03,    24.82,    23.14
      107.0,      26.03,    23.55,    32.87,    24.69,    23.02
      108.0,      25.90,    23.39,    32.72,    24.57,    22.91
      109.0,      25.76,    23.23,    32.57,    24.44,    22.80
      110.0,      25.63,    23.08,    32.43,    24.31,    22.69
      111.0,      25.50,    22.94,    32.28,    24.19,    22.59
      112.0,      25.37,    22.79,    32.13,    24.07,    22.48
      113.0,      25.24,    22.65,    31.98,    23.95,    22.38
      114.0,      25.11,    22.51,    31.84,    23.83,    22.28
      115.0,      24.99,    22.37,    31.70,    23.71,    22.18
      116.0,      24.87,    22.24,    31.55,    23.59,    22.09
      117.0,      24.75,    22.11,    31.41,    23.48,    21.99
      118.0,      24.63,    21.98,    31.27,    23.36,    21.90
      119.0,      24.51,    21.85,    31.13,    23.25,    21.80
      120.0,      24.39,    21.73,    30.99,    23.14,    21.71
      121.0,      24.28,    21.61,    30.85,    23.03,    21.63
      122.0,      24.16,    21.49,    30.71,    22.92,    21.54
      123.0,      24.05,    21.37,    30.57,    22.81,    21.45
      124.0,      23.94,    21.25,    30.44,    22.70,    21.37
      125.0,      23.83,    21.14,    30.30,    22.60,    21.28
      126.0,      23.72,    21.03,    30.17,    22.49,    21.20
      127.0,      23.62,    20.92,    30.03,    22.39,    21.12
      128.0,      23.51,    20.81,    29.90,    22.28,    21.04
      129.0,      23.40,    20.71,    29.77,    22.18,    20.96
      130.0,      23.30,    20.61,    29.64,    22.08,    20.88
      131.0,      23.20,    20.50,    29.51,    21.98,    20.80
      132.0,      23.10,    20.40,    29.38,    21.88,    20.73
      133.0,      23.00,    20.31,    29.25,    21.78,    20.65
      134.0,      22.90,    20.21,    29.12,    21.69,    20.58
      135.0,      22.80,    20.11,    28.99,    21.59,    20.51
      136.0,      22.70,    20.02,    28.86,    21.50,    20.43
      137.0,      22.61,    19.93,    28.74,    21.40,    20.36
      138.0,      22.51,    19.84,    28.61,    21.31,    20.29
      139.0,      22.42,    19.75,    28.49,    21.22,    20.22
      140.0,      22.33,    19.66,    28.36,    21.12,    20.15
      141.0,      22.23,    19.58,    28.24,    21.03,    20.08
      142.0,      22.14,    19.49,    28.12,    20.94,    20.02
      143.0,      22.05,    19.41,    27.99,    20.85,    19.95
      144.0,      21.96,    19.32,    27.87,    20.77,    19.88
      145.0,      21.87,    19.24,    27.75,    20.68,    19.82
      146.0,      21.78,    19.16,    27.63,    20.59,    19.75
      147.0,      21.70,    19.08,    27.51,    20.50,    19.69
      148.0,      21.61,    19.01,    27.39,    20.42,    19.62
      149.0,      21.52,    18.93,    27.28,    20.33,    19.56
      150.0,      21.44,    18.86,    27.16,    20.25,    19.49
      151.0,      21.35,    18.78,    27.04,    20.17,    19.43
      152.0,      21.27,    18.71,    26.92,    20.08,    19.37
      153.0,      21.19,    18.63,    26.81,    20.00,    19.31
      154.0,      21.11,    18.56,    26.69,    19.92,    19.25
      155.0,      21.02,    18.49,    26.58,    19.84,    19.19
      156.0,      20.94,    18.42,    26.47,    19.76,    19.13
      157.0,      20.86,    18.35,    26.35,    19.68,    19.07
      158.0,      20.78,    18.29,    26.24,    19.60,    19.01
      159.0,      20.70,    18.22,    26.13,    19.52,    18.95
      160.0,      20.63,    18.15,    26.02,    19.44,    18.89
      161.0,      20.55,    18.09,    25.90,    19.37,    18.83
      162.0,      20.47,    18.02,    25.79,    19.29,    18.78
      163.0,      20.39,    17.96,    25.68,    19.21,    18.72
      164.0,      20.32,    17.90,    25.58,    19.14,    18.66
      165.0,      20.24,    17.83,    25.47,    19.06,    18.61
      166.0,      20.17,    17.77,    25.36,    18.99,    18.55
      167.0,      20.09,    17.71,    25.25,    18.91,    18.49
      168.0,      20.02,    17.65,    25.14,    18.84,    18.44
      169.0,      19.95,    17.59,    25.04,    18.77,    18.38
      170.0,      19.87,    17.53,    24.93,    18.70,    18.33
      171.0,      19.80,    17.48,    24.83,    18.62,    18.27
      172.0,      19.73,    17.42,    24.72,    18.55,    18.22
      173.0,      19.66,    17.36,    24.62,    18.48,    18.17
      174.0,      19.59,    17.30,    24.51,    18.41,    18.11
      175.0,      19.51,    17.25,    24.41,    18.34,    18.06
      176.0,      19.44,    17.19,    24.31,    18.27,    18.01
      177.0,      19.37,    17.14,    24.20,    18.20,    17.95
      178.0,      19.31,    17.08,    24.10,    18.13,    17.90
      179.0,      19.24,    17.03,    24.00,    18.07,    17.85
      180.0,      19.17,    16.98,    23.90,    18.00,    17.80
      181.0,      19.10,    16.93,    23.80,    17.93,    17.75
      182.0,      19.03,    16.87,    23.70,    17.86,    17.69
      183.0,      18.97,    16.82,    23.60,    17.80,    17.64
      184.0,      18.90,    16.77,    23.50,    17.73,    17.59
      185.0,      18.83,    16.72,    23.40,    17.67,    17.54
      186.0,      18.77,    16.67,    23.30,    17.60,    17.49
      187.0,      18.70,    16.62,    23.21,    17.54,    17.44
      188.0,      18.64,    16.57,    23.11,    17.47,    17.39
      189.0,      18.57,    16.52,    23.01,    17.41,    17.34
      190.0,      18.51,    16.47,    22.92,    17.34,    17.29
      191.0,      18.44,    16.42,    22.82,    17.28,    17.24
      192.0,      18.38,    16.38,    22.73,    17.22,    17.19
      193.0,      18.31,    16.33,    22.63,    17.15,    17.14
      194.0,      18.25,    16.28,    22.54,    17.09,    17.10
      195.0,      18.19,    16.24,    22.44,    17.03,    17.05
      196.0,      18.13,    16.19,    22.35,    16.97,    17.00
      197.0,      18.06,    16.14,    22.26,    16.91,    16.95
      198.0,      18.00,    16.10,    22.16,    16.85,    16.90
      199.0,      17.94,    16.05,    22.07,    16.79,    16.85
      200.0,      17.88,    16.01,    21.98,    16.73,    16.81
      201.0,      17.82,    15.96,    21.89,    16.67,    16.76
      202.0,      17.76,    15.92,    21.80,    16.61,    16.71
      203.0,      17.70,    15.87,    21.71,    16.55,    16.66
      204.0,      17.64,    15.83,    21.62,    16.49,    16.62
      205.0,      17.58,    15.79,    21.53,    16.43,    16.57
      206.0,      17.52,    15.74,    21.44,    16.37,    16.52
      207.0,      17.46,    15.70,    21.35,    16.31,    16.48
      208.0,      17.40,    15.66,    21.26,    16.25,    16.43
      209.0,      17.34,    15.62,    21.17,    16.20,    16.39
      210.0,      17.28,    15.57,    21.08,    16.14,    16.34
      211.0,      17.23,    15.53,    21.00,    16.08,    16.29
      212.0,      17.17,    15.49,    20.91,    16.03,    16.25
      213.0,      17.11,    15.45,    20.82,    15.97,    16.20
      214.0,      17.05,    15.41,    20.74,    15.91,    16.16
      215.0,      17.00,    15.37,    20.65,    15.86,    16.11
      216.0,      16.94,    15.33,    20.57,    15.80,    16.07
      217.0,      16.88,    15.29,    20.48,    15.75,    16.02
      218.0,      16.83,    15.25,    20.40,    15.69,    15.98
      219.0,      16.77,    15.21,    20.31,    15.64,    15.93
      220.0,      16.72,    15.17,    20.23,    15.58,    15.89
      221.0,      16.66,    15.13,    20.15,    15.53,    15.84
      222.0,      16.61,    15.09,    20.06,    15.48,    15.80
      223.0,      16.55,    15.05,    19.98,    15.42,    15.76
      224.0,      16.50,    15.01,    19.90,    15.37,    15.71
      225.0,      16.44,    14.97,    19.82,    15.32,    15.67
      226.0,      16.39,    14.93,    19.73,    15.26,    15.62
      227.0,      16.33,    14.89,    19.65,    15.21,    15.58
      228.0,      16.28,    14.86,    19.57,    15.16,    15.54
      229.0,      16.23,    14.82,    19.49,    15.11,    15.49
      230.0,      16.17,    14.78,    19.41,    15.05,    15.45
      231.0,      16.12,    14.74,    19.33,    15.00,    15.41
      232.0,      16.07,    14.70,    19.25,    14.95,    15.37
      233.0,      16.02,    14.67,    19.17,    14.90,    15.32
      234.0,      15.96,    14.63,    19.09,    14.85,    15.28
      235.0,      15.91,    14.59,    19.01,    14.80,    15.24
      236.0,      15.86,    14.56,    18.94,    14.75,    15.20
      237.0,      15.81,    14.52,    18.86,    14.70,    15.15
      238.0,      15.76,    14.48,    18.78,    14.65,    15.11
      239.0,      15.70,    14.45,    18.70,    14.60,    15.07
      240.0,      15.65,    14.41,    18.63,    14.55,    15.03
      241.0,      15.60,    14.38,    18.55,    14.50,    14.99
      242.0,      15.55,    14.34,    18.47,    14.45,    14.95
      243.0,      15.50,    14.30,    18.40,    14.40,    14.90
      244.0,      15.45,    14.27,    18.32,    14.35,    14.86
      245.0,      15.40,    14.23,    18.25,    14.30,    14.82
      246.0,      15.35,    14.20,    18.17,    14.25,    14.78
      247.0,      15.30,    14.16,    18.10,    14.21,    14.74
      248.0,      15.25,    14.13,    18.02,    14.16,    14.70
      249.0,      15.20,    14.09,    17.95,    14.11,    14.66
      250.0,      15.15,    14.06,    17.88,    14.06,    14.62
      251.0,      15.11,    14.03,    17.80,    14.01,    14.58
      252.0,      15.06,    13.99,    17.73,    13.97,    14.54
      253.0,      15.01,    13.96,    17.66,    13.92,    14.50
      254.0,      14.96,    13.92,    17.59,    13.87,    14.46
      255.0,      14.91,    13.89,    17.51,    13.83,    14.42
      256.0,      14.86,    13.85,    17.44,    13.78,    14.38
      257.0,      14.82,    13.82,    17.37,    13.73,    14.34
      258.0,      14.77,    13.79,    17.30,    13.69,    14.30
      259.0,      14.72,    13.75,    17.23,    13.64,    14.26
      260.0,      14.67,    13.72,    17.16,    13.60,    14.22
      261.0,      14.63,    13.69,    17.09,    13.55,    14.18
      262.0,      14.58,    13.65,    17.02,    13.51,    14.14
      263.0,      14.53,    13.62,    16.95,    13.46,    14.10
      264.0,      14.49,    13.59,    16.88,    13.41,    14.06
      265.0,      14.44,    13.56,    16.81,    13.37,    14.02
      266.0,      14.39,    13.52,    16.74,    13.33,    13.98
      267.0,      14.35,    13.49,    16.67,    13.28,    13.95
      268.0,      14.30,    13.46,    16.61,    13.24,    13.91
      269.0,      14.26,    13.43,    16.54,    13.19,    13.87
      270.0,      14.21,    13.39,    16.47,    13.15,    13.83
      271.0,      14.17,    13.36,    16.40,    13.10,    13.79
      272.0,      14.12,    13.33,    16.34,    13.06,    13.75
      273.0,      14.08,    13.30,    16.27,    13.02,    13.72
      274.0,      14.03,    13.27,    16.20,    12.97,    13.68
      275.0,      13.99,    13.23,    16.14,    12.93,    13.64
      276.0,      13.94,    13.20,    16.07,    12.89,    13.60
      277.0,      13.90,    13.17,    16.01,    12.85,    13.57
      278.0,      13.85,    13.14,    15.94,    12.80,    13.53
      279.0,      13.81,    13.11,    15.88,    12.76,    13.49
      280.0,      13.76,    13.08,    15.81,    12.72,    13.45
      281.0,      13.72,    13.05,    15.75,    12.68,    13.42
      282.0,      13.68,    13.01,    15.68,    12.63,    13.38
      283.0,      13.63,    12.98,    15.62,    12.59,    13.34
      284.0,      13.59,    12.95,    15.55,    12.55,    13.31
      285.0,      13.55,    12.92,    15.49,    12.51,    13.27
      286.0,      13.50,    12.89,    15.43,    12.47,    13.23
      287.0,      13.46,    12.86,    15.37,    12.43,    13.20
      288.0,      13.42,    12.83,    15.30,    12.38,    13.16
      289.0,      13.38,    12.80,    15.24,    12.34,    13.12
      290.0,      13.33,    12.77,    15.18,    12.30,    13.09
      291.0,      13.29,    12.74,    15.12,    12.26,    13.05
      292.0,      13.25,    12.71,    15.05,    12.22,    13.02
      293.0,      13.21,    12.68,    14.99,    12.18,    12.98
      294.0,      13.17,    12.65,    14.93,    12.14,    12.94
      295.0,      13.12,    12.62,    14.87,    12.10,    12.91
      296.0,      13.08,    12.59,    14.81,    12.06,    12.87
      297.0,      13.04,    12.56,    14.75,    12.02,    12.84
      298.0,      13.00,    12.53,    14.69,    11.98,    12.80
      299.0,      12.96,    12.50,    14.63,    11.94,    12.77
      300.0,      12.92,    12.47,    14.57,    11.90,    12.73
      301.0,      12.88,    12.44,    14.51,    11.86,    12.70
      302.0,      12.84,    12.41,    14.45,    11.82,    12.66
      303.0,      12.80,    12.38,    14.39,    11.79,    12.63
      304.0,      12.76,    12.35,    14.34,    11.75,    12.59
      305.0,      12.72,    12.32,    14.28,    11.71,    12.56
      306.0,      12.68,    12.30,    14.22,    11.67,    12.52
      307.0,      12.64,    12.27,    14.16,    11.63,    12.49
      308.0,      12.60,    12.24,    14.10,    11.59,    12.45
      309.0,      12.56,    12.21,    14.05,    11.55,    12.42
      310.0,      12.52,    12.18,    13.99,    11.52,    12.39
