Radius (km), Mean (m/s), NE (m/s), SE (m/s), SW (m/s), NW (m/s)
        0.0,       0.00,     0.00,     0.00,     0.00,     0.00
        1.0,       2.25,     2.15,     2.15,     2.57,     2.15
        2.0,       4.79,     4.66,     4.66,     5.16,     4.66
        3.0,       7.47,     7.38,     7.35,     7.77,     7.37
        4.0,      10.32,    10.33,    10.22,    10.41,    10.32
        5.0,      13.44,    13.63,    13.35,    13.17,    13.60
        6.0,      16.94,    17.40,    16.86,    16.16,    17.36
        7.0,      20.91,    21.69,    20.85,    19.46,    21.64
        8.0,      25.33,    26.47,    25.32,    23.11,    26.44
        9.0,      30.12,    31.61,    30.19,    27.06,    31.62
       10.0,      35.09,    36.90,    35.30,    31.20,    36.96
       11.0,      39.98,    42.04,    40.37,    35.33,    42.17
       12.0,      44.52,    46.75,    45.14,    39.24,    46.94
       13.0,      48.45,    50.76,    49.33,    42.68,    51.01
       14.0,      51.56,    53.88,    52.71,    45.49,    54.16
       15.0,      53.73,    56.00,    55.13,    47.52,    56.28
       16.0,      54.95,    57.13,    56.57,    48.73,    57.37
       17.0,      55.28,    57.36,    57.08,    49.16,    57.53
       18.0,      54.88,    56.87,    56.79,    48.92,    56.94
       19.0,      53.93,    55.86,    55.92,    48.15,    55.80
       20.0,      52.66,    54.56,    54.67,    47.05,    54.35
       21.0,      51.24,    53.15,    53.25,    45.78,    52.77
       22.0,      49.81,    51.75,    51.81,    44.48,    51.22
       23.0,      48.46,    50.43,    50.44,    43.24,    49.74
       24.0,      47.20,    49.19,    49.17,    42.08,    48.37
       25.0,      46.02,    48.03,    47.99,    41.01,    47.07
       26.0,      44.90,    46.91,    46.86,    39.99,    45.83
       27.0,      43.82,    45.84,    45.78,    39.02,    44.64
       28.0,      42.78,    44.81,    44.74,    38.08,    43.49
       29.0,      41.78,    43.81,    43.73,    37.18,    42.39
       30.0,      40.81,    42.85,    42.77,    36.31,    41.33
       31.0,      39.89,    41.93,    41.83,    35.47,    40.31
       32.0,      38.99,    41.04,    40.94,    34.67,    39.32
       33.0,      38.13,    40.19,    40.07,    33.89,    38.38
       34.0,      37.30,    39.36,    39.24,    33.14,    37.47
       35.0,      36.50,    38.57,    38.43,    32.42,    36.59
       36.0,      35.74,    37.81,    37.66,    31.73,    35.75
       37.0,      34.99,    37.07,    36.91,    31.06,    34.94
       38.0,      34.28,    36.36,    36.19,    30.41,    34.16
       39.0,      33.59,    35.68,    35.49,    29.79,    33.41
       40.0,      32.93,    35.02,    34.82,    29.19,    32.69
       41.0,      32.29,    34.39,    34.18,    28.61,    32.00
       42.0,      31.68,    33.78,    33.55,    28.05,    31.33
       43.0,      31.08,    33.19,    32.95,    27.52,    30.68
       44.0,      30.51,    32.62,    32.37,    27.00,    30.06
       45.0,      29.96,    32.07,    31.81,    26.50,    29.47
       46.0,      29.43,    31.55,    31.27,    26.02,    28.89
       47.0,      28.92,    31.04,    30.75,    25.55,    28.34
       48.0,      28.42,    30.55,    30.24,    25.10,    27.81
       49.0,      27.95,    30.07,    29.76,    24.67,    27.29
       50.0,      27.49,    29.62,    29.29,    24.25,    26.80
       51.0,      27.04,    29.18,    28.83,    23.85,    26.32
       52.0,      26.62,    28.75,    28.39,    23.46,    25.87
       53.0,      26.20,    28.34,    27.97,    23.08,    25.42
       54.0,      25.81,    27.95,    27.56,    22.72,    25.00
       55.0,      25.42,    27.57,    27.16,    22.36,    24.59
       56.0,      25.05,    27.20,    26.78,    22.03,    24.19
       57.0,      24.69,    26.84,    26.41,    21.70,    23.81
       58.0,      24.34,    26.50,    26.05,    21.38,    23.45
       59.0,      24.01,    26.17,    25.70,    21.07,    23.09
       60.0,      23.69,    25.85,    25.37,    20.78,    22.75
       61.0,      23.37,    25.54,    25.04,    20.49,    22.42
       62.0,      23.07,    25.24,    24.73,    20.21,    22.10
       63.0,      22.78,    24.95,    24.42,    19.95,    21.80
       64.0,      22.50,    24.67,    24.13,    19.69,    21.50
       65.0,      22.22,    24.40,    23.84,    19.44,    21.22
       66.0,      21.96,    24.14,    23.57,    19.19,    20.94
       67.0,      21.70,    23.88,    23.30,    18.96,    20.68
       68.0,      21.46,    23.64,    23.04,    18.73,    20.42
       69.0,      21.22,    23.40,    22.79,    18.51,    20.18
       70.0,      20.99,    23.17,    22.54,    18.30,    19.94
       71.0,      20.76,    22.95,    22.31,    18.09,    19.71
       72.0,      20.55,    22.73,    22.08,    17.89,    19.49
       73.0,      20.34,    22.52,    21.85,    17.69,    19.27
       74.0,      20.13,    22.32,    21.64,    17.50,    19.06
       75.0,      19.93,    22.13,    21.43,    17.32,    18.86
       76.0,      19.74,    21.94,    21.22,    17.14,    18.67
       77.0,      19.56,    21.75,    21.02,    16.97,    18.48
       78.0,      19.38,    21.57,    20.83,    16.80,    18.30
       79.0,      19.20,    21.40,    20.64,    16.64,    18.13
       80.0,      19.03,    21.23,    20.46,    16.48,    17.96
       81.0,      18.87,    21.07,    20.28,    16.33,    17.79
       82.0,      18.71,    20.91,    20.11,    16.18,    17.64
       83.0,      18.55,    20.76,    19.94,    16.03,    17.48
       84.0,      18.40,    20.61,    19.78,    15.89,    17.33
       85.0,      18.26,    20.46,    19.62,    15.75,    17.19
       86.0,      18.11,    20.32,    19.46,    15.62,    17.05
       87.0,      17.98,    20.19,    19.31,    15.49,    16.92
       88.0,      17.84,    20.05,    19.16,    15.36,    16.78
       89.0,      17.71,    19.92,    19.02,    15.24,    16.66
       90.0,      17.58,    19.80,    18.88,    15.12,    16.54
       91.0,      17.46,    19.67,    18.74,    15.00,    16.42
       92.0,      17.34,    19.55,    18.61,    14.89,    16.30
       93.0,      17.22,    19.44,    18.48,    14.78,    16.19
       94.0,      17.10,    19.32,    18.35,    14.67,    16.08
       95.0,      16.99,    19.21,    18.22,    14.56,    15.97
       96.0,      16.88,    19.10,    18.10,    14.46,    15.87
       97.0,      16.78,    19.00,    17.98,    14.36,    15.77
       98.0,      16.67,    18.89,    17.87,    14.26,    15.68
       99.0,      16.57,    18.79,    17.75,    14.16,    15.58
      100.0,      16.47,    18.69,    17.64,    14.07,    15.49
      101.0,      16.38,    18.60,    17.53,    13.97,    15.40
      102.0,      16.28,    18.51,    17.42,    13.88,    15.31
      103.0,      16.19,    18.41,    17.32,    13.80,    15.23
      104.0,      16.10,    18.32,    17.22,    13.71,    15.15
      105.0,      16.01,    18.24,    17.11,    13.63,    15.07
      106.0,      15.92,    18.15,    17.02,    13.54,    14.99
      107.0,      15.84,    18.07,    16.92,    13.46,    14.92
      108.0,      15.76,    17.98,    16.82,    13.38,    14.84
      109.0,      15.68,    17.90,    16.73,    13.30,    14.77
      110.0,      15.60,    17.82,    16.64,    13.23,    14.70
      111.0,      15.52,    17.75,    16.55,    13.15,    14.63
      112.0,      15.44,    17.67,    16.46,    13.08,    14.56
      113.0,      15.37,    17.60,    16.37,    13.01,    14.50
      114.0,      15.29,    17.52,    16.29,    12.93,    14.43
      115.0,      15.22,    17.45,    16.20,    12.86,    14.37
      116.0,      15.15,    17.38,    16.12,    12.80,    14.31
      117.0,      15.08,    17.31,    16.04,    12.73,    14.25
      118.0,      15.01,    17.24,    15.96,    12.66,    14.19
      119.0,      14.95,    17.18,    15.88,    12.60,    14.14
      120.0,      14.88,    17.11,    15.80,    12.53,    14.08
      121.0,      14.82,    17.05,    15.72,    12.47,    14.03
      122.0,      14.75,    16.98,    15.65,    12.41,    13.97
      123.0,      14.69,    16.92,    15.57,    12.35,    13.92
      124.0,      14.63,    16.86,    15.50,    12.29,    13.87
      125.0,      14.57,    16.80,    15.43,    12.23,    13.82
      126.0,      14.51,    16.74,    15.36,    12.17,    13.77
      127.0,      14.45,    16.68,    15.28,    12.11,    13.72
      128.0,      14.39,    16.62,    15.21,    12.05,    13.67
      129.0,      14.33,    16.56,    15.15,    12.00,    13.63
      130.0,      14.28,    16.51,    15.08,    11.94,    13.58
      131.0,      14.22,    16.45,    15.01,    11.89,    13.53
      132.0,      14.17,    16.40,    14.94,    11.83,    13.49
      133.0,      14.11,    16.34,    14.88,    11.78,    13.45
      134.0,      14.06,    16.29,    14.81,    11.73,    13.40
      135.0,      14.00,    16.23,    14.75,    11.67,    13.36
      136.0,      13.95,    16.18,    14.69,    11.62,    13.32
      137.0,      13.90,    16.13,    14.62,    11.57,    13.28
      138.0,      13.85,    16.08,    14.56,    11.52,    13.24
      139.0,      13.80,    16.03,    14.50,    11.47,    13.20
      140.0,      13.75,    15.98,    14.44,    11.42,    13.16
      141.0,      13.70,    15.93,    14.38,    11.37,    13.12
      142.0,      13.65,    15.88,    14.32,    11.33,    13.08
      143.0,      13.60,    15.83,    14.26,    11.28,    13.04
      144.0,      13.56,    15.78,    14.20,    11.23,    13.01
      145.0,      13.51,    15.73,    14.14,    11.19,    12.97
      146.0,      13.46,    15.69,    14.09,    11.14,    12.93
      147.0,      13.42,    15.64,    14.03,    11.09,    12.90
      148.0,      13.37,    15.59,    13.97,    11.05,    12.86
      149.0,      13.32,    15.55,    13.92,    11.00,    12.83
      150.0,      13.28,    15.50,    13.86,    10.96,    12.79
      151.0,      13.23,    15.46,    13.81,    10.91,    12.76
      152.0,      13.19,    15.41,    13.75,    10.87,    12.73
      153.0,      13.15,    15.37,    13.70,    10.83,    12.69
      154.0,      13.10,    15.32,    13.64,    10.78,    12.66
      155.0,      13.06,    15.28,    13.59,    10.74,    12.63
      156.0,      13.02,    15.24,    13.54,    10.70,    12.59
      157.0,      12.97,    15.19,    13.49,    10.66,    12.56
      158.0,      12.93,    15.15,    13.43,    10.62,    12.53
      159.0,      12.89,    15.11,    13.38,    10.57,    12.50
      160.0,      12.85,    15.07,    13.33,    10.53,    12.47
      161.0,      12.81,    15.02,    13.28,    10.49,    12.44
      162.0,      12.77,    14.98,    13.23,    10.45,    12.41
      163.0,      12.73,    14.94,    13.18,    10.41,    12.38
      164.0,      12.69,    14.90,    13.13,    10.37,    12.34
      165.0,      12.65,    14.86,    13.08,    10.33,    12.31
      166.0,      12.61,    14.82,    13.03,    10.29,    12.29
      167.0,      12.57,    14.78,    12.98,    10.25,    12.26
      168.0,      12.53,    14.74,    12.93,    10.22,    12.23
      169.0,      12.49,    14.70,    12.88,    10.18,    12.20
      170.0,      12.45,    14.66,    12.83,    10.14,    12.17
      171.0,      12.41,    14.62,    12.79,    10.10,    12.14
      172.0,      12.37,    14.58,    12.74,    10.06,    12.11
      173.0,      12.34,    14.54,    12.69,    10.03,    12.08
      174.0,      12.30,    14.50,    12.64,     9.99,    12.06
      175.0,      12.26,    14.47,    12.60,     9.95,    12.03
      176.0,      12.22,    14.43,    12.55,     9.91,    12.00
      177.0,      12.19,    14.39,    12.50,     9.88,    11.97
      178.0,      12.15,    14.35,    12.46,     9.84,    11.94
      179.0,      12.11,    14.31,    12.41,     9.81,    11.92
      180.0,      12.08,    14.28,    12.37,     9.77,    11.89
      181.0,      12.04,    14.24,    12.32,     9.73,    11.86
      182.0,      12.00,    14.20,    12.28,     9.70,    11.84
      183.0,      11.97,    14.16,    12.23,     9.66,    11.81
      184.0,      11.93,    14.13,    12.19,     9.63,    11.78
      185.0,      11.90,    14.09,    12.14,     9.59,    11.76
      186.0,      11.86,    14.05,    12.10,     9.56,    11.73
      187.0,      11.82,    14.02,    12.05,     9.52,    11.71
      188.0,      11.79,    13.98,    12.01,     9.49,    11.68
      189.0,      11.75,    13.94,    11.97,     9.45,    11.65
      190.0,      11.72,    13.91,    11.92,     9.42,    11.63
      191.0,      11.69,    13.87,    11.88,     9.38,    11.60
      192.0,      11.65,    13.84,    11.84,     9.35,    11.58
      193.0,      11.62,    13.80,    11.80,     9.32,    11.55
      194.0,      11.58,    13.77,    11.75,     9.28,    11.53
      195.0,      11.55,    13.73,    11.71,     9.25,    11.50
      196.0,      11.51,    13.70,    11.67,     9.22,    11.48
      197.0,      11.48,    13.66,    11.63,     9.18,    11.45
      198.0,      11.45,    13.63,    11.58,     9.15,    11.43
      199.0,      11.41,    13.59,    11.54,     9.12,    11.40
      200.0,      11.38,    13.56,    11.50,     9.09,    11.38
      201.0,      11.35,    13.52,    11.46,     9.05,    11.35
      202.0,      11.31,    13.49,    11.42,     9.02,    11.33
      203.0,      11.28,    13.45,    11.38,     8.99,    11.30
      204.0,      11.25,    13.42,    11.34,     8.96,    11.28
      205.0,      11.22,    13.38,    11.30,     8.92,    11.25
      206.0,      11.18,    13.35,    11.26,     8.89,    11.23
      207.0,      11.15,    13.32,    11.22,     8.86,    11.21
      208.0,      11.12,    13.28,    11.18,     8.83,    11.18
      209.0,      11.09,    13.25,    11.14,     8.80,    11.16
      210.0,      11.05,    13.22,    11.10,     8.77,    11.13
      211.0,      11.02,    13.18,    11.06,     8.74,    11.11
      212.0,      10.99,    13.15,    11.02,     8.70,    11.09
      213.0,      10.96,    13.12,    10.98,     8.67,    11.06
      214.0,      10.93,    13.08,    10.94,     8.64,    11.04
      215.0,      10.90,    13.05,    10.90,     8.61,    11.02
      216.0,      10.86,    13.02,    10.86,     8.58,    10.99
      217.0,      10.83,    12.98,    10.82,     8.55,    10.97
      218.0,      10.80,    12.95,    10.79,     8.52,    10.95
      219.0,      10.77,    12.92,    10.75,     8.49,    10.92
      220.0,      10.74,    12.89,    10.71,     8.46,    10.90
      221.0,      10.71,    12.85,    10.67,     8.43,    10.88
      222.0,      10.68,    12.82,    10.63,     8.40,    10.85
      223.0,      10.65,    12.79,    10.60,     8.37,    10.83
      224.0,      10.62,    12.76,    10.56,     8.34,    10.81
      225.0,      10.59,    12.73,    10.52,     8.31,    10.79
      226.0,      10.56,    12.69,    10.48,     8.28,    10.76
      227.0,      10.53,    12.66,    10.45,     8.25,    10.74
      228.0,      10.50,    12.63,    10.41,     8.23,    10.72
      229.0,      10.47,    12.60,    10.37,     8.20,    10.70
      230.0,      10.44,    12.57,    10.34,     8.17,    10.67
      231.0,      10.41,    12.54,    10.30,     8.14,    10.65
      232.0,      10.38,    12.51,    10.26,     8.11,    10.63
      233.0,      10.35,    12.47,    10.23,     8.08,    10.61
      234.0,      10.32,    12.44,    10.19,     8.05,    10.58
      235.0,      10.29,    12.41,    10.16,     8.02,    10.56
      236.0,      10.26,    12.38,    10.12,     8.00,    10.54
      237.0,      10.23,    12.35,    10.08,     7.97,    10.52
      238.0,      10.20,    12.32,    10.05,     7.94,    10.50
      239.0,      10.17,    12.29,    10.01,     7.91,    10.47
      240.0,      10.14,    12.26,     9.98,     7.88,    10.45
      241.0,      10.11,    12.23,     9.94,     7.86,    10.43
      242.0,      10.09,    12.20,     9.91,     7.83,    10.41
      243.0,      10.06,    12.17,     9.87,     7.80,    10.39
      244.0,      10.03,    12.14,     9.84,     7.77,    10.37
      245.0,      10.00,    12.11,     9.80,     7.75,    10.34
      246.0,       9.97,    12.08,     9.77,     7.72,    10.32
      247.0,       9.94,    12.05,     9.73,     7.69,    10.30
      248.0,       9.92,    12.02,     9.70,     7.67,    10.28
      249.0,       9.89,    11.99,     9.67,     7.64,    10.26
      250.0,       9.86,    11.96,     9.63,     7.61,    10.24
      251.0,       9.83,    11.93,     9.60,     7.59,    10.22
      252.0,       9.80,    11.90,     9.56,     7.56,    10.19
      253.0,       9.78,    11.87,     9.53,     7.53,    10.17
      254.0,       9.75,    11.84,     9.50,     7.51,    10.15
      255.0,       9.72,    11.81,     9.46,     7.48,    10.13
      256.0,       9.69,    11.78,     9.43,     7.45,    10.11
      257.0,       9.67,    11.75,     9.40,     7.43,    10.09
      258.0,       9.64,    11.72,     9.36,     7.40,    10.07
      259.0,       9.61,    11.69,     9.33,     7.38,    10.05
      260.0,       9.58,    11.66,     9.30,     7.35,    10.03
      261.0,       9.56,    11.63,     9.27,     7.32,    10.00
      262.0,       9.53,    11.60,     9.23,     7.30,     9.98
      263.0,       9.50,    11.57,     9.20,     7.27,     9.96
      264.0,       9.48,    11.55,     9.17,     7.25,     9.94
      265.0,       9.45,    11.52,     9.14,     7.22,     9.92
      266.0,       9.42,    11.49,     9.10,     7.20,     9.90
      267.0,       9.40,    11.46,     9.07,     7.17,     9.88
      268.0,       9.37,    11.43,     9.04,     7.15,     9.86
      269.0,       9.34,    11.40,     9.01,     7.12,     9.84
      270.0,       9.32,    11.37,     8.98,     7.10,     9.82
      271.0,       9.29,    11.35,     8.95,     7.07,     9.80
      272.0,       9.26,    11.32,     8.91,     7.05,     9.78
      273.0,       9.24,    11.29,     8.88,     7.02,     9.76
      274.0,       9.21,    11.26,     8.85,     7.00,     9.74
      275.0,       9.19,    11.23,     8.82,     6.97,     9.72
      276.0,       9.16,    11.21,     8.79,     6.95,     9.70
      277.0,       9.13,    11.18,     8.76,     6.92,     9.68
      278.0,       9.11,    11.15,     8.73,     6.90,     9.66
      279.0,       9.08,    11.12,     8.70,     6.88,     9.64
      280.0,       9.06,    11.10,     8.67,     6.85,     9.62
      281.0,       9.03,    11.07,     8.64,     6.83,     9.60
      282.0,       9.01,    11.04,     8.61,     6.80,     9.58
      283.0,       8.98,    11.01,     8.58,     6.78,     9.56
      284.0,       8.96,    10.99,     8.55,     6.76,     9.54
      285.0,       8.93,    10.96,     8.52,     6.73,     9.52
      286.0,       8.91,    10.93,     8.49,     6.71,     9.50
      287.0,       8.88,    10.90,     8.46,     6.69,     9.48
      288.0,       8.86,    10.88,     8.43,     6.66,     9.46
      289.0,       8.83,    10.85,     8.40,     6.64,     9.44
      290.0,       8.81,    10.82,     8.37,     6.62,     9.42
      291.0,       8.78,    10.80,     8.34,     6.59,     9.40
      292.0,       8.76,    10.77,     8.31,     6.57,     9.38
      293.0,       8.73,    10.74,     8.28,     6.55,     9.36
      294.0,       8.71,    10.72,     8.25,     6.52,     9.34
      295.0,       8.68,    10.69,     8.22,     6.50,     9.32
      296.0,       8.66,    10.66,     8.19,     6.48,     9.30
      297.0,       8.64,    10.64,     8.16,     6.46,     9.28
      298.0,       8.61,    10.61,     8.14,     6.43,     9.27
      299.0,       8.59,    10.58,     8.11,     6.41,     9.25
      300.0,       8.56,    10.56,     8.08,     6.39,     9.23
      301.0,       8.54,    10.53,     8.05,     6.37,     9.21
      302.0,       8.52,    10.51,     8.02,     6.34,     9.19
      303.0,       8.49,    10.48,     7.99,     6.32,     9.17
      304.0,       8.47,    10.45,     7.97,     6.30,     9.15
      305.0,       8.44,    10.43,     7.94,     6.28,     9.13
      306.0,       8.42,    10.40,     7.91,     6.26,     9.11
      307.0,       8.40,    10.38,     7.88,     6.23,     9.09
      308.0,       8.37,    10.35,     7.85,     6.21,     9.08
      309.0,       8.35,    10.32,     7.83,     6.19,     9.06
      310.0,       8.33,    10.30,     7.80,     6.17,     9.04
