Radius (km), Mean (m/s), NE (m/s), SE (m/s), SW (m/s), NW (m/s)
        0.0,       0.00,     0.00,     0.00,     0.00,     0.00
        1.0,       1.15,     0.53,     1.08,     1.49,     1.49
        2.0,       2.58,     1.53,     2.53,     3.14,     3.14
        3.0,       4.18,     2.83,     4.16,     4.86,     4.86
        4.0,       5.90,     4.40,     5.92,     6.63,     6.63
        5.0,       7.71,     6.18,     7.79,     8.44,     8.44
        6.0,       9.61,     8.17,     9.75,    10.27,    10.27
        7.0,      11.59,    10.33,    11.78,    12.13,    12.13
        8.0,      13.64,    12.67,    13.88,    14.01,    14.01
        9.0,      15.76,    15.17,    16.04,    15.91,    15.91
       10.0,      17.93,    17.81,    18.26,    17.82,    17.82
       11.0,      20.16,    20.61,    20.53,    19.75,    19.75
       12.0,      22.46,    23.55,    22.88,    21.70,    21.70
       13.0,      24.87,    26.72,    25.42,    23.66,    23.69
       14.0,      27.50,    30.28,    28.26,    25.68,    25.78
       15.0,      30.46,    34.43,    31.53,    27.83,    28.07
       16.0,      33.86,    39.31,    35.28,    30.20,    30.65
       17.0,      37.71,    44.96,    39.50,    32.85,    33.55
       18.0,      41.96,    51.27,    44.05,    35.78,    36.74
       19.0,      46.44,    57.98,    48.72,    38.94,    40.12
       20.0,      50.93,    64.75,    53.25,    42.19,    43.52
       21.0,      55.16,    71.16,    57.37,    45.37,    46.74
       22.0,      58.87,    76.79,    60.82,    48.28,    49.59
       23.0,      61.84,    81.30,    63.42,    50.73,    51.89
       24.0,      63.92,    84.49,    65.09,    52.59,    53.52
       25.0,      65.08,    86.26,    65.84,    53.78,    54.44
       26.0,      65.35,    86.69,    65.75,    54.27,    54.67
       27.0,      64.85,    85.97,    64.98,    54.14,    54.30
       28.0,      63.77,    84.39,    63.75,    53.49,    53.46
       29.0,      62.32,    82.25,    62.23,    52.47,    52.31
       30.0,      60.68,    79.85,    60.62,    51.23,    51.00
       31.0,      59.00,    77.42,    59.02,    49.91,    49.66
       32.0,      57.39,    75.10,    57.49,    48.62,    48.37
       33.0,      55.88,    72.93,    56.05,    47.39,    47.16
       34.0,      54.46,    70.89,    54.67,    46.26,    46.03
       35.0,      53.11,    68.95,    53.34,    45.20,    44.96
       36.0,      51.81,    67.09,    52.06,    44.18,    43.94
       37.0,      50.56,    65.30,    50.82,    43.20,    42.95
       38.0,      49.36,    63.57,    49.62,    42.25,    42.00
       39.0,      48.20,    61.92,    48.46,    41.34,    41.08
       40.0,      47.08,    60.33,    47.34,    40.46,    40.20
       41.0,      46.00,    58.79,    46.27,    39.60,    39.35
       42.0,      44.96,    57.32,    45.22,    38.78,    38.53
       43.0,      43.96,    55.90,    44.21,    37.98,    37.75
       44.0,      43.00,    54.54,    43.24,    37.22,    36.99
       45.0,      42.07,    53.23,    42.30,    36.47,    36.26
       46.0,      41.17,    51.97,    41.39,    35.75,    35.56
       47.0,      40.30,    50.75,    40.52,    35.06,    34.88
       48.0,      39.47,    49.58,    39.67,    34.39,    34.23
       49.0,      38.66,    48.46,    38.85,    33.74,    33.60
       50.0,      37.89,    47.38,    38.06,    33.11,    33.00
       51.0,      37.14,    46.34,    37.29,    32.51,    32.41
       52.0,      36.42,    45.34,    36.55,    31.92,    31.85
       53.0,      35.72,    44.38,    35.84,    31.35,    31.31
       54.0,      35.05,    43.45,    35.15,    30.81,    30.79
       55.0,      34.40,    42.56,    34.48,    30.28,    30.29
       56.0,      33.78,    41.70,    33.84,    29.76,    29.80
       57.0,      33.17,    40.87,    33.21,    29.27,    29.34
       58.0,      32.59,    40.07,    32.61,    28.79,    28.89
       59.0,      32.03,    39.31,    32.03,    28.32,    28.45
       60.0,      31.49,    38.57,    31.47,    27.87,    28.03
       61.0,      30.96,    37.86,    30.92,    27.44,    27.63
       62.0,      30.46,    37.18,    30.40,    27.02,    27.24
       63.0,      29.97,    36.52,    29.89,    26.61,    26.86
       64.0,      29.50,    35.88,    29.40,    26.22,    26.50
       65.0,      29.05,    35.27,    28.93,    25.83,    26.15
       66.0,      28.61,    34.68,    28.47,    25.46,    25.81
       67.0,      28.18,    34.12,    28.03,    25.11,    25.49
       68.0,      27.77,    33.57,    27.60,    24.76,    25.17
       69.0,      27.38,    33.04,    27.18,    24.42,    24.87
       70.0,      27.00,    32.54,    26.78,    24.10,    24.57
       71.0,      26.63,    32.05,    26.39,    23.78,    24.29
       72.0,      26.27,    31.58,    26.02,    23.47,    24.01
       73.0,      25.93,    31.12,    25.66,    23.18,    23.75
       74.0,      25.59,    30.68,    25.31,    22.89,    23.49
       75.0,      25.27,    30.26,    24.97,    22.61,    23.24
       76.0,      24.96,    29.86,    24.64,    22.34,    23.00
       77.0,      24.66,    29.46,    24.32,    22.08,    22.77
       78.0,      24.37,    29.08,    24.02,    21.82,    22.55
       79.0,      24.09,    28.72,    23.72,    21.57,    22.33
       80.0,      23.81,    28.37,    23.44,    21.33,    22.12
       81.0,      23.55,    28.03,    23.16,    21.10,    21.92
       82.0,      23.30,    27.70,    22.89,    20.88,    21.72
       83.0,      23.05,    27.38,    22.63,    20.66,    21.53
       84.0,      22.81,    27.07,    22.38,    20.44,    21.34
       85.0,      22.58,    26.78,    22.14,    20.23,    21.17
       86.0,      22.35,    26.49,    21.90,    20.03,    20.99
       87.0,      22.14,    26.22,    21.67,    19.84,    20.82
       88.0,      21.93,    25.95,    21.45,    19.65,    20.66
       89.0,      21.72,    25.69,    21.24,    19.46,    20.50
       90.0,      21.53,    25.45,    21.03,    19.28,    20.35
       91.0,      21.34,    25.21,    20.83,    19.11,    20.20
       92.0,      21.15,    24.97,    20.64,    18.94,    20.05
       93.0,      20.97,    24.75,    20.45,    18.77,    19.91
       94.0,      20.80,    24.53,    20.27,    18.61,    19.78
       95.0,      20.63,    24.32,    20.10,    18.45,    19.65
       96.0,      20.46,    24.12,    19.92,    18.30,    19.52
       97.0,      20.31,    23.92,    19.76,    18.15,    19.39
       98.0,      20.15,    23.73,    19.60,    18.00,    19.27
       99.0,      20.00,    23.55,    19.45,    17.86,    19.15
      100.0,      19.86,    23.37,    19.30,    17.72,    19.04
      101.0,      19.71,    23.19,    19.15,    17.59,    18.92
      102.0,      19.58,    23.03,    19.01,    17.46,    18.81
      103.0,      19.44,    22.86,    18.87,    17.33,    18.71
      104.0,      19.31,    22.71,    18.74,    17.20,    18.60
      105.0,      19.19,    22.55,    18.61,    17.08,    18.50
      106.0,      19.06,    22.40,    18.49,    16.96,    18.40
      107.0,      18.95,    22.26,    18.37,    16.85,    18.31
      108.0,      18.83,    22.12,    18.25,    16.73,    18.21
      109.0,      18.72,    21.99,    18.14,    16.62,    18.12
      110.0,      18.61,    21.85,    18.03,    16.51,    18.03
      111.0,      18.50,    21.73,    17.92,    16.40,    17.95
      112.0,      18.40,    21.60,    17.82,    16.30,    17.86
      113.0,      18.29,    21.48,    17.72,    16.20,    17.78
      114.0,      18.19,    21.36,    17.62,    16.10,    17.70
      115.0,      18.10,    21.25,    17.52,    16.00,    17.62
      116.0,      18.00,    21.14,    17.43,    15.91,    17.54
      117.0,      17.91,    21.03,    17.34,    15.81,    17.46
      118.0,      17.82,    20.92,    17.26,    15.72,    17.39
      119.0,      17.74,    20.82,    17.17,    15.63,    17.31
      120.0,      17.65,    20.72,    17.09,    15.54,    17.24
      121.0,      17.57,    20.62,    17.01,    15.46,    17.17
      122.0,      17.48,    20.53,    16.93,    15.37,    17.10
      123.0,      17.41,    20.44,    16.86,    15.29,    17.04
      124.0,      17.33,    20.35,    16.79,    15.21,    16.97
      125.0,      17.25,    20.26,    16.71,    15.13,    16.90
      126.0,      17.18,    20.17,    16.65,    15.05,    16.84
      127.0,      17.10,    20.09,    16.58,    14.97,    16.78
      128.0,      17.03,    20.01,    16.51,    14.90,    16.72
      129.0,      16.96,    19.93,    16.45,    14.82,    16.65
      130.0,      16.89,    19.85,    16.39,    14.75,    16.60
      131.0,      16.83,    19.77,    16.33,    14.68,    16.54
      132.0,      16.76,    19.70,    16.27,    14.61,    16.48
      133.0,      16.70,    19.62,    16.21,    14.54,    16.42
      134.0,      16.64,    19.55,    16.15,    14.47,    16.37
      135.0,      16.57,    19.48,    16.10,    14.40,    16.31
      136.0,      16.51,    19.41,    16.05,    14.33,    16.26
      137.0,      16.45,    19.34,    16.00,    14.27,    16.20
      138.0,      16.39,    19.28,    15.95,    14.20,    16.15
      139.0,      16.34,    19.21,    15.90,    14.14,    16.10
      140.0,      16.28,    19.15,    15.85,    14.08,    16.05
      141.0,      16.23,    19.09,    15.80,    14.02,    16.00
      142.0,      16.17,    19.03,    15.76,    13.95,    15.95
      143.0,      16.12,    18.97,    15.71,    13.89,    15.90
      144.0,      16.06,    18.91,    15.67,    13.84,    15.85
      145.0,      16.01,    18.85,    15.62,    13.78,    15.80
      146.0,      15.96,    18.79,    15.58,    13.72,    15.75
      147.0,      15.91,    18.73,    15.54,    13.66,    15.71
      148.0,      15.86,    18.68,    15.50,    13.61,    15.66
      149.0,      15.81,    18.62,    15.46,    13.55,    15.61
      150.0,      15.77,    18.57,    15.43,    13.50,    15.57
      151.0,      15.72,    18.52,    15.39,    13.44,    15.52
      152.0,      15.67,    18.47,    15.35,    13.39,    15.48
      153.0,      15.63,    18.41,    15.32,    13.33,    15.43
      154.0,      15.58,    18.36,    15.28,    13.28,    15.39
      155.0,      15.53,    18.31,    15.25,    13.23,    15.35
      156.0,      15.49,    18.27,    15.21,    13.18,    15.31
      157.0,      15.45,    18.22,    15.18,    13.13,    15.26
      158.0,      15.40,    18.17,    15.15,    13.08,    15.22
      159.0,      15.36,    18.12,    15.12,    13.03,    15.18
      160.0,      15.32,    18.07,    15.09,    12.98,    15.14
      161.0,      15.28,    18.03,    15.06,    12.93,    15.10
      162.0,      15.24,    17.98,    15.03,    12.88,    15.06
      163.0,      15.20,    17.94,    15.00,    12.83,    15.02
      164.0,      15.16,    17.89,    14.97,    12.79,    14.98
      165.0,      15.12,    17.85,    14.94,    12.74,    14.94
      166.0,      15.08,    17.81,    14.91,    12.69,    14.90
      167.0,      15.04,    17.76,    14.88,    12.65,    14.86
      168.0,      15.00,    17.72,    14.86,    12.60,    14.82
      169.0,      14.96,    17.68,    14.83,    12.56,    14.78
      170.0,      14.92,    17.64,    14.80,    12.51,    14.74
      171.0,      14.89,    17.59,    14.78,    12.47,    14.71
      172.0,      14.85,    17.55,    14.75,    12.42,    14.67
      173.0,      14.81,    17.51,    14.73,    12.38,    14.63
      174.0,      14.78,    17.47,    14.70,    12.33,    14.59
      175.0,      14.74,    17.43,    14.68,    12.29,    14.56
      176.0,      14.70,    17.39,    14.66,    12.25,    14.52
      177.0,      14.67,    17.35,    14.63,    12.21,    14.48
      178.0,      14.63,    17.31,    14.61,    12.16,    14.45
      179.0,      14.60,    17.27,    14.59,    12.12,    14.41
      180.0,      14.56,    17.24,    14.56,    12.08,    14.37
      181.0,      14.53,    17.20,    14.54,    12.04,    14.34
      182.0,      14.50,    17.16,    14.52,    12.00,    14.30
      183.0,      14.46,    17.12,    14.50,    11.96,    14.27
      184.0,      14.43,    17.08,    14.48,    11.92,    14.23
      185.0,      14.39,    17.05,    14.46,    11.87,    14.20
      186.0,      14.36,    17.01,    14.44,    11.83,    14.16
      187.0,      14.33,    16.97,    14.41,    11.79,    14.13
      188.0,      14.30,    16.94,    14.39,    11.76,    14.09
      189.0,      14.26,    16.90,    14.37,    11.72,    14.06
      190.0,      14.23,    16.87,    14.35,    11.68,    14.03
      191.0,      14.20,    16.83,    14.33,    11.64,    13.99
      192.0,      14.17,    16.79,    14.32,    11.60,    13.96
      193.0,      14.13,    16.76,    14.30,    11.56,    13.92
      194.0,      14.10,    16.72,    14.28,    11.52,    13.89
      195.0,      14.07,    16.69,    14.26,    11.48,    13.86
      196.0,      14.04,    16.65,    14.24,    11.45,    13.82
      197.0,      14.01,    16.62,    14.22,    11.41,    13.79
      198.0,      13.98,    16.59,    14.20,    11.37,    13.76
      199.0,      13.95,    16.55,    14.18,    11.33,    13.72
      200.0,      13.92,    16.52,    14.17,    11.30,    13.69
      201.0,      13.89,    16.48,    14.15,    11.26,    13.66
      202.0,      13.86,    16.45,    14.13,    11.22,    13.63
      203.0,      13.83,    16.42,    14.11,    11.19,    13.59
      204.0,      13.80,    16.38,    14.09,    11.15,    13.56
      205.0,      13.77,    16.35,    14.08,    11.12,    13.53
      206.0,      13.74,    16.32,    14.06,    11.08,    13.50
      207.0,      13.71,    16.28,    14.04,    11.04,    13.47
      208.0,      13.68,    16.25,    14.03,    11.01,    13.43
      209.0,      13.65,    16.22,    14.01,    10.97,    13.40
      210.0,      13.62,    16.18,    13.99,    10.94,    13.37
      211.0,      13.59,    16.15,    13.98,    10.90,    13.34
      212.0,      13.56,    16.12,    13.96,    10.87,    13.31
      213.0,      13.54,    16.09,    13.94,    10.83,    13.28
      214.0,      13.51,    16.06,    13.93,    10.80,    13.25
      215.0,      13.48,    16.02,    13.91,    10.76,    13.21
      216.0,      13.45,    15.99,    13.89,    10.73,    13.18
      217.0,      13.42,    15.96,    13.88,    10.70,    13.15
      218.0,      13.39,    15.93,    13.86,    10.66,    13.12
      219.0,      13.37,    15.90,    13.85,    10.63,    13.09
      220.0,      13.34,    15.87,    13.83,    10.59,    13.06
      221.0,      13.31,    15.83,    13.81,    10.56,    13.03
      222.0,      13.28,    15.80,    13.80,    10.53,    13.00
      223.0,      13.25,    15.77,    13.78,    10.49,    12.97
      224.0,      13.23,    15.74,    13.77,    10.46,    12.94
      225.0,      13.20,    15.71,    13.75,    10.43,    12.91
      226.0,      13.17,    15.68,    13.74,    10.39,    12.88
      227.0,      13.15,    15.65,    13.72,    10.36,    12.85
      228.0,      13.12,    15.62,    13.71,    10.33,    12.82
      229.0,      13.09,    15.59,    13.69,    10.30,    12.79
      230.0,      13.06,    15.56,    13.68,    10.26,    12.76
      231.0,      13.04,    15.53,    13.66,    10.23,    12.73
      232.0,      13.01,    15.50,    13.65,    10.20,    12.70
      233.0,      12.98,    15.46,    13.63,    10.17,    12.67
      234.0,      12.96,    15.43,    13.62,    10.14,    12.64
      235.0,      12.93,    15.40,    13.60,    10.10,    12.61
      236.0,      12.90,    15.37,    13.59,    10.07,    12.58
      237.0,      12.88,    15.34,    13.57,    10.04,    12.55
      238.0,      12.85,    15.31,    13.56,    10.01,    12.53
      239.0,      12.83,    15.29,    13.54,     9.98,    12.50
      240.0,      12.80,    15.26,    13.53,     9.95,    12.47
      241.0,      12.77,    15.23,    13.52,     9.92,    12.44
      242.0,      12.75,    15.20,    13.50,     9.89,    12.41
      243.0,      12.72,    15.17,    13.49,     9.85,    12.38
      244.0,      12.70,    15.14,    13.47,     9.82,    12.35
      245.0,      12.67,    15.11,    13.46,     9.79,    12.32
      246.0,      12.65,    15.08,    13.44,     9.76,    12.30
      247.0,      12.62,    15.05,    13.43,     9.73,    12.27
      248.0,      12.59,    15.02,    13.42,     9.70,    12.24
      249.0,      12.57,    14.99,    13.40,     9.67,    12.21
      250.0,      12.54,    14.96,    13.39,     9.64,    12.18
      251.0,      12.52,    14.93,    13.37,     9.61,    12.15
      252.0,      12.49,    14.90,    13.36,     9.58,    12.13
      253.0,      12.47,    14.88,    13.34,     9.55,    12.10
      254.0,      12.44,    14.85,    13.33,     9.52,    12.07
      255.0,      12.42,    14.82,    13.32,     9.49,    12.04
      256.0,      12.39,    14.79,    13.30,     9.46,    12.02
      257.0,      12.37,    14.76,    13.29,     9.43,    11.99
      258.0,      12.34,    14.73,    13.28,     9.40,    11.96
      259.0,      12.32,    14.70,    13.26,     9.37,    11.93
      260.0,      12.29,    14.68,    13.25,     9.35,    11.91
      261.0,      12.27,    14.65,    13.23,     9.32,    11.88
      262.0,      12.24,    14.62,    13.22,     9.29,    11.85
      263.0,      12.22,    14.59,    13.21,     9.26,    11.82
      264.0,      12.20,    14.56,    13.19,     9.23,    11.80
      265.0,      12.17,    14.54,    13.18,     9.20,    11.77
      266.0,      12.15,    14.51,    13.17,     9.17,    11.74
      267.0,      12.12,    14.48,    13.15,     9.15,    11.71
      268.0,      12.10,    14.45,    13.14,     9.12,    11.69
      269.0,      12.07,    14.42,    13.13,     9.09,    11.66
      270.0,      12.05,    14.40,    13.11,     9.06,    11.63
      271.0,      12.03,    14.37,    13.10,     9.03,    11.61
      272.0,      12.00,    14.34,    13.09,     9.00,    11.58
      273.0,      11.98,    14.31,    13.07,     8.98,    11.55
      274.0,      11.96,    14.29,    13.06,     8.95,    11.53
      275.0,      11.93,    14.26,    13.05,     8.92,    11.50
      276.0,      11.91,    14.23,    13.03,     8.89,    11.47
      277.0,      11.88,    14.20,    13.02,     8.87,    11.45
      278.0,      11.86,    14.18,    13.01,     8.84,    11.42
      279.0,      11.84,    14.15,    12.99,     8.81,    11.40
      280.0,      11.81,    14.12,    12.98,     8.78,    11.37
      281.0,      11.79,    14.10,    12.97,     8.76,    11.34
      282.0,      11.77,    14.07,    12.95,     8.73,    11.32
      283.0,      11.74,    14.04,    12.94,     8.70,    11.29
      284.0,      11.72,    14.02,    12.93,     8.68,    11.27
      285.0,      11.70,    13.99,    12.91,     8.65,    11.24
      286.0,      11.67,    13.96,    12.90,     8.62,    11.21
      287.0,      11.65,    13.93,    12.89,     8.60,    11.19
      288.0,      11.63,    13.91,    12.87,     8.57,    11.16
      289.0,      11.61,    13.88,    12.86,     8.54,    11.14
      290.0,      11.58,    13.85,    12.85,     8.52,    11.11
      291.0,      11.56,    13.83,    12.84,     8.49,    11.09
      292.0,      11.54,    13.80,    12.82,     8.46,    11.06
      293.0,      11.51,    13.78,    12.81,     8.44,    11.04
      294.0,      11.49,    13.75,    12.80,     8.41,    11.01
      295.0,      11.47,    13.72,    12.78,     8.39,    10.98
      296.0,      11.45,    13.70,    12.77,     8.36,    10.96
      297.0,      11.42,    13.67,    12.76,     8.33,    10.93
      298.0,      11.40,    13.64,    12.74,     8.31,    10.91
      299.0,      11.38,    13.62,    12.73,     8.28,    10.88
      300.0,      11.36,    13.59,    12.72,     8.26,    10.86
      301.0,      11.33,    13.57,    12.71,     8.23,    10.83
      302.0,      11.31,    13.54,    12.69,     8.21,    10.81
      303.0,      11.29,    13.51,    12.68,     8.18,    10.79
      304.0,      11.27,    13.49,    12.67,     8.16,    10.76
      305.0,      11.25,    13.46,    12.65,     8.13,    10.74
      306.0,      11.22,    13.44,    12.64,     8.11,    10.71
      307.0,      11.20,    13.41,    12.63,     8.08,    10.69
      308.0,      11.18,    13.39,    12.62,     8.06,    10.66
      309.0,      11.16,    13.36,    12.60,     8.03,    10.64
      310.0,      11.14,    13.33,    12.59,     8.01,    10.61
