Radius (km), Mean (m/s), NE (m/s), SE (m/s), SW (m/s), NW (m/s)
        0.0,       0.00,     0.00,     0.00,     0.00,     0.00
        1.0,       1.85,     1.87,     1.87,     1.87,     1.79
        2.0,       3.13,     3.15,     3.15,     3.15,     3.07
        3.0,       4.26,     4.28,     4.28,     4.28,     4.21
        4.0,       5.30,     5.32,     5.32,     5.32,     5.26
        5.0,       6.28,     6.29,     6.29,     6.29,     6.26
        6.0,       7.22,     7.22,     7.22,     7.22,     7.21
        7.0,       8.12,     8.11,     8.11,     8.11,     8.13
        8.0,       8.98,     8.97,     8.97,     8.97,     9.02
        9.0,       9.83,     9.80,     9.80,     9.80,     9.89
       10.0,      10.64,    10.61,    10.61,    10.61,    10.74
       11.0,      11.45,    11.41,    11.41,    11.41,    11.56
       12.0,      12.23,    12.18,    12.18,    12.18,    12.37
       13.0,      13.00,    12.94,    12.94,    12.94,    13.17
       14.0,      13.75,    13.68,    13.68,    13.68,    13.95
       15.0,      14.49,    14.41,    14.41,    14.41,    14.72
       16.0,      15.22,    15.13,    15.13,    15.13,    15.48
       17.0,      15.94,    15.84,    15.84,    15.84,    16.23
       18.0,      16.65,    16.54,    16.54,    16.54,    16.96
       19.0,      17.35,    17.23,    17.23,    17.23,    17.69
       20.0,      18.04,    17.91,    17.91,    17.91,    18.41
       21.0,      18.72,    18.58,    18.58,    18.58,    19.13
       22.0,      19.39,    19.25,    19.25,    19.25,    19.83
       23.0,      20.06,    19.90,    19.90,    19.90,    20.53
       24.0,      20.72,    20.55,    20.55,    20.55,    21.22
       25.0,      21.37,    21.20,    21.20,    21.20,    21.91
       26.0,      22.02,    21.83,    21.83,    21.83,    22.59
       27.0,      22.66,    22.46,    22.46,    22.46,    23.26
       28.0,      23.30,    23.09,    23.09,    23.09,    23.93
       29.0,      23.93,    23.71,    23.71,    23.71,    24.59
       30.0,      24.55,    24.32,    24.32,    24.32,    25.25
       31.0,      25.18,    24.94,    24.94,    24.93,    25.91
       32.0,      25.82,    25.57,    25.56,    25.55,    26.58
       33.0,      26.49,    26.24,    26.22,    26.20,    27.29
       34.0,      27.22,    26.99,    26.93,    26.89,    28.08
       35.0,      28.02,    27.81,    27.69,    27.64,    28.95
       36.0,      28.90,    28.72,    28.52,    28.45,    29.90
       37.0,      29.82,    29.68,    29.38,    29.31,    30.91
       38.0,      30.76,    30.65,    30.25,    30.19,    31.94
       39.0,      31.66,    31.59,    31.09,    31.05,    32.93
       40.0,      32.49,    32.43,    31.86,    31.84,    33.83
       41.0,      33.19,    33.12,    32.52,    32.53,    34.58
       42.0,      33.73,    33.64,    33.05,    33.08,    35.14
       43.0,      34.09,    33.95,    33.43,    33.47,    35.50
       44.0,      34.28,    34.07,    33.67,    33.71,    35.66
       45.0,      34.31,    34.02,    33.77,    33.80,    35.64
       46.0,      34.21,    33.83,    33.76,    33.77,    35.47
       47.0,      34.02,    33.54,    33.68,    33.66,    35.19
       48.0,      33.77,    33.19,    33.56,    33.48,    34.86
       49.0,      33.51,    32.82,    33.42,    33.29,    34.50
       50.0,      33.24,    32.46,    33.27,    33.09,    34.15
       51.0,      32.99,    32.12,    33.13,    32.90,    33.82
       52.0,      32.76,    31.80,    33.00,    32.72,    33.50
       53.0,      32.53,    31.50,    32.88,    32.55,    33.21
       54.0,      32.32,    31.20,    32.77,    32.39,    32.92
       55.0,      32.11,    30.92,    32.65,    32.23,    32.65
       56.0,      31.91,    30.65,    32.54,    32.08,    32.38
       57.0,      31.71,    30.38,    32.43,    31.93,    32.12
       58.0,      31.53,    30.13,    32.32,    31.78,    31.87
       59.0,      31.34,    29.88,    32.21,    31.64,    31.63
       60.0,      31.16,    29.65,    32.11,    31.50,    31.40
       61.0,      30.99,    29.42,    32.01,    31.36,    31.17
       62.0,      30.82,    29.19,    31.91,    31.23,    30.95
       63.0,      30.66,    28.98,    31.81,    31.10,    30.74
       64.0,      30.50,    28.77,    31.71,    30.97,    30.54
       65.0,      30.34,    28.57,    31.62,    30.85,    30.34
       66.0,      30.19,    28.37,    31.53,    30.73,    30.14
       67.0,      30.05,    28.19,    31.43,    30.61,    29.96
       68.0,      29.90,    28.00,    31.34,    30.49,    29.78
       69.0,      29.76,    27.83,    31.26,    30.37,    29.60
       70.0,      29.63,    27.66,    31.17,    30.26,    29.43
       71.0,      29.50,    27.49,    31.08,    30.15,    29.26
       72.0,      29.37,    27.33,    31.00,    30.04,    29.10
       73.0,      29.24,    27.17,    30.92,    29.94,    28.95
       74.0,      29.12,    27.02,    30.84,    29.83,    28.80
       75.0,      29.00,    26.88,    30.76,    29.73,    28.65
       76.0,      28.89,    26.73,    30.68,    29.63,    28.51
       77.0,      28.77,    26.60,    30.60,    29.53,    28.37
       78.0,      28.66,    26.46,    30.52,    29.43,    28.23
       79.0,      28.56,    26.33,    30.45,    29.34,    28.10
       80.0,      28.45,    26.21,    30.37,    29.25,    27.97
       81.0,      28.35,    26.08,    30.30,    29.15,    27.85
       82.0,      28.25,    25.96,    30.23,    29.06,    27.73
       83.0,      28.15,    25.85,    30.15,    28.97,    27.61
       84.0,      28.05,    25.74,    30.08,    28.88,    27.50
       85.0,      27.95,    25.63,    30.01,    28.80,    27.38
       86.0,      27.86,    25.52,    29.94,    28.71,    27.27
       87.0,      27.77,    25.42,    29.87,    28.63,    27.17
       88.0,      27.68,    25.31,    29.81,    28.54,    27.06
       89.0,      27.59,    25.22,    29.74,    28.46,    26.96
       90.0,      27.51,    25.12,    29.67,    28.38,    26.86
       91.0,      27.42,    25.03,    29.61,    28.30,    26.77
       92.0,      27.34,    24.94,    29.54,    28.22,    26.67
       93.0,      27.26,    24.85,    29.48,    28.14,    26.58
       94.0,      27.18,    24.76,    29.41,    28.07,    26.49
       95.0,      27.10,    24.67,    29.35,    27.99,    26.40
       96.0,      27.03,    24.59,    29.29,    27.91,    26.31
       97.0,      26.95,    24.51,    29.22,    27.84,    26.23
       98.0,      26.88,    24.43,    29.16,    27.77,    26.15
       99.0,      26.80,    24.35,    29.10,    27.69,    26.07
      100.0,      26.73,    24.28,    29.04,    27.62,    25.99
      101.0,      26.66,    24.21,    28.98,    27.55,    25.91
      102.0,      26.59,    24.13,    28.92,    27.48,    25.83
      103.0,      26.52,    24.06,    28.86,    27.41,    25.76
      104.0,      26.45,    23.99,    28.80,    27.34,    25.68
      105.0,      26.39,    23.92,    28.74,    27.27,    25.61
      106.0,      26.32,    23.86,    28.68,    27.20,    25.54
      107.0,      26.26,    23.79,    28.63,    27.14,    25.47
      108.0,      26.19,    23.73,    28.57,    27.07,    25.40
      109.0,      26.13,    23.67,    28.51,    27.00,    25.33
      110.0,      26.07,    23.60,    28.46,    26.94,    25.27
      111.0,      26.00,    23.54,    28.40,    26.87,    25.20
      112.0,      25.94,    23.48,    28.34,    26.81,    25.14
      113.0,      25.88,    23.43,    28.29,    26.74,    25.07
      114.0,      25.82,    23.37,    28.23,    26.68,    25.01
      115.0,      25.76,    23.31,    28.18,    26.62,    24.95
      116.0,      25.71,    23.26,    28.12,    26.55,    24.89
      117.0,      25.65,    23.20,    28.07,    26.49,    24.83
      118.0,      25.59,    23.15,    28.01,    26.43,    24.77
      119.0,      25.53,    23.09,    27.96,    26.37,    24.71
      120.0,      25.48,    23.04,    27.91,    26.31,    24.66
      121.0,      25.42,    22.99,    27.85,    26.24,    24.60
      122.0,      25.37,    22.94,    27.80,    26.18,    24.54
      123.0,      25.31,    22.89,    27.75,    26.12,    24.49
      124.0,      25.26,    22.84,    27.70,    26.06,    24.43
      125.0,      25.21,    22.79,    27.64,    26.00,    24.38
      126.0,      25.15,    22.74,    27.59,    25.95,    24.33
      127.0,      25.10,    22.70,    27.54,    25.89,    24.27
      128.0,      25.05,    22.65,    27.49,    25.83,    24.22
      129.0,      25.00,    22.60,    27.44,    25.77,    24.17
      130.0,      24.94,    22.56,    27.39,    25.71,    24.12
      131.0,      24.89,    22.51,    27.33,    25.66,    24.07
      132.0,      24.84,    22.47,    27.28,    25.60,    24.02
      133.0,      24.79,    22.42,    27.23,    25.54,    23.97
      134.0,      24.74,    22.38,    27.18,    25.49,    23.92
      135.0,      24.69,    22.34,    27.13,    25.43,    23.87
      136.0,      24.64,    22.29,    27.08,    25.37,    23.83
      137.0,      24.59,    22.25,    27.03,    25.32,    23.78
      138.0,      24.55,    22.21,    26.98,    25.26,    23.73
      139.0,      24.50,    22.17,    26.93,    25.21,    23.68
      140.0,      24.45,    22.13,    26.88,    25.15,    23.64
      141.0,      24.40,    22.09,    26.83,    25.10,    23.59
      142.0,      24.35,    22.05,    26.79,    25.04,    23.55
      143.0,      24.31,    22.01,    26.74,    24.99,    23.50
      144.0,      24.26,    21.97,    26.69,    24.93,    23.45
      145.0,      24.21,    21.93,    26.64,    24.88,    23.41
      146.0,      24.17,    21.89,    26.59,    24.83,    23.37
      147.0,      24.12,    21.85,    26.54,    24.77,    23.32
      148.0,      24.07,    21.81,    26.49,    24.72,    23.28
      149.0,      24.03,    21.77,    26.45,    24.66,    23.23
      150.0,      23.98,    21.73,    26.40,    24.61,    23.19
      151.0,      23.94,    21.70,    26.35,    24.56,    23.15
      152.0,      23.89,    21.66,    26.30,    24.51,    23.10
      153.0,      23.85,    21.62,    26.26,    24.45,    23.06
      154.0,      23.80,    21.58,    26.21,    24.40,    23.02
      155.0,      23.76,    21.55,    26.16,    24.35,    22.98
      156.0,      23.71,    21.51,    26.11,    24.30,    22.94
      157.0,      23.67,    21.47,    26.07,    24.25,    22.89
      158.0,      23.63,    21.44,    26.02,    24.19,    22.85
      159.0,      23.58,    21.40,    25.97,    24.14,    22.81
      160.0,      23.54,    21.37,    25.93,    24.09,    22.77
      161.0,      23.50,    21.33,    25.88,    24.04,    22.73
      162.0,      23.45,    21.30,    25.83,    23.99,    22.69
      163.0,      23.41,    21.26,    25.79,    23.94,    22.65
      164.0,      23.37,    21.23,    25.74,    23.89,    22.61
      165.0,      23.32,    21.19,    25.70,    23.84,    22.57
      166.0,      23.28,    21.16,    25.65,    23.79,    22.53
      167.0,      23.24,    21.12,    25.60,    23.74,    22.49
      168.0,      23.20,    21.09,    25.56,    23.69,    22.45
      169.0,      23.15,    21.05,    25.51,    23.64,    22.41
      170.0,      23.11,    21.02,    25.47,    23.59,    22.37
      171.0,      23.07,    20.99,    25.42,    23.54,    22.33
      172.0,      23.03,    20.95,    25.38,    23.49,    22.29
      173.0,      22.99,    20.92,    25.33,    23.44,    22.25
      174.0,      22.94,    20.88,    25.29,    23.39,    22.22
      175.0,      22.90,    20.85,    25.24,    23.34,    22.18
      176.0,      22.86,    20.82,    25.20,    23.29,    22.14
      177.0,      22.82,    20.78,    25.15,    23.24,    22.10
      178.0,      22.78,    20.75,    25.11,    23.20,    22.06
      179.0,      22.74,    20.72,    25.06,    23.15,    22.03
      180.0,      22.70,    20.69,    25.02,    23.10,    21.99
      181.0,      22.66,    20.65,    24.97,    23.05,    21.95
      182.0,      22.62,    20.62,    24.93,    23.00,    21.91
      183.0,      22.58,    20.59,    24.88,    22.95,    21.87
      184.0,      22.53,    20.56,    24.84,    22.91,    21.84
      185.0,      22.49,    20.52,    24.80,    22.86,    21.80
      186.0,      22.45,    20.49,    24.75,    22.81,    21.76
      187.0,      22.41,    20.46,    24.71,    22.76,    21.73
      188.0,      22.37,    20.43,    24.66,    22.72,    21.69
      189.0,      22.33,    20.40,    24.62,    22.67,    21.65
      190.0,      22.29,    20.36,    24.58,    22.62,    21.62
      191.0,      22.25,    20.33,    24.53,    22.57,    21.58
      192.0,      22.22,    20.30,    24.49,    22.53,    21.54
      193.0,      22.18,    20.27,    24.45,    22.48,    21.51
      194.0,      22.14,    20.24,    24.40,    22.43,    21.47
      195.0,      22.10,    20.21,    24.36,    22.39,    21.43
      196.0,      22.06,    20.18,    24.32,    22.34,    21.40
      197.0,      22.02,    20.15,    24.27,    22.29,    21.36
      198.0,      21.98,    20.11,    24.23,    22.25,    21.32
      199.0,      21.94,    20.08,    24.19,    22.20,    21.29
      200.0,      21.90,    20.05,    24.15,    22.15,    21.25
      201.0,      21.86,    20.02,    24.10,    22.11,    21.22
      202.0,      21.82,    19.99,    24.06,    22.06,    21.18
      203.0,      21.79,    19.96,    24.02,    22.02,    21.15
      204.0,      21.75,    19.93,    23.98,    21.97,    21.11
      205.0,      21.71,    19.90,    23.93,    21.93,    21.08
      206.0,      21.67,    19.87,    23.89,    21.88,    21.04
      207.0,      21.63,    19.84,    23.85,    21.83,    21.01
      208.0,      21.59,    19.81,    23.81,    21.79,    20.97
      209.0,      21.55,    19.78,    23.76,    21.74,    20.93
      210.0,      21.52,    19.75,    23.72,    21.70,    20.90
      211.0,      21.48,    19.72,    23.68,    21.65,    20.86
      212.0,      21.44,    19.69,    23.64,    21.61,    20.83
      213.0,      21.40,    19.66,    23.60,    21.56,    20.80
      214.0,      21.37,    19.63,    23.55,    21.52,    20.76
      215.0,      21.33,    19.60,    23.51,    21.47,    20.73
      216.0,      21.29,    19.57,    23.47,    21.43,    20.69
      217.0,      21.25,    19.54,    23.43,    21.39,    20.66
      218.0,      21.22,    19.51,    23.39,    21.34,    20.62
      219.0,      21.18,    19.48,    23.35,    21.30,    20.59
      220.0,      21.14,    19.45,    23.31,    21.25,    20.55
      221.0,      21.10,    19.42,    23.27,    21.21,    20.52
      222.0,      21.07,    19.39,    23.22,    21.17,    20.49
      223.0,      21.03,    19.36,    23.18,    21.12,    20.45
      224.0,      20.99,    19.33,    23.14,    21.08,    20.42
      225.0,      20.96,    19.30,    23.10,    21.03,    20.38
      226.0,      20.92,    19.27,    23.06,    20.99,    20.35
      227.0,      20.88,    19.24,    23.02,    20.95,    20.32
      228.0,      20.84,    19.21,    22.98,    20.90,    20.28
      229.0,      20.81,    19.18,    22.94,    20.86,    20.25
      230.0,      20.77,    19.16,    22.90,    20.82,    20.21
      231.0,      20.74,    19.13,    22.86,    20.77,    20.18
      232.0,      20.70,    19.10,    22.82,    20.73,    20.15
      233.0,      20.66,    19.07,    22.78,    20.69,    20.11
      234.0,      20.63,    19.04,    22.74,    20.65,    20.08
      235.0,      20.59,    19.01,    22.70,    20.60,    20.05
      236.0,      20.55,    18.98,    22.66,    20.56,    20.01
      237.0,      20.52,    18.95,    22.62,    20.52,    19.98
      238.0,      20.48,    18.92,    22.58,    20.48,    19.95
      239.0,      20.45,    18.90,    22.54,    20.43,    19.92
      240.0,      20.41,    18.87,    22.50,    20.39,    19.88
      241.0,      20.37,    18.84,    22.46,    20.35,    19.85
      242.0,      20.34,    18.81,    22.42,    20.31,    19.82
      243.0,      20.30,    18.78,    22.38,    20.26,    19.78
      244.0,      20.27,    18.75,    22.34,    20.22,    19.75
      245.0,      20.23,    18.73,    22.30,    20.18,    19.72
      246.0,      20.20,    18.70,    22.26,    20.14,    19.69
      247.0,      20.16,    18.67,    22.22,    20.10,    19.65
      248.0,      20.12,    18.64,    22.18,    20.06,    19.62
      249.0,      20.09,    18.61,    22.14,    20.01,    19.59
      250.0,      20.05,    18.58,    22.10,    19.97,    19.56
      251.0,      20.02,    18.56,    22.07,    19.93,    19.52
      252.0,      19.98,    18.53,    22.03,    19.89,    19.49
      253.0,      19.95,    18.50,    21.99,    19.85,    19.46
      254.0,      19.91,    18.47,    21.95,    19.81,    19.43
      255.0,      19.88,    18.44,    21.91,    19.77,    19.39
      256.0,      19.84,    18.42,    21.87,    19.73,    19.36
      257.0,      19.81,    18.39,    21.83,    19.69,    19.33
      258.0,      19.77,    18.36,    21.79,    19.65,    19.30
      259.0,      19.74,    18.33,    21.76,    19.60,    19.27
      260.0,      19.71,    18.31,    21.72,    19.56,    19.23
      261.0,      19.67,    18.28,    21.68,    19.52,    19.20
      262.0,      19.64,    18.25,    21.64,    19.48,    19.17
      263.0,      19.60,    18.22,    21.60,    19.44,    19.14
      264.0,      19.57,    18.20,    21.57,    19.40,    19.11
      265.0,      19.53,    18.17,    21.53,    19.36,    19.08
      266.0,      19.50,    18.14,    21.49,    19.32,    19.04
      267.0,      19.47,    18.11,    21.45,    19.28,    19.01
      268.0,      19.43,    18.09,    21.41,    19.24,    18.98
      269.0,      19.40,    18.06,    21.38,    19.20,    18.95
      270.0,      19.36,    18.03,    21.34,    19.16,    18.92
      271.0,      19.33,    18.01,    21.30,    19.12,    18.89
      272.0,      19.30,    17.98,    21.26,    19.08,    18.86
      273.0,      19.26,    17.95,    21.23,    19.04,    18.83
      274.0,      19.23,    17.92,    21.19,    19.01,    18.79
      275.0,      19.19,    17.90,    21.15,    18.97,    18.76
      276.0,      19.16,    17.87,    21.11,    18.93,    18.73
      277.0,      19.13,    17.84,    21.08,    18.89,    18.70
      278.0,      19.09,    17.82,    21.04,    18.85,    18.67
      279.0,      19.06,    17.79,    21.00,    18.81,    18.64
      280.0,      19.03,    17.76,    20.97,    18.77,    18.61
      281.0,      18.99,    17.74,    20.93,    18.73,    18.58
      282.0,      18.96,    17.71,    20.89,    18.69,    18.55
      283.0,      18.93,    17.68,    20.85,    18.66,    18.52
      284.0,      18.89,    17.66,    20.82,    18.62,    18.49
      285.0,      18.86,    17.63,    20.78,    18.58,    18.46
      286.0,      18.83,    17.60,    20.74,    18.54,    18.42
      287.0,      18.80,    17.58,    20.71,    18.50,    18.39
      288.0,      18.76,    17.55,    20.67,    18.46,    18.36
      289.0,      18.73,    17.52,    20.64,    18.42,    18.33
      290.0,      18.70,    17.50,    20.60,    18.39,    18.30
      291.0,      18.66,    17.47,    20.56,    18.35,    18.27
      292.0,      18.63,    17.44,    20.53,    18.31,    18.24
      293.0,      18.60,    17.42,    20.49,    18.27,    18.21
      294.0,      18.57,    17.39,    20.45,    18.24,    18.18
      295.0,      18.53,    17.37,    20.42,    18.20,    18.15
      296.0,      18.50,    17.34,    20.38,    18.16,    18.12
      297.0,      18.47,    17.31,    20.35,    18.12,    18.09
      298.0,      18.44,    17.29,    20.31,    18.09,    18.06
      299.0,      18.40,    17.26,    20.27,    18.05,    18.03
      300.0,      18.37,    17.24,    20.24,    18.01,    18.00
      301.0,      18.34,    17.21,    20.20,    17.97,    17.97
      302.0,      18.31,    17.18,    20.17,    17.94,    17.94
      303.0,      18.28,    17.16,    20.13,    17.90,    17.91
      304.0,      18.24,    17.13,    20.10,    17.86,    17.89
      305.0,      18.21,    17.11,    20.06,    17.83,    17.86
      306.0,      18.18,    17.08,    20.03,    17.79,    17.83
      307.0,      18.15,    17.06,    19.99,    17.75,    17.80
      308.0,      18.12,    17.03,    19.96,    17.72,    17.77
      309.0,      18.09,    17.00,    19.92,    17.68,    17.74
      310.0,      18.05,    16.98,    19.89,    17.64,    17.71
