Radius (km), Mean (m/s), NE (m/s), SE (m/s), SW (m/s), NW (m/s)
        0.0,       0.00,     0.00,     0.00,     0.00,     0.00
        1.0,       1.29,     1.13,     1.39,     1.39,     1.26
        2.0,       2.31,     2.11,     2.43,     2.43,     2.27
        3.0,       3.25,     3.05,     3.38,     3.38,     3.22
        4.0,       4.15,     3.95,     4.27,     4.27,     4.12
        5.0,       5.01,     4.83,     5.11,     5.11,     4.98
        6.0,       5.84,     5.69,     5.93,     5.93,     5.83
        7.0,       6.66,     6.54,     6.72,     6.72,     6.65
        8.0,       7.45,     7.38,     7.49,     7.49,     7.45
        9.0,       8.23,     8.20,     8.24,     8.24,     8.25
       10.0,       9.00,     9.02,     8.97,     8.97,     9.03
       11.0,       9.75,     9.83,     9.69,     9.69,     9.79
       12.0,      10.50,    10.63,    10.40,    10.40,    10.55
       13.0,      11.23,    11.43,    11.10,    11.10,    11.30
       14.0,      11.96,    12.22,    11.79,    11.79,    12.04
       15.0,      12.68,    13.00,    12.47,    12.47,    12.77
       16.0,      13.39,    13.78,    13.14,    13.14,    13.50
       17.0,      14.09,    14.56,    13.80,    13.80,    14.22
       18.0,      14.79,    15.33,    14.45,    14.45,    14.93
       19.0,      15.48,    16.09,    15.10,    15.10,    15.64
       20.0,      16.17,    16.86,    15.74,    15.74,    16.34
       21.0,      16.85,    17.61,    16.38,    16.38,    17.04
       22.0,      17.53,    18.37,    17.01,    17.01,    17.73
       23.0,      18.20,    19.12,    17.63,    17.63,    18.42
       24.0,      18.87,    19.87,    18.25,    18.25,    19.11
       25.0,      19.53,    20.61,    18.87,    18.87,    19.79
       26.0,      20.19,    21.36,    19.48,    19.48,    20.46
       27.0,      20.85,    22.10,    20.08,    20.08,    21.13
       28.0,      21.50,    22.83,    20.69,    20.69,    21.80
       29.0,      22.15,    23.57,    21.28,    21.28,    22.47
       30.0,      22.80,    24.30,    21.88,    21.88,    23.13
       31.0,      23.44,    25.03,    22.47,    22.47,    23.79
       32.0,      24.08,    25.75,    23.05,    23.05,    24.45
       33.0,      24.71,    26.48,    23.64,    23.64,    25.10
       34.0,      25.35,    27.20,    24.22,    24.22,    25.75
       35.0,      25.98,    27.92,    24.79,    24.79,    26.40
       36.0,      26.60,    28.64,    25.37,    25.37,    27.04
       37.0,      27.23,    29.36,    25.94,    25.94,    27.68
       38.0,      27.85,    30.07,    26.50,    26.50,    28.32
       39.0,      28.47,    30.78,    27.07,    27.07,    28.96
       40.0,      29.09,    31.50,    27.63,    27.63,    29.59
       41.0,      29.70,    32.21,    28.19,    28.19,    30.23
       42.0,      30.33,    32.93,    28.75,    28.75,    30.88
       43.0,      30.98,    33.70,    29.34,    29.32,    31.56
       44.0,      31.68,    34.53,    29.96,    29.93,    32.29
       45.0,      32.44,    35.46,    30.64,    30.60,    33.08
       46.0,      33.28,    36.48,    31.37,    31.32,    33.95
       47.0,      34.17,    37.57,    32.14,    32.10,    34.86
       48.0,      35.08,    38.69,    32.93,    32.91,    35.78
       49.0,      35.97,    39.78,    33.70,    33.71,    36.68
       50.0,      36.78,    40.76,    34.42,    34.46,    37.49
       51.0,      37.48,    41.58,    35.04,    35.10,    38.18
       52.0,      38.01,    42.17,    35.53,    35.62,    38.72
       53.0,      38.36,    42.53,    35.87,    35.96,    39.07
       54.0,      38.52,    42.63,    36.05,    36.13,    39.25
       55.0,      38.50,    42.51,    36.10,    36.13,    39.27
       56.0,      38.34,    42.21,    36.02,    35.99,    39.15
       57.0,      38.08,    41.77,    35.86,    35.74,    38.94
       58.0,      37.75,    41.27,    35.65,    35.42,    38.68
       59.0,      37.40,    40.73,    35.41,    35.06,    38.39
       60.0,      37.05,    40.21,    35.18,    34.71,    38.10
       61.0,      36.72,    39.72,    34.95,    34.36,    37.83
       62.0,      36.41,    39.26,    34.75,    34.05,    37.57
       63.0,      36.11,    38.83,    34.55,    33.75,    37.33
       64.0,      35.83,    38.42,    34.37,    33.46,    37.09
       65.0,      35.56,    38.02,    34.18,    33.19,    36.85
       66.0,      35.29,    37.63,    34.00,    32.92,    36.61
       67.0,      35.03,    37.26,    33.83,    32.66,    36.38
       68.0,      34.78,    36.89,    33.66,    32.40,    36.15
       69.0,      34.53,    36.54,    33.49,    32.15,    35.93
       70.0,      34.28,    36.20,    33.32,    31.90,    35.70
       71.0,      34.04,    35.87,    33.16,    31.66,    35.48
       72.0,      33.81,    35.55,    33.00,    31.43,    35.27
       73.0,      33.58,    35.24,    32.84,    31.20,    35.05
       74.0,      33.36,    34.94,    32.68,    30.97,    34.84
       75.0,      33.14,    34.65,    32.53,    30.75,    34.63
       76.0,      32.93,    34.37,    32.38,    30.54,    34.42
       77.0,      32.72,    34.09,    32.23,    30.32,    34.21
       78.0,      32.51,    33.83,    32.09,    30.12,    34.01
       79.0,      32.31,    33.57,    31.94,    29.91,    33.81
       80.0,      32.11,    33.31,    31.80,    29.71,    33.61
       81.0,      31.92,    33.07,    31.66,    29.52,    33.42
       82.0,      31.73,    32.83,    31.53,    29.33,    33.22
       83.0,      31.54,    32.60,    31.39,    29.14,    33.03
       84.0,      31.36,    32.37,    31.26,    28.96,    32.84
       85.0,      31.18,    32.15,    31.13,    28.78,    32.66
       86.0,      31.00,    31.94,    31.00,    28.60,    32.47
       87.0,      30.83,    31.73,    30.87,    28.42,    32.29
       88.0,      30.66,    31.53,    30.74,    28.25,    32.11
       89.0,      30.49,    31.33,    30.62,    28.09,    31.93
       90.0,      30.33,    31.14,    30.50,    27.92,    31.75
       91.0,      30.17,    30.95,    30.38,    27.76,    31.58
       92.0,      30.01,    30.76,    30.25,    27.60,    31.41
       93.0,      29.85,    30.59,    30.14,    27.44,    31.24
       94.0,      29.70,    30.41,    30.02,    27.29,    31.07
       95.0,      29.55,    30.24,    29.90,    27.14,    30.90
       96.0,      29.40,    30.07,    29.79,    26.99,    30.74
       97.0,      29.25,    29.91,    29.67,    26.84,    30.58
       98.0,      29.11,    29.75,    29.56,    26.70,    30.42
       99.0,      28.96,    29.59,    29.45,    26.56,    30.26
      100.0,      28.82,    29.44,    29.34,    26.42,    30.10
      101.0,      28.69,    29.29,    29.23,    26.28,    29.94
      102.0,      28.55,    29.15,    29.12,    26.15,    29.79
      103.0,      28.42,    29.00,    29.01,    26.01,    29.64
      104.0,      28.29,    28.86,    28.91,    25.88,    29.49
      105.0,      28.16,    28.73,    28.80,    25.75,    29.34
      106.0,      28.03,    28.59,    28.70,    25.62,    29.19
      107.0,      27.90,    28.46,    28.60,    25.50,    29.05
      108.0,      27.78,    28.33,    28.49,    25.37,    28.90
      109.0,      27.65,    28.20,    28.39,    25.25,    28.76
      110.0,      27.53,    28.08,    28.29,    25.13,    28.62
      111.0,      27.41,    27.96,    28.19,    25.01,    28.48
      112.0,      27.29,    27.84,    28.09,    24.89,    28.34
      113.0,      27.17,    27.72,    27.99,    24.78,    28.21
      114.0,      27.06,    27.60,    27.90,    24.66,    28.07
      115.0,      26.94,    27.49,    27.80,    24.55,    27.94
      116.0,      26.83,    27.38,    27.70,    24.44,    27.81
      117.0,      26.72,    27.27,    27.61,    24.33,    27.68
      118.0,      26.61,    27.16,    27.51,    24.22,    27.55
      119.0,      26.50,    27.05,    27.42,    24.11,    27.42
      120.0,      26.39,    26.94,    27.32,    24.00,    27.29
      121.0,      26.28,    26.84,    27.23,    23.90,    27.17
      122.0,      26.18,    26.74,    27.14,    23.79,    27.04
      123.0,      26.07,    26.64,    27.05,    23.69,    26.92
      124.0,      25.97,    26.54,    26.95,    23.59,    26.80
      125.0,      25.87,    26.44,    26.86,    23.49,    26.68
      126.0,      25.77,    26.34,    26.77,    23.39,    26.56
      127.0,      25.67,    26.25,    26.68,    23.29,    26.44
      128.0,      25.57,    26.15,    26.59,    23.19,    26.33
      129.0,      25.47,    26.06,    26.51,    23.09,    26.21
      130.0,      25.37,    25.97,    26.42,    23.00,    26.10
      131.0,      25.27,    25.88,    26.33,    22.90,    25.98
      132.0,      25.18,    25.79,    26.24,    22.81,    25.87
      133.0,      25.08,    25.70,    26.16,    22.72,    25.76
      134.0,      24.99,    25.61,    26.07,    22.62,    25.65
      135.0,      24.90,    25.52,    25.99,    22.53,    25.54
      136.0,      24.80,    25.44,    25.90,    22.44,    25.43
      137.0,      24.71,    25.35,    25.82,    22.35,    25.33
      138.0,      24.62,    25.27,    25.73,    22.26,    25.22
      139.0,      24.53,    25.19,    25.65,    22.17,    25.12
      140.0,      24.44,    25.10,    25.56,    22.09,    25.01
      141.0,      24.35,    25.02,    25.48,    22.00,    24.91
      142.0,      24.27,    24.94,    25.40,    21.91,    24.81
      143.0,      24.18,    24.86,    25.31,    21.83,    24.71
      144.0,      24.09,    24.78,    25.23,    21.74,    24.61
      145.0,      24.01,    24.70,    25.15,    21.66,    24.51
      146.0,      23.92,    24.63,    25.07,    21.58,    24.41
      147.0,      23.84,    24.55,    24.99,    21.49,    24.32
      148.0,      23.75,    24.47,    24.91,    21.41,    24.22
      149.0,      23.67,    24.40,    24.83,    21.33,    24.12
      150.0,      23.59,    24.32,    24.75,    21.25,    24.03
      151.0,      23.51,    24.25,    24.67,    21.17,    23.94
      152.0,      23.42,    24.17,    24.59,    21.09,    23.84
      153.0,      23.34,    24.10,    24.51,    21.01,    23.75
      154.0,      23.26,    24.02,    24.43,    20.93,    23.66
      155.0,      23.18,    23.95,    24.36,    20.85,    23.57
      156.0,      23.10,    23.88,    24.28,    20.77,    23.48
      157.0,      23.03,    23.81,    24.20,    20.70,    23.39
      158.0,      22.95,    23.74,    24.12,    20.62,    23.31
      159.0,      22.87,    23.67,    24.05,    20.55,    23.22
      160.0,      22.79,    23.60,    23.97,    20.47,    23.13
      161.0,      22.72,    23.53,    23.89,    20.39,    23.05
      162.0,      22.64,    23.46,    23.82,    20.32,    22.96
      163.0,      22.56,    23.39,    23.74,    20.25,    22.88
      164.0,      22.49,    23.32,    23.67,    20.17,    22.80
      165.0,      22.41,    23.25,    23.59,    20.10,    22.71
      166.0,      22.34,    23.18,    23.52,    20.03,    22.63
      167.0,      22.27,    23.12,    23.44,    19.95,    22.55
      168.0,      22.19,    23.05,    23.37,    19.88,    22.47
      169.0,      22.12,    22.98,    23.29,    19.81,    22.39
      170.0,      22.05,    22.92,    23.22,    19.74,    22.31
      171.0,      21.98,    22.85,    23.15,    19.67,    22.23
      172.0,      21.90,    22.79,    23.07,    19.60,    22.16
      173.0,      21.83,    22.72,    23.00,    19.53,    22.08
      174.0,      21.76,    22.66,    22.93,    19.46,    22.00
      175.0,      21.69,    22.59,    22.86,    19.39,    21.93
      176.0,      21.62,    22.53,    22.79,    19.32,    21.85
      177.0,      21.55,    22.46,    22.71,    19.25,    21.78
      178.0,      21.48,    22.40,    22.64,    19.18,    21.70
      179.0,      21.41,    22.34,    22.57,    19.11,    21.63
      180.0,      21.34,    22.27,    22.50,    19.05,    21.56
      181.0,      21.28,    22.21,    22.43,    18.98,    21.48
      182.0,      21.21,    22.15,    22.36,    18.91,    21.41
      183.0,      21.14,    22.09,    22.29,    18.85,    21.34
      184.0,      21.07,    22.02,    22.22,    18.78,    21.27
      185.0,      21.01,    21.96,    22.15,    18.71,    21.20
      186.0,      20.94,    21.90,    22.08,    18.65,    21.13
      187.0,      20.87,    21.84,    22.01,    18.58,    21.06
      188.0,      20.81,    21.78,    21.94,    18.52,    20.99
      189.0,      20.74,    21.72,    21.87,    18.45,    20.93
      190.0,      20.68,    21.66,    21.80,    18.39,    20.86
      191.0,      20.61,    21.60,    21.74,    18.33,    20.79
      192.0,      20.55,    21.54,    21.67,    18.26,    20.73
      193.0,      20.48,    21.48,    21.60,    18.20,    20.66
      194.0,      20.42,    21.42,    21.53,    18.14,    20.59
      195.0,      20.36,    21.36,    21.46,    18.07,    20.53
      196.0,      20.29,    21.30,    21.40,    18.01,    20.46
      197.0,      20.23,    21.24,    21.33,    17.95,    20.40
      198.0,      20.17,    21.18,    21.26,    17.89,    20.34
      199.0,      20.10,    21.13,    21.20,    17.82,    20.27
      200.0,      20.04,    21.07,    21.13,    17.76,    20.21
      201.0,      19.98,    21.01,    21.07,    17.70,    20.15
      202.0,      19.92,    20.95,    21.00,    17.64,    20.09
      203.0,      19.86,    20.89,    20.93,    17.58,    20.03
      204.0,      19.80,    20.84,    20.87,    17.52,    19.96
      205.0,      19.74,    20.78,    20.80,    17.46,    19.90
      206.0,      19.68,    20.72,    20.74,    17.40,    19.84
      207.0,      19.62,    20.67,    20.67,    17.34,    19.78
      208.0,      19.56,    20.61,    20.61,    17.28,    19.73
      209.0,      19.50,    20.55,    20.54,    17.22,    19.67
      210.0,      19.44,    20.50,    20.48,    17.16,    19.61
      211.0,      19.38,    20.44,    20.42,    17.10,    19.55
      212.0,      19.32,    20.39,    20.35,    17.04,    19.49
      213.0,      19.26,    20.33,    20.29,    16.99,    19.43
      214.0,      19.20,    20.27,    20.23,    16.93,    19.38
      215.0,      19.14,    20.22,    20.16,    16.87,    19.32
      216.0,      19.09,    20.16,    20.10,    16.81,    19.26
      217.0,      19.03,    20.11,    20.04,    16.75,    19.21
      218.0,      18.97,    20.05,    19.97,    16.70,    19.15
      219.0,      18.91,    20.00,    19.91,    16.64,    19.10
      220.0,      18.86,    19.95,    19.85,    16.58,    19.04
      221.0,      18.80,    19.89,    19.79,    16.53,    18.99
      222.0,      18.74,    19.84,    19.73,    16.47,    18.93
      223.0,      18.69,    19.78,    19.67,    16.42,    18.88
      224.0,      18.63,    19.73,    19.60,    16.36,    18.83
      225.0,      18.57,    19.68,    19.54,    16.30,    18.77
      226.0,      18.52,    19.62,    19.48,    16.25,    18.72
      227.0,      18.46,    19.57,    19.42,    16.19,    18.67
      228.0,      18.41,    19.52,    19.36,    16.14,    18.62
      229.0,      18.35,    19.46,    19.30,    16.08,    18.56
      230.0,      18.30,    19.41,    19.24,    16.03,    18.51
      231.0,      18.24,    19.36,    19.18,    15.98,    18.46
      232.0,      18.19,    19.31,    19.12,    15.92,    18.41
      233.0,      18.14,    19.25,    19.06,    15.87,    18.36
      234.0,      18.08,    19.20,    19.00,    15.81,    18.31
      235.0,      18.03,    19.15,    18.94,    15.76,    18.26
      236.0,      17.97,    19.10,    18.88,    15.71,    18.21
      237.0,      17.92,    19.05,    18.82,    15.65,    18.16
      238.0,      17.87,    19.00,    18.77,    15.60,    18.11
      239.0,      17.82,    18.94,    18.71,    15.55,    18.06
      240.0,      17.76,    18.89,    18.65,    15.50,    18.01
      241.0,      17.71,    18.84,    18.59,    15.44,    17.96
      242.0,      17.66,    18.79,    18.53,    15.39,    17.92
      243.0,      17.61,    18.74,    18.48,    15.34,    17.87
      244.0,      17.55,    18.69,    18.42,    15.29,    17.82
      245.0,      17.50,    18.64,    18.36,    15.24,    17.77
      246.0,      17.45,    18.59,    18.30,    15.18,    17.73
      247.0,      17.40,    18.54,    18.25,    15.13,    17.68
      248.0,      17.35,    18.49,    18.19,    15.08,    17.63
      249.0,      17.30,    18.44,    18.13,    15.03,    17.59
      250.0,      17.25,    18.39,    18.08,    14.98,    17.54
      251.0,      17.20,    18.34,    18.02,    14.93,    17.49
      252.0,      17.15,    18.29,    17.96,    14.88,    17.45
      253.0,      17.10,    18.24,    17.91,    14.83,    17.40
      254.0,      17.05,    18.19,    17.85,    14.78,    17.36
      255.0,      17.00,    18.14,    17.80,    14.73,    17.31
      256.0,      16.95,    18.09,    17.74,    14.68,    17.27
      257.0,      16.90,    18.04,    17.69,    14.63,    17.22
      258.0,      16.85,    18.00,    17.63,    14.58,    17.18
      259.0,      16.80,    17.95,    17.58,    14.53,    17.14
      260.0,      16.75,    17.90,    17.52,    14.48,    17.09
      261.0,      16.70,    17.85,    17.47,    14.43,    17.05
      262.0,      16.65,    17.80,    17.41,    14.39,    17.01
      263.0,      16.60,    17.76,    17.36,    14.34,    16.96
      264.0,      16.56,    17.71,    17.31,    14.29,    16.92
      265.0,      16.51,    17.66,    17.25,    14.24,    16.88
      266.0,      16.46,    17.61,    17.20,    14.19,    16.83
      267.0,      16.41,    17.56,    17.14,    14.14,    16.79
      268.0,      16.36,    17.52,    17.09,    14.10,    16.75
      269.0,      16.32,    17.47,    17.04,    14.05,    16.71
      270.0,      16.27,    17.42,    16.98,    14.00,    16.67
      271.0,      16.22,    17.38,    16.93,    13.96,    16.62
      272.0,      16.17,    17.33,    16.88,    13.91,    16.58
      273.0,      16.13,    17.28,    16.83,    13.86,    16.54
      274.0,      16.08,    17.24,    16.77,    13.82,    16.50
      275.0,      16.04,    17.19,    16.72,    13.77,    16.46
      276.0,      15.99,    17.14,    16.67,    13.72,    16.42
      277.0,      15.94,    17.10,    16.62,    13.68,    16.38
      278.0,      15.90,    17.05,    16.57,    13.63,    16.34
      279.0,      15.85,    17.01,    16.51,    13.58,    16.30
      280.0,      15.81,    16.96,    16.46,    13.54,    16.26
      281.0,      15.76,    16.91,    16.41,    13.49,    16.22
      282.0,      15.71,    16.87,    16.36,    13.45,    16.18
      283.0,      15.67,    16.82,    16.31,    13.40,    16.14
      284.0,      15.62,    16.78,    16.26,    13.36,    16.10
      285.0,      15.58,    16.73,    16.21,    13.31,    16.06
      286.0,      15.53,    16.69,    16.16,    13.27,    16.02
      287.0,      15.49,    16.64,    16.11,    13.22,    15.98
      288.0,      15.45,    16.60,    16.06,    13.18,    15.95
      289.0,      15.40,    16.55,    16.01,    13.14,    15.91
      290.0,      15.36,    16.51,    15.96,    13.09,    15.87
      291.0,      15.31,    16.46,    15.91,    13.05,    15.83
      292.0,      15.27,    16.42,    15.86,    13.00,    15.79
      293.0,      15.23,    16.38,    15.81,    12.96,    15.75
      294.0,      15.18,    16.33,    15.76,    12.92,    15.72
      295.0,      15.14,    16.29,    15.71,    12.87,    15.68
      296.0,      15.09,    16.24,    15.66,    12.83,    15.64
      297.0,      15.05,    16.20,    15.61,    12.79,    15.61
      298.0,      15.01,    16.16,    15.57,    12.74,    15.57
      299.0,      14.97,    16.11,    15.52,    12.70,    15.53
      300.0,      14.92,    16.07,    15.47,    12.66,    15.49
      301.0,      14.88,    16.03,    15.42,    12.62,    15.46
      302.0,      14.84,    15.98,    15.37,    12.57,    15.42
      303.0,      14.80,    15.94,    15.32,    12.53,    15.39
      304.0,      14.75,    15.90,    15.28,    12.49,    15.35
      305.0,      14.71,    15.86,    15.23,    12.45,    15.31
      306.0,      14.67,    15.81,    15.18,    12.41,    15.28
      307.0,      14.63,    15.77,    15.14,    12.36,    15.24
      308.0,      14.59,    15.73,    15.09,    12.32,    15.21
      309.0,      14.54,    15.69,    15.04,    12.28,    15.17
      310.0,      14.50,    15.64,    14.99,    12.24,    15.14
