Radius (km), Mean (m/s), NE (m/s), SE (m/s), SW (m/s), NW (m/s)
        0.0,       0.00,     0.00,     0.00,     0.00,     0.00
        1.0,       1.88,     1.24,     1.86,     2.24,     2.17
        2.0,       4.28,     3.31,     4.29,     4.79,     4.71
        3.0,       7.00,     5.95,     7.02,     7.54,     7.49
        4.0,      10.11,     9.21,    10.09,    10.57,    10.58
        5.0,      13.74,    13.25,    13.60,    14.00,    14.11
        6.0,      18.00,    18.23,    17.68,    17.92,    18.16
        7.0,      22.93,    24.21,    22.40,    22.36,    22.75
        8.0,      28.47,    31.13,    27.71,    27.26,    27.80
        9.0,      34.45,    38.75,    33.47,    32.44,    33.13
       10.0,      40.57,    46.71,    39.42,    37.67,    38.48
       11.0,      46.50,    54.55,    45.26,    42.65,    43.56
       12.0,      51.90,    61.79,    50.63,    47.10,    48.10
       13.0,      56.47,    67.99,    55.25,    50.79,    51.84
       14.0,      59.98,    72.85,    58.88,    53.55,    54.64
       15.0,      62.34,    76.18,    61.41,    55.33,    56.44
       16.0,      63.55,    77.98,    62.81,    56.15,    57.28
       17.0,      63.76,    78.40,    63.21,    56.14,    57.30
       18.0,      63.17,    77.71,    62.79,    55.49,    56.69
       19.0,      62.02,    76.23,    61.78,    54.41,    55.66
       20.0,      60.56,    74.31,    60.43,    53.10,    54.41
       21.0,      59.00,    72.23,    58.94,    51.72,    53.09
       22.0,      57.46,    70.18,    57.46,    50.37,    51.81
       23.0,      56.00,    68.25,    56.07,    49.10,    50.60
       24.0,      54.64,    66.44,    54.77,    47.90,    49.46
       25.0,      53.35,    64.73,    53.55,    46.76,    48.36
       26.0,      52.11,    63.09,    52.37,    45.66,    47.31
       27.0,      50.91,    61.51,    51.23,    44.60,    46.29
       28.0,      49.75,    59.98,    50.14,    43.58,    45.31
       29.0,      48.64,    58.51,    49.08,    42.60,    44.37
       30.0,      47.57,    57.10,    48.06,    41.65,    43.45
       31.0,      46.53,    55.73,    47.08,    40.74,    42.57
       32.0,      45.53,    54.42,    46.13,    39.87,    41.72
       33.0,      44.57,    53.15,    45.22,    39.02,    40.90
       34.0,      43.65,    51.93,    44.33,    38.20,    40.11
       35.0,      42.75,    50.76,    43.48,    37.42,    39.35
       36.0,      41.89,    49.62,    42.66,    36.66,    38.61
       37.0,      41.06,    48.53,    41.87,    35.93,    37.90
       38.0,      40.26,    47.48,    41.10,    35.23,    37.22
       39.0,      39.48,    46.46,    40.36,    34.55,    36.56
       40.0,      38.74,    45.49,    39.65,    33.90,    35.92
       41.0,      38.02,    44.54,    38.96,    33.27,    35.30
       42.0,      37.33,    43.63,    38.30,    32.66,    34.70
       43.0,      36.66,    42.76,    37.66,    32.08,    34.13
       44.0,      36.01,    41.91,    37.04,    31.52,    33.57
       45.0,      35.39,    41.10,    36.44,    30.97,    33.04
       46.0,      34.79,    40.31,    35.86,    30.45,    32.52
       47.0,      34.21,    39.55,    35.30,    29.94,    32.02
       48.0,      33.65,    38.82,    34.76,    29.46,    31.54
       49.0,      33.10,    38.12,    34.24,    28.99,    31.07
       50.0,      32.58,    37.44,    33.74,    28.53,    30.62
       51.0,      32.08,    36.78,    33.25,    28.10,    30.19
       52.0,      31.59,    36.15,    32.78,    27.68,    29.77
       53.0,      31.12,    35.54,    32.32,    27.27,    29.36
       54.0,      30.67,    34.95,    31.88,    26.88,    28.97
       55.0,      30.23,    34.38,    31.46,    26.50,    28.59
       56.0,      29.81,    33.83,    31.05,    26.13,    28.22
       57.0,      29.40,    33.30,    30.65,    25.78,    27.87
       58.0,      29.00,    32.79,    30.26,    25.44,    27.52
       59.0,      28.62,    32.30,    29.89,    25.11,    27.19
       60.0,      28.25,    31.82,    29.53,    24.79,    26.87
       61.0,      27.90,    31.36,    29.18,    24.49,    26.56
       62.0,      27.55,    30.92,    28.84,    24.19,    26.26
       63.0,      27.22,    30.49,    28.51,    23.90,    25.97
       64.0,      26.90,    30.07,    28.19,    23.63,    25.69
       65.0,      26.59,    29.67,    27.89,    23.36,    25.42
       66.0,      26.28,    29.28,    27.59,    23.10,    25.16
       67.0,      25.99,    28.91,    27.30,    22.86,    24.91
       68.0,      25.71,    28.55,    27.02,    22.62,    24.66
       69.0,      25.44,    28.20,    26.75,    22.38,    24.42
       70.0,      25.17,    27.86,    26.48,    22.16,    24.19
       71.0,      24.92,    27.53,    26.23,    21.94,    23.97
       72.0,      24.67,    27.22,    25.98,    21.73,    23.76
       73.0,      24.43,    26.91,    25.74,    21.53,    23.55
       74.0,      24.20,    26.61,    25.51,    21.33,    23.34
       75.0,      23.97,    26.33,    25.28,    21.14,    23.15
       76.0,      23.76,    26.05,    25.06,    20.96,    22.96
       77.0,      23.54,    25.78,    24.84,    20.78,    22.77
       78.0,      23.34,    25.52,    24.64,    20.61,    22.59
       79.0,      23.14,    25.27,    24.43,    20.44,    22.42
       80.0,      22.95,    25.03,    24.24,    20.28,    22.25
       81.0,      22.76,    24.79,    24.05,    20.12,    22.09
       82.0,      22.58,    24.56,    23.86,    19.97,    21.93
       83.0,      22.41,    24.34,    23.68,    19.82,    21.78
       84.0,      22.23,    24.12,    23.50,    19.68,    21.63
       85.0,      22.07,    23.92,    23.33,    19.54,    21.48
       86.0,      21.91,    23.71,    23.17,    19.41,    21.34
       87.0,      21.75,    23.52,    23.00,    19.28,    21.21
       88.0,      21.60,    23.33,    22.84,    19.15,    21.08
       89.0,      21.45,    23.14,    22.69,    19.03,    20.95
       90.0,      21.31,    22.96,    22.54,    18.91,    20.82
       91.0,      21.17,    22.79,    22.39,    18.80,    20.70
       92.0,      21.04,    22.62,    22.25,    18.69,    20.58
       93.0,      20.90,    22.46,    22.11,    18.58,    20.47
       94.0,      20.78,    22.30,    21.97,    18.47,    20.36
       95.0,      20.65,    22.14,    21.84,    18.37,    20.25
       96.0,      20.53,    21.99,    21.71,    18.27,    20.14
       97.0,      20.41,    21.85,    21.58,    18.18,    20.04
       98.0,      20.30,    21.71,    21.46,    18.08,    19.94
       99.0,      20.18,    21.57,    21.34,    17.99,    19.84
      100.0,      20.07,    21.43,    21.22,    17.90,    19.75
      101.0,      19.97,    21.30,    21.10,    17.81,    19.65
      102.0,      19.86,    21.17,    20.99,    17.73,    19.56
      103.0,      19.76,    21.05,    20.88,    17.65,    19.47
      104.0,      19.66,    20.93,    20.77,    17.57,    19.39
      105.0,      19.57,    20.81,    20.66,    17.49,    19.30
      106.0,      19.47,    20.69,    20.56,    17.41,    19.22
      107.0,      19.38,    20.58,    20.46,    17.34,    19.14
      108.0,      19.29,    20.47,    20.36,    17.27,    19.06
      109.0,      19.20,    20.37,    20.26,    17.20,    18.99
      110.0,      19.12,    20.26,    20.16,    17.13,    18.91
      111.0,      19.03,    20.16,    20.07,    17.06,    18.84
      112.0,      18.95,    20.06,    19.97,    17.00,    18.77
      113.0,      18.87,    19.96,    19.88,    16.93,    18.70
      114.0,      18.79,    19.87,    19.79,    16.87,    18.63
      115.0,      18.71,    19.77,    19.70,    16.81,    18.57
      116.0,      18.64,    19.68,    19.62,    16.75,    18.50
      117.0,      18.56,    19.59,    19.53,    16.69,    18.44
      118.0,      18.49,    19.51,    19.45,    16.63,    18.37
      119.0,      18.42,    19.42,    19.37,    16.58,    18.31
      120.0,      18.35,    19.34,    19.29,    16.52,    18.25
      121.0,      18.28,    19.26,    19.21,    16.47,    18.19
      122.0,      18.21,    19.18,    19.13,    16.42,    18.14
      123.0,      18.15,    19.10,    19.05,    16.36,    18.08
      124.0,      18.08,    19.02,    18.97,    16.31,    18.02
      125.0,      18.02,    18.95,    18.90,    16.26,    17.97
      126.0,      17.96,    18.87,    18.82,    16.21,    17.92
      127.0,      17.90,    18.80,    18.75,    16.17,    17.86
      128.0,      17.83,    18.73,    18.68,    16.12,    17.81
      129.0,      17.78,    18.66,    18.61,    16.07,    17.76
      130.0,      17.72,    18.59,    18.54,    16.03,    17.71
      131.0,      17.66,    18.52,    18.47,    15.98,    17.66
      132.0,      17.60,    18.46,    18.40,    15.94,    17.61
      133.0,      17.55,    18.39,    18.33,    15.90,    17.57
      134.0,      17.49,    18.33,    18.27,    15.85,    17.52
      135.0,      17.44,    18.26,    18.20,    15.81,    17.47
      136.0,      17.38,    18.20,    18.14,    15.77,    17.43
      137.0,      17.33,    18.14,    18.07,    15.73,    17.38
      138.0,      17.28,    18.08,    18.01,    15.69,    17.34
      139.0,      17.23,    18.02,    17.94,    15.65,    17.30
      140.0,      17.18,    17.96,    17.88,    15.61,    17.25
      141.0,      17.13,    17.90,    17.82,    15.58,    17.21
      142.0,      17.08,    17.85,    17.76,    15.54,    17.17
      143.0,      17.03,    17.79,    17.70,    15.50,    17.13
      144.0,      16.98,    17.73,    17.64,    15.46,    17.09
      145.0,      16.93,    17.68,    17.58,    15.43,    17.05
      146.0,      16.89,    17.63,    17.52,    15.39,    17.01
      147.0,      16.84,    17.57,    17.46,    15.36,    16.97
      148.0,      16.79,    17.52,    17.41,    15.32,    16.93
      149.0,      16.75,    17.47,    17.35,    15.29,    16.89
      150.0,      16.70,    17.42,    17.29,    15.25,    16.85
      151.0,      16.66,    17.37,    17.24,    15.22,    16.82
      152.0,      16.62,    17.32,    17.18,    15.19,    16.78
      153.0,      16.57,    17.27,    17.13,    15.15,    16.74
      154.0,      16.53,    17.22,    17.07,    15.12,    16.71
      155.0,      16.49,    17.17,    17.02,    15.09,    16.67
      156.0,      16.44,    17.12,    16.96,    15.06,    16.64
      157.0,      16.40,    17.07,    16.91,    15.02,    16.60
      158.0,      16.36,    17.02,    16.86,    14.99,    16.57
      159.0,      16.32,    16.98,    16.80,    14.96,    16.53
      160.0,      16.28,    16.93,    16.75,    14.93,    16.50
      161.0,      16.24,    16.89,    16.70,    14.90,    16.46
      162.0,      16.20,    16.84,    16.65,    14.87,    16.43
      163.0,      16.16,    16.79,    16.60,    14.84,    16.40
      164.0,      16.12,    16.75,    16.55,    14.81,    16.36
      165.0,      16.08,    16.71,    16.50,    14.78,    16.33
      166.0,      16.04,    16.66,    16.45,    14.75,    16.30
      167.0,      16.00,    16.62,    16.40,    14.72,    16.26
      168.0,      15.96,    16.57,    16.35,    14.69,    16.23
      169.0,      15.92,    16.53,    16.30,    14.67,    16.20
      170.0,      15.89,    16.49,    16.25,    14.64,    16.17
      171.0,      15.85,    16.45,    16.20,    14.61,    16.14
      172.0,      15.81,    16.41,    16.15,    14.58,    16.11
      173.0,      15.77,    16.36,    16.10,    14.55,    16.08
      174.0,      15.74,    16.32,    16.06,    14.53,    16.05
      175.0,      15.70,    16.28,    16.01,    14.50,    16.01
      176.0,      15.66,    16.24,    15.96,    14.47,    15.98
      177.0,      15.63,    16.20,    15.91,    14.44,    15.95
      178.0,      15.59,    16.16,    15.87,    14.42,    15.92
      179.0,      15.56,    16.12,    15.82,    14.39,    15.89
      180.0,      15.52,    16.08,    15.77,    14.36,    15.86
      181.0,      15.49,    16.04,    15.73,    14.34,    15.84
      182.0,      15.45,    16.00,    15.68,    14.31,    15.81
      183.0,      15.42,    15.96,    15.64,    14.28,    15.78
      184.0,      15.38,    15.92,    15.59,    14.26,    15.75
      185.0,      15.35,    15.88,    15.55,    14.23,    15.72
      186.0,      15.31,    15.85,    15.50,    14.21,    15.69
      187.0,      15.28,    15.81,    15.46,    14.18,    15.66
      188.0,      15.24,    15.77,    15.41,    14.16,    15.63
      189.0,      15.21,    15.73,    15.37,    14.13,    15.61
      190.0,      15.17,    15.69,    15.32,    14.10,    15.58
      191.0,      15.14,    15.66,    15.28,    14.08,    15.55
      192.0,      15.11,    15.62,    15.24,    14.05,    15.52
      193.0,      15.07,    15.58,    15.19,    14.03,    15.49
      194.0,      15.04,    15.55,    15.15,    14.00,    15.47
      195.0,      15.01,    15.51,    15.11,    13.98,    15.44
      196.0,      14.97,    15.47,    15.06,    13.95,    15.41
      197.0,      14.94,    15.44,    15.02,    13.93,    15.38
      198.0,      14.91,    15.40,    14.98,    13.91,    15.36
      199.0,      14.88,    15.36,    14.93,    13.88,    15.33
      200.0,      14.84,    15.33,    14.89,    13.86,    15.30
      201.0,      14.81,    15.29,    14.85,    13.83,    15.27
      202.0,      14.78,    15.26,    14.81,    13.81,    15.25
      203.0,      14.75,    15.22,    14.77,    13.78,    15.22
      204.0,      14.72,    15.18,    14.72,    13.76,    15.19
      205.0,      14.68,    15.15,    14.68,    13.74,    15.17
      206.0,      14.65,    15.11,    14.64,    13.71,    15.14
      207.0,      14.62,    15.08,    14.60,    13.69,    15.12
      208.0,      14.59,    15.04,    14.56,    13.66,    15.09
      209.0,      14.56,    15.01,    14.52,    13.64,    15.06
      210.0,      14.53,    14.98,    14.48,    13.62,    15.04
      211.0,      14.50,    14.94,    14.44,    13.59,    15.01
      212.0,      14.46,    14.91,    14.40,    13.57,    14.98
      213.0,      14.43,    14.87,    14.36,    13.55,    14.96
      214.0,      14.40,    14.84,    14.32,    13.52,    14.93
      215.0,      14.37,    14.80,    14.28,    13.50,    14.91
      216.0,      14.34,    14.77,    14.24,    13.48,    14.88
      217.0,      14.31,    14.74,    14.20,    13.45,    14.86
      218.0,      14.28,    14.70,    14.16,    13.43,    14.83
      219.0,      14.25,    14.67,    14.12,    13.41,    14.81
      220.0,      14.22,    14.64,    14.08,    13.39,    14.78
      221.0,      14.19,    14.60,    14.04,    13.36,    14.75
      222.0,      14.16,    14.57,    14.00,    13.34,    14.73
      223.0,      14.13,    14.54,    13.96,    13.32,    14.70
      224.0,      14.10,    14.50,    13.92,    13.29,    14.68
      225.0,      14.07,    14.47,    13.88,    13.27,    14.65
      226.0,      14.04,    14.44,    13.84,    13.25,    14.63
      227.0,      14.01,    14.40,    13.80,    13.23,    14.60
      228.0,      13.98,    14.37,    13.77,    13.20,    14.58
      229.0,      13.95,    14.34,    13.73,    13.18,    14.55
      230.0,      13.92,    14.31,    13.69,    13.16,    14.53
      231.0,      13.89,    14.27,    13.65,    13.14,    14.50
      232.0,      13.86,    14.24,    13.61,    13.11,    14.48
      233.0,      13.83,    14.21,    13.58,    13.09,    14.46
      234.0,      13.80,    14.18,    13.54,    13.07,    14.43
      235.0,      13.78,    14.15,    13.50,    13.05,    14.41
      236.0,      13.75,    14.11,    13.46,    13.03,    14.38
      237.0,      13.72,    14.08,    13.43,    13.00,    14.36
      238.0,      13.69,    14.05,    13.39,    12.98,    14.33
      239.0,      13.66,    14.02,    13.35,    12.96,    14.31
      240.0,      13.63,    13.99,    13.31,    12.94,    14.29
      241.0,      13.60,    13.96,    13.28,    12.92,    14.26
      242.0,      13.57,    13.92,    13.24,    12.90,    14.24
      243.0,      13.55,    13.89,    13.20,    12.87,    14.21
      244.0,      13.52,    13.86,    13.17,    12.85,    14.19
      245.0,      13.49,    13.83,    13.13,    12.83,    14.17
      246.0,      13.46,    13.80,    13.09,    12.81,    14.14
      247.0,      13.43,    13.77,    13.06,    12.79,    14.12
      248.0,      13.41,    13.74,    13.02,    12.77,    14.09
      249.0,      13.38,    13.71,    12.99,    12.74,    14.07
      250.0,      13.35,    13.68,    12.95,    12.72,    14.05
      251.0,      13.32,    13.65,    12.91,    12.70,    14.02
      252.0,      13.29,    13.62,    12.88,    12.68,    14.00
      253.0,      13.27,    13.59,    12.84,    12.66,    13.98
      254.0,      13.24,    13.55,    12.81,    12.64,    13.95
      255.0,      13.21,    13.52,    12.77,    12.62,    13.93
      256.0,      13.18,    13.49,    12.74,    12.59,    13.91
      257.0,      13.16,    13.46,    12.70,    12.57,    13.88
      258.0,      13.13,    13.43,    12.67,    12.55,    13.86
      259.0,      13.10,    13.40,    12.63,    12.53,    13.84
      260.0,      13.07,    13.37,    12.60,    12.51,    13.81
      261.0,      13.05,    13.34,    12.56,    12.49,    13.79
      262.0,      13.02,    13.31,    12.53,    12.47,    13.77
      263.0,      12.99,    13.28,    12.49,    12.45,    13.74
      264.0,      12.97,    13.25,    12.46,    12.43,    13.72
      265.0,      12.94,    13.23,    12.42,    12.41,    13.70
      266.0,      12.91,    13.20,    12.39,    12.39,    13.67
      267.0,      12.88,    13.17,    12.36,    12.36,    13.65
      268.0,      12.86,    13.14,    12.32,    12.34,    13.63
      269.0,      12.83,    13.11,    12.29,    12.32,    13.61
      270.0,      12.80,    13.08,    12.25,    12.30,    13.58
      271.0,      12.78,    13.05,    12.22,    12.28,    13.56
      272.0,      12.75,    13.02,    12.19,    12.26,    13.54
      273.0,      12.73,    12.99,    12.15,    12.24,    13.52
      274.0,      12.70,    12.96,    12.12,    12.22,    13.49
      275.0,      12.67,    12.93,    12.09,    12.20,    13.47
      276.0,      12.65,    12.90,    12.05,    12.18,    13.45
      277.0,      12.62,    12.88,    12.02,    12.16,    13.42
      278.0,      12.59,    12.85,    11.99,    12.14,    13.40
      279.0,      12.57,    12.82,    11.95,    12.12,    13.38
      280.0,      12.54,    12.79,    11.92,    12.10,    13.36
      281.0,      12.52,    12.76,    11.89,    12.08,    13.34
      282.0,      12.49,    12.73,    11.85,    12.06,    13.31
      283.0,      12.46,    12.70,    11.82,    12.04,    13.29
      284.0,      12.44,    12.68,    11.79,    12.02,    13.27
      285.0,      12.41,    12.65,    11.76,    12.00,    13.25
      286.0,      12.39,    12.62,    11.72,    11.98,    13.22
      287.0,      12.36,    12.59,    11.69,    11.96,    13.20
      288.0,      12.34,    12.56,    11.66,    11.94,    13.18
      289.0,      12.31,    12.54,    11.63,    11.92,    13.16
      290.0,      12.28,    12.51,    11.60,    11.90,    13.14
      291.0,      12.26,    12.48,    11.56,    11.88,    13.11
      292.0,      12.23,    12.45,    11.53,    11.86,    13.09
      293.0,      12.21,    12.42,    11.50,    11.84,    13.07
      294.0,      12.18,    12.40,    11.47,    11.82,    13.05
      295.0,      12.16,    12.37,    11.44,    11.80,    13.03
      296.0,      12.13,    12.34,    11.41,    11.78,    13.01
      297.0,      12.11,    12.31,    11.37,    11.76,    12.98
      298.0,      12.08,    12.29,    11.34,    11.74,    12.96
      299.0,      12.06,    12.26,    11.31,    11.72,    12.94
      300.0,      12.03,    12.23,    11.28,    11.70,    12.92
      301.0,      12.01,    12.21,    11.25,    11.68,    12.90
      302.0,      11.98,    12.18,    11.22,    11.66,    12.88
      303.0,      11.96,    12.15,    11.19,    11.64,    12.85
      304.0,      11.93,    12.12,    11.16,    11.62,    12.83
      305.0,      11.91,    12.10,    11.13,    11.60,    12.81
      306.0,      11.89,    12.07,    11.10,    11.58,    12.79
      307.0,      11.86,    12.04,    11.06,    11.57,    12.77
      308.0,      11.84,    12.02,    11.03,    11.55,    12.75
      309.0,      11.81,    11.99,    11.00,    11.53,    12.73
      310.0,      11.79,    11.96,    10.97,    11.51,    12.71
