Radius (km), Mean (m/s), NE (m/s), SE (m/s), SW (m/s), NW (m/s)
        0.0,       0.00,     0.00,     0.00,     0.00,     0.00
        1.0,       2.20,     2.09,     2.09,     2.53,     2.09
        2.0,       4.74,     4.60,     4.60,     5.13,     4.62
        3.0,       7.46,     7.33,     7.32,     7.75,     7.41
        4.0,      10.39,    10.32,    10.29,    10.41,    10.54
        5.0,      13.62,    13.67,    13.59,    13.16,    14.08
        6.0,      17.25,    17.46,    17.33,    16.10,    18.12
        7.0,      21.33,    21.75,    21.57,    19.32,    22.66
        8.0,      25.81,    26.50,    26.28,    22.87,    27.60
        9.0,      30.61,    31.58,    31.34,    26.72,    32.79
       10.0,      35.52,    36.78,    36.55,    30.76,    37.99
       11.0,      40.32,    41.84,    41.65,    34.84,    42.95
       12.0,      44.76,    46.50,    46.37,    38.74,    47.42
       13.0,      48.60,    50.51,    50.45,    42.25,    51.18
       14.0,      51.68,    53.70,    53.71,    45.19,    54.11
       15.0,      53.90,    55.99,    56.04,    47.41,    56.16
       16.0,      55.25,    57.36,    57.45,    48.85,    57.36
       17.0,      55.82,    57.92,    57.99,    49.54,    57.84
       18.0,      55.75,    57.81,    57.85,    49.56,    57.76
       19.0,      55.20,    57.24,    57.20,    49.05,    57.31
       20.0,      54.37,    56.39,    56.25,    48.18,    56.65
       21.0,      53.41,    55.42,    55.17,    47.12,    55.92
       22.0,      52.43,    54.45,    54.08,    46.00,    55.20
       23.0,      51.50,    53.53,    53.04,    44.92,    54.51
       24.0,      50.62,    52.65,    52.06,    43.91,    53.85
       25.0,      49.78,    51.82,    51.12,    42.98,    53.20
       26.0,      48.97,    51.01,    50.21,    42.11,    52.56
       27.0,      48.18,    50.21,    49.32,    41.27,    51.94
       28.0,      47.41,    49.43,    48.45,    40.45,    51.32
       29.0,      46.66,    48.67,    47.60,    39.66,    50.72
       30.0,      45.93,    47.93,    46.76,    38.89,    50.12
       31.0,      45.21,    47.20,    45.95,    38.15,    49.53
       32.0,      44.51,    46.49,    45.16,    37.43,    48.95
       33.0,      43.82,    45.79,    44.38,    36.73,    48.38
       34.0,      43.15,    45.11,    43.62,    36.05,    47.82
       35.0,      42.50,    44.44,    42.88,    35.40,    47.27
       36.0,      41.86,    43.79,    42.16,    34.76,    46.72
       37.0,      41.23,    43.16,    41.45,    34.15,    46.19
       38.0,      40.62,    42.53,    40.76,    33.55,    45.66
       39.0,      40.03,    41.92,    40.08,    32.97,    45.14
       40.0,      39.45,    41.33,    39.42,    32.40,    44.62
       41.0,      38.88,    40.75,    38.78,    31.86,    44.12
       42.0,      38.32,    40.17,    38.15,    31.33,    43.62
       43.0,      37.77,    39.62,    37.53,    30.81,    43.13
       44.0,      37.24,    39.07,    36.93,    30.32,    42.65
       45.0,      36.72,    38.54,    36.34,    29.83,    42.18
       46.0,      36.21,    38.02,    35.76,    29.36,    41.71
       47.0,      35.71,    37.51,    35.20,    28.90,    41.25
       48.0,      35.23,    37.01,    34.65,    28.46,    40.80
       49.0,      34.75,    36.52,    34.11,    28.03,    40.35
       50.0,      34.28,    36.04,    33.58,    27.61,    39.91
       51.0,      33.83,    35.57,    33.07,    27.20,    39.48
       52.0,      33.38,    35.11,    32.57,    26.81,    39.05
       53.0,      32.95,    34.66,    32.07,    26.42,    38.63
       54.0,      32.52,    34.23,    31.59,    26.05,    38.22
       55.0,      32.10,    33.80,    31.12,    25.69,    37.81
       56.0,      31.70,    33.38,    30.66,    25.33,    37.41
       57.0,      31.30,    32.97,    30.22,    24.99,    37.01
       58.0,      30.90,    32.56,    29.78,    24.65,    36.62
       59.0,      30.52,    32.17,    29.35,    24.33,    36.24
       60.0,      30.15,    31.78,    28.93,    24.01,    35.86
       61.0,      29.78,    31.41,    28.52,    23.70,    35.49
       62.0,      29.42,    31.04,    28.12,    23.40,    35.12
       63.0,      29.07,    30.68,    27.72,    23.11,    34.76
       64.0,      28.72,    30.32,    27.34,    22.83,    34.41
       65.0,      28.39,    29.98,    26.96,    22.55,    34.06
       66.0,      28.06,    29.64,    26.60,    22.28,    33.71
       67.0,      27.73,    29.31,    26.24,    22.02,    33.37
       68.0,      27.42,    28.98,    25.89,    21.76,    33.04
       69.0,      27.11,    28.66,    25.55,    21.51,    32.71
       70.0,      26.80,    28.35,    25.21,    21.27,    32.38
       71.0,      26.51,    28.05,    24.88,    21.03,    32.06
       72.0,      26.21,    27.75,    24.56,    20.80,    31.75
       73.0,      25.93,    27.46,    24.25,    20.57,    31.44
       74.0,      25.65,    27.17,    23.94,    20.35,    31.13
       75.0,      25.37,    26.89,    23.64,    20.13,    30.83
       76.0,      25.10,    26.62,    23.35,    19.92,    30.53
       77.0,      24.84,    26.35,    23.06,    19.72,    30.24
       78.0,      24.58,    26.08,    22.78,    19.52,    29.95
       79.0,      24.33,    25.82,    22.50,    19.32,    29.67
       80.0,      24.08,    25.57,    22.23,    19.13,    29.39
       81.0,      23.84,    25.32,    21.97,    18.94,    29.12
       82.0,      23.60,    25.08,    21.71,    18.76,    28.84
       83.0,      23.37,    24.84,    21.46,    18.58,    28.58
       84.0,      23.14,    24.61,    21.22,    18.40,    28.31
       85.0,      22.91,    24.38,    20.98,    18.23,    28.05
       86.0,      22.69,    24.16,    20.74,    18.06,    27.80
       87.0,      22.47,    23.94,    20.51,    17.90,    27.55
       88.0,      22.26,    23.72,    20.28,    17.74,    27.30
       89.0,      22.05,    23.51,    20.06,    17.58,    27.06
       90.0,      21.85,    23.31,    19.85,    17.42,    26.82
       91.0,      21.65,    23.10,    19.63,    17.27,    26.58
       92.0,      21.45,    22.91,    19.43,    17.12,    26.35
       93.0,      21.26,    22.71,    19.22,    16.98,    26.12
       94.0,      21.07,    22.52,    19.03,    16.84,    25.89
       95.0,      20.88,    22.33,    18.83,    16.70,    25.67
       96.0,      20.70,    22.15,    18.64,    16.56,    25.45
       97.0,      20.52,    21.97,    18.46,    16.43,    25.23
       98.0,      20.34,    21.80,    18.27,    16.29,    25.01
       99.0,      20.17,    21.62,    18.09,    16.16,    24.80
      100.0,      20.00,    21.45,    17.92,    16.04,    24.60
      101.0,      19.84,    21.29,    17.75,    15.91,    24.39
      102.0,      19.67,    21.12,    17.58,    15.79,    24.19
      103.0,      19.51,    20.96,    17.42,    15.67,    23.99
      104.0,      19.35,    20.81,    17.26,    15.55,    23.80
      105.0,      19.20,    20.65,    17.10,    15.43,    23.60
      106.0,      19.05,    20.50,    16.95,    15.32,    23.42
      107.0,      18.90,    20.35,    16.80,    15.21,    23.23
      108.0,      18.75,    20.21,    16.65,    15.10,    23.04
      109.0,      18.60,    20.06,    16.50,    14.99,    22.86
      110.0,      18.46,    19.92,    16.36,    14.88,    22.68
      111.0,      18.32,    19.79,    16.22,    14.77,    22.51
      112.0,      18.19,    19.65,    16.09,    14.67,    22.33
      113.0,      18.05,    19.52,    15.95,    14.57,    22.16
      114.0,      17.92,    19.39,    15.82,    14.47,    21.99
      115.0,      17.79,    19.26,    15.70,    14.37,    21.83
      116.0,      17.66,    19.13,    15.57,    14.27,    21.66
      117.0,      17.53,    19.01,    15.45,    14.17,    21.50
      118.0,      17.41,    18.89,    15.33,    14.08,    21.34
      119.0,      17.29,    18.77,    15.21,    13.98,    21.18
      120.0,      17.17,    18.65,    15.09,    13.89,    21.03
      121.0,      17.05,    18.54,    14.98,    13.80,    20.88
      122.0,      16.93,    18.43,    14.87,    13.71,    20.73
      123.0,      16.82,    18.32,    14.76,    13.62,    20.58
      124.0,      16.71,    18.21,    14.65,    13.53,    20.43
      125.0,      16.60,    18.10,    14.55,    13.45,    20.29
      126.0,      16.49,    17.99,    14.45,    13.36,    20.15
      127.0,      16.38,    17.89,    14.35,    13.28,    20.01
      128.0,      16.28,    17.79,    14.25,    13.20,    19.87
      129.0,      16.17,    17.69,    14.15,    13.11,    19.73
      130.0,      16.07,    17.59,    14.06,    13.03,    19.60
      131.0,      15.97,    17.49,    13.96,    12.95,    19.47
      132.0,      15.87,    17.40,    13.87,    12.87,    19.34
      133.0,      15.77,    17.31,    13.78,    12.80,    19.21
      134.0,      15.68,    17.21,    13.70,    12.72,    19.08
      135.0,      15.58,    17.12,    13.61,    12.64,    18.96
      136.0,      15.49,    17.03,    13.53,    12.57,    18.84
      137.0,      15.40,    16.95,    13.44,    12.49,    18.71
      138.0,      15.31,    16.86,    13.36,    12.42,    18.59
      139.0,      15.22,    16.77,    13.28,    12.34,    18.48
      140.0,      15.13,    16.69,    13.20,    12.27,    18.36
      141.0,      15.04,    16.61,    13.13,    12.20,    18.25
      142.0,      14.96,    16.53,    13.05,    12.13,    18.13
      143.0,      14.88,    16.45,    12.98,    12.06,    18.02
      144.0,      14.79,    16.37,    12.90,    11.99,    17.91
      145.0,      14.71,    16.29,    12.83,    11.92,    17.80
      146.0,      14.63,    16.22,    12.76,    11.85,    17.70
      147.0,      14.55,    16.14,    12.69,    11.78,    17.59
      148.0,      14.47,    16.07,    12.62,    11.72,    17.49
      149.0,      14.40,    15.99,    12.56,    11.65,    17.39
      150.0,      14.32,    15.92,    12.49,    11.59,    17.28
      151.0,      14.25,    15.85,    12.43,    11.52,    17.18
      152.0,      14.17,    15.78,    12.37,    11.46,    17.09
      153.0,      14.10,    15.71,    12.30,    11.39,    16.99
      154.0,      14.03,    15.65,    12.24,    11.33,    16.89
      155.0,      13.96,    15.58,    12.18,    11.27,    16.80
      156.0,      13.89,    15.51,    12.12,    11.20,    16.71
      157.0,      13.82,    15.45,    12.07,    11.14,    16.62
      158.0,      13.75,    15.38,    12.01,    11.08,    16.53
      159.0,      13.68,    15.32,    11.95,    11.02,    16.44
      160.0,      13.62,    15.26,    11.90,    10.96,    16.35
      161.0,      13.55,    15.20,    11.84,    10.90,    16.26
      162.0,      13.49,    15.14,    11.79,    10.84,    16.18
      163.0,      13.42,    15.08,    11.74,    10.78,    16.09
      164.0,      13.36,    15.02,    11.69,    10.73,    16.01
      165.0,      13.30,    14.96,    11.64,    10.67,    15.93
      166.0,      13.24,    14.90,    11.59,    10.61,    15.84
      167.0,      13.18,    14.85,    11.54,    10.55,    15.76
      168.0,      13.12,    14.79,    11.49,    10.50,    15.69
      169.0,      13.06,    14.73,    11.44,    10.44,    15.61
      170.0,      13.00,    14.68,    11.39,    10.39,    15.53
      171.0,      12.94,    14.63,    11.35,    10.33,    15.46
      172.0,      12.88,    14.57,    11.30,    10.28,    15.38
      173.0,      12.83,    14.52,    11.26,    10.22,    15.31
      174.0,      12.77,    14.47,    11.21,    10.17,    15.23
      175.0,      12.72,    14.42,    11.17,    10.11,    15.16
      176.0,      12.66,    14.37,    11.13,    10.06,    15.09
      177.0,      12.61,    14.32,    11.09,    10.01,    15.02
      178.0,      12.55,    14.27,    11.04,     9.96,    14.95
      179.0,      12.50,    14.22,    11.00,     9.90,    14.88
      180.0,      12.45,    14.17,    10.96,     9.85,    14.82
      181.0,      12.40,    14.12,    10.92,     9.80,    14.75
      182.0,      12.35,    14.07,    10.88,     9.75,    14.68
      183.0,      12.30,    14.03,    10.85,     9.70,    14.62
      184.0,      12.25,    13.98,    10.81,     9.65,    14.56
      185.0,      12.20,    13.93,    10.77,     9.60,    14.49
      186.0,      12.15,    13.89,    10.73,     9.55,    14.43
      187.0,      12.10,    13.84,    10.70,     9.50,    14.37
      188.0,      12.05,    13.80,    10.66,     9.45,    14.31
      189.0,      12.01,    13.75,    10.62,     9.40,    14.25
      190.0,      11.96,    13.71,    10.59,     9.35,    14.19
      191.0,      11.92,    13.67,    10.56,     9.31,    14.13
      192.0,      11.87,    13.63,    10.52,     9.26,    14.07
      193.0,      11.82,    13.58,    10.49,     9.21,    14.02
      194.0,      11.78,    13.54,    10.45,     9.16,    13.96
      195.0,      11.74,    13.50,    10.42,     9.12,    13.91
      196.0,      11.69,    13.46,    10.39,     9.07,    13.85
      197.0,      11.65,    13.42,    10.36,     9.02,    13.80
      198.0,      11.61,    13.38,    10.33,     8.98,    13.74
      199.0,      11.56,    13.34,    10.29,     8.93,    13.69
      200.0,      11.52,    13.30,    10.26,     8.89,    13.64
      201.0,      11.48,    13.26,    10.23,     8.84,    13.59
      202.0,      11.44,    13.22,    10.20,     8.80,    13.54
      203.0,      11.40,    13.18,    10.17,     8.75,    13.49
      204.0,      11.36,    13.14,    10.14,     8.71,    13.44
      205.0,      11.32,    13.11,    10.11,     8.66,    13.39
      206.0,      11.28,    13.07,    10.09,     8.62,    13.34
      207.0,      11.24,    13.03,    10.06,     8.58,    13.29
      208.0,      11.20,    12.99,    10.03,     8.53,    13.24
      209.0,      11.16,    12.96,    10.00,     8.49,    13.20
      210.0,      11.12,    12.92,     9.97,     8.45,    13.15
      211.0,      11.09,    12.89,     9.95,     8.40,    13.11
      212.0,      11.05,    12.85,     9.92,     8.36,    13.06
      213.0,      11.01,    12.82,     9.89,     8.32,    13.02
      214.0,      10.97,    12.78,     9.87,     8.28,    12.97
      215.0,      10.94,    12.75,     9.84,     8.23,    12.93
      216.0,      10.90,    12.71,     9.81,     8.19,    12.89
      217.0,      10.87,    12.68,     9.79,     8.15,    12.84
      218.0,      10.83,    12.64,     9.76,     8.11,    12.80
      219.0,      10.79,    12.61,     9.74,     8.07,    12.76
      220.0,      10.76,    12.57,     9.71,     8.03,    12.72
      221.0,      10.72,    12.54,     9.69,     7.99,    12.68
      222.0,      10.69,    12.51,     9.67,     7.95,    12.64
      223.0,      10.66,    12.48,     9.64,     7.91,    12.60
      224.0,      10.62,    12.44,     9.62,     7.87,    12.56
      225.0,      10.59,    12.41,     9.59,     7.83,    12.52
      226.0,      10.56,    12.38,     9.57,     7.79,    12.48
      227.0,      10.52,    12.35,     9.55,     7.75,    12.44
      228.0,      10.49,    12.32,     9.52,     7.71,    12.41
      229.0,      10.46,    12.28,     9.50,     7.67,    12.37
      230.0,      10.43,    12.25,     9.48,     7.64,    12.33
      231.0,      10.39,    12.22,     9.46,     7.60,    12.30
      232.0,      10.36,    12.19,     9.43,     7.56,    12.26
      233.0,      10.33,    12.16,     9.41,     7.52,    12.23
      234.0,      10.30,    12.13,     9.39,     7.48,    12.19
      235.0,      10.27,    12.10,     9.37,     7.45,    12.16
      236.0,      10.24,    12.07,     9.35,     7.41,    12.12
      237.0,      10.21,    12.04,     9.33,     7.37,    12.09
      238.0,      10.18,    12.01,     9.30,     7.34,    12.06
      239.0,      10.15,    11.98,     9.28,     7.30,    12.02
      240.0,      10.12,    11.95,     9.26,     7.26,    11.99
      241.0,      10.09,    11.92,     9.24,     7.23,    11.96
      242.0,      10.06,    11.89,     9.22,     7.19,    11.92
      243.0,      10.03,    11.86,     9.20,     7.16,    11.89
      244.0,      10.00,    11.83,     9.18,     7.12,    11.86
      245.0,       9.97,    11.81,     9.16,     7.08,    11.83
      246.0,       9.94,    11.78,     9.14,     7.05,    11.80
      247.0,       9.91,    11.75,     9.12,     7.01,    11.77
      248.0,       9.89,    11.72,     9.10,     6.98,    11.74
      249.0,       9.86,    11.69,     9.08,     6.94,    11.71
      250.0,       9.83,    11.66,     9.06,     6.91,    11.68
      251.0,       9.80,    11.64,     9.04,     6.88,    11.65
      252.0,       9.77,    11.61,     9.02,     6.84,    11.62
      253.0,       9.75,    11.58,     9.01,     6.81,    11.59
      254.0,       9.72,    11.55,     8.99,     6.77,    11.56
      255.0,       9.69,    11.53,     8.97,     6.74,    11.54
      256.0,       9.67,    11.50,     8.95,     6.71,    11.51
      257.0,       9.64,    11.47,     8.93,     6.67,    11.48
      258.0,       9.61,    11.45,     8.91,     6.64,    11.45
      259.0,       9.59,    11.42,     8.89,     6.61,    11.43
      260.0,       9.56,    11.39,     8.88,     6.57,    11.40
      261.0,       9.54,    11.37,     8.86,     6.54,    11.37
      262.0,       9.51,    11.34,     8.84,     6.51,    11.35
      263.0,       9.48,    11.31,     8.82,     6.48,    11.32
      264.0,       9.46,    11.29,     8.80,     6.44,    11.30
      265.0,       9.43,    11.26,     8.79,     6.41,    11.27
      266.0,       9.41,    11.24,     8.77,     6.38,    11.25
      267.0,       9.38,    11.21,     8.75,     6.35,    11.22
      268.0,       9.36,    11.19,     8.73,     6.32,    11.20
      269.0,       9.33,    11.16,     8.72,     6.29,    11.17
      270.0,       9.31,    11.14,     8.70,     6.25,    11.15
      271.0,       9.28,    11.11,     8.68,     6.22,    11.12
      272.0,       9.26,    11.08,     8.67,     6.19,    11.10
      273.0,       9.24,    11.06,     8.65,     6.16,    11.08
      274.0,       9.21,    11.03,     8.63,     6.13,    11.05
      275.0,       9.19,    11.01,     8.62,     6.10,    11.03
      276.0,       9.17,    10.99,     8.60,     6.07,    11.01
      277.0,       9.14,    10.96,     8.58,     6.04,    10.98
      278.0,       9.12,    10.94,     8.57,     6.01,    10.96
      279.0,       9.09,    10.91,     8.55,     5.98,    10.94
      280.0,       9.07,    10.89,     8.53,     5.95,    10.92
      281.0,       9.05,    10.86,     8.52,     5.92,    10.89
      282.0,       9.03,    10.84,     8.50,     5.89,    10.87
      283.0,       9.00,    10.81,     8.48,     5.86,    10.85
      284.0,       8.98,    10.79,     8.47,     5.83,    10.83
      285.0,       8.96,    10.77,     8.45,     5.81,    10.81
      286.0,       8.94,    10.74,     8.44,     5.78,    10.79
      287.0,       8.91,    10.72,     8.42,     5.75,    10.76
      288.0,       8.89,    10.70,     8.40,     5.72,    10.74
      289.0,       8.87,    10.67,     8.39,     5.69,    10.72
      290.0,       8.85,    10.65,     8.37,     5.66,    10.70
      291.0,       8.83,    10.63,     8.36,     5.64,    10.68
      292.0,       8.80,    10.60,     8.34,     5.61,    10.66
      293.0,       8.78,    10.58,     8.33,     5.58,    10.64
      294.0,       8.76,    10.56,     8.31,     5.55,    10.62
      295.0,       8.74,    10.53,     8.30,     5.52,    10.60
      296.0,       8.72,    10.51,     8.28,     5.50,    10.58
      297.0,       8.70,    10.49,     8.27,     5.47,    10.56
      298.0,       8.68,    10.46,     8.25,     5.44,    10.55
      299.0,       8.65,    10.44,     8.24,     5.42,    10.53
      300.0,       8.63,    10.42,     8.22,     5.39,    10.51
      301.0,       8.61,    10.40,     8.21,     5.36,    10.49
      302.0,       8.59,    10.37,     8.19,     5.34,    10.47
      303.0,       8.57,    10.35,     8.18,     5.31,    10.45
      304.0,       8.55,    10.33,     8.16,     5.28,    10.43
      305.0,       8.53,    10.31,     8.15,     5.26,    10.41
      306.0,       8.51,    10.28,     8.13,     5.23,    10.40
      307.0,       8.49,    10.26,     8.12,     5.20,    10.38
      308.0,       8.47,    10.24,     8.10,     5.18,    10.36
      309.0,       8.45,    10.22,     8.09,     5.15,    10.34
      310.0,       8.43,    10.20,     8.07,     5.13,    10.33
