Radius (km), Mean (m/s), NE (m/s), SE (m/s), SW (m/s), NW (m/s)
        0.0,       0.00,     0.00,     0.00,     0.00,     0.00
        1.0,       2.23,     2.13,     2.13,     2.55,     2.13
        2.0,       4.77,     4.64,     4.64,     5.15,     4.64
        3.0,       7.45,     7.36,     7.33,     7.76,     7.36
        4.0,      10.31,    10.32,    10.20,    10.40,    10.32
        5.0,      13.44,    13.64,    13.33,    13.17,    13.64
        6.0,      16.96,    17.43,    16.84,    16.15,    17.44
        7.0,      20.95,    21.75,    20.82,    19.44,    21.79
        8.0,      25.40,    26.58,    25.29,    23.08,    26.66
        9.0,      30.23,    31.77,    30.18,    27.04,    31.92
       10.0,      35.23,    37.10,    35.31,    31.19,    37.33
       11.0,      40.16,    42.29,    40.43,    35.34,    42.59
       12.0,      44.75,    47.04,    45.24,    39.28,    47.41
       13.0,      48.71,    51.09,    49.49,    42.77,    51.50
       14.0,      51.86,    54.24,    52.93,    45.62,    54.66
       15.0,      54.07,    56.38,    55.41,    47.70,    56.77
       16.0,      55.30,    57.52,    56.90,    48.95,    57.85
       17.0,      55.64,    57.75,    57.44,    49.40,    57.97
       18.0,      55.24,    57.26,    57.17,    49.17,    57.34
       19.0,      54.28,    56.25,    56.31,    48.41,    56.17
       20.0,      52.99,    54.94,    55.05,    47.30,    54.69
       21.0,      51.56,    53.52,    53.62,    46.01,    53.08
       22.0,      50.11,    52.11,    52.16,    44.68,    51.50
       23.0,      48.74,    50.78,    50.78,    43.41,    50.00
       24.0,      47.47,    49.54,    49.49,    42.23,    48.61
       25.0,      46.27,    48.37,    48.30,    41.14,    47.29
       26.0,      45.13,    47.24,    47.16,    40.10,    46.02
       27.0,      44.04,    46.16,    46.07,    39.11,    44.81
       28.0,      42.98,    45.12,    45.01,    38.16,    43.64
       29.0,      41.97,    44.12,    44.00,    37.24,    42.52
       30.0,      40.99,    43.16,    43.02,    36.36,    41.44
       31.0,      40.05,    42.23,    42.08,    35.51,    40.40
       32.0,      39.15,    41.34,    41.17,    34.69,    39.40
       33.0,      38.28,    40.48,    40.29,    33.90,    38.44
       34.0,      37.44,    39.65,    39.45,    33.14,    37.51
       35.0,      36.63,    38.85,    38.64,    32.40,    36.62
       36.0,      35.85,    38.08,    37.85,    31.70,    35.77
       37.0,      35.10,    37.34,    37.10,    31.02,    34.94
       38.0,      34.38,    36.63,    36.37,    30.36,    34.15
       39.0,      33.68,    35.94,    35.67,    29.73,    33.39
       40.0,      33.01,    35.28,    34.99,    29.12,    32.66
       41.0,      32.36,    34.64,    34.34,    28.53,    31.95
       42.0,      31.74,    34.03,    33.70,    27.97,    31.27
       43.0,      31.14,    33.44,    33.10,    27.42,    30.62
       44.0,      30.56,    32.86,    32.51,    26.89,    29.99
       45.0,      30.01,    32.31,    31.94,    26.38,    29.38
       46.0,      29.47,    31.78,    31.39,    25.89,    28.80
       47.0,      28.95,    31.27,    30.87,    25.42,    28.24
       48.0,      28.45,    30.78,    30.36,    24.97,    27.70
       49.0,      27.97,    30.30,    29.86,    24.53,    27.17
       50.0,      27.50,    29.84,    29.39,    24.10,    26.67
       51.0,      27.05,    29.40,    28.93,    23.69,    26.19
       52.0,      26.62,    28.97,    28.48,    23.29,    25.73
       53.0,      26.20,    28.56,    28.05,    22.91,    25.28
       54.0,      25.80,    28.16,    27.64,    22.54,    24.85
       55.0,      25.41,    27.78,    27.24,    22.19,    24.43
       56.0,      25.03,    27.41,    26.85,    21.84,    24.03
       57.0,      24.67,    27.05,    26.47,    21.51,    23.65
       58.0,      24.32,    26.70,    26.11,    21.19,    23.27
       59.0,      23.98,    26.37,    25.76,    20.88,    22.92
       60.0,      23.65,    26.05,    25.42,    20.57,    22.57
       61.0,      23.34,    25.73,    25.09,    20.28,    22.24
       62.0,      23.03,    25.43,    24.77,    20.00,    21.92
       63.0,      22.74,    25.14,    24.46,    19.73,    21.61
       64.0,      22.45,    24.86,    24.16,    19.47,    21.31
       65.0,      22.17,    24.59,    23.87,    19.21,    21.02
       66.0,      21.91,    24.32,    23.59,    18.97,    20.74
       67.0,      21.65,    24.07,    23.32,    18.73,    20.48
       68.0,      21.40,    23.82,    23.06,    18.50,    20.22
       69.0,      21.16,    23.58,    22.80,    18.27,    19.97
       70.0,      20.92,    23.35,    22.55,    18.06,    19.73
       71.0,      20.70,    23.13,    22.31,    17.85,    19.50
       72.0,      20.48,    22.91,    22.08,    17.64,    19.27
       73.0,      20.26,    22.70,    21.85,    17.44,    19.06
       74.0,      20.06,    22.50,    21.63,    17.25,    18.85
       75.0,      19.86,    22.30,    21.42,    17.07,    18.65
       76.0,      19.67,    22.11,    21.21,    16.89,    18.45
       77.0,      19.48,    21.93,    21.01,    16.71,    18.26
       78.0,      19.30,    21.75,    20.81,    16.54,    18.08
       79.0,      19.12,    21.57,    20.62,    16.38,    17.91
       80.0,      18.95,    21.40,    20.44,    16.22,    17.74
       81.0,      18.78,    21.24,    20.25,    16.06,    17.57
       82.0,      18.62,    21.08,    20.08,    15.91,    17.41
       83.0,      18.46,    20.92,    19.91,    15.76,    17.26
       84.0,      18.31,    20.77,    19.74,    15.62,    17.11
       85.0,      18.16,    20.63,    19.58,    15.48,    16.97
       86.0,      18.02,    20.49,    19.42,    15.35,    16.83
       87.0,      17.88,    20.35,    19.27,    15.21,    16.69
       88.0,      17.74,    20.21,    19.12,    15.09,    16.56
       89.0,      17.61,    20.08,    18.97,    14.96,    16.43
       90.0,      17.48,    19.96,    18.83,    14.84,    16.31
       91.0,      17.36,    19.83,    18.69,    14.72,    16.19
       92.0,      17.24,    19.71,    18.55,    14.61,    16.08
       93.0,      17.12,    19.59,    18.42,    14.49,    15.97
       94.0,      17.00,    19.48,    18.29,    14.38,    15.86
       95.0,      16.89,    19.37,    18.16,    14.28,    15.75
       96.0,      16.78,    19.26,    18.03,    14.17,    15.65
       97.0,      16.67,    19.15,    17.91,    14.07,    15.55
       98.0,      16.57,    19.05,    17.79,    13.97,    15.46
       99.0,      16.46,    18.95,    17.68,    13.87,    15.36
      100.0,      16.36,    18.85,    17.56,    13.78,    15.27
      101.0,      16.27,    18.75,    17.45,    13.68,    15.18
      102.0,      16.17,    18.66,    17.34,    13.59,    15.10
      103.0,      16.08,    18.56,    17.23,    13.50,    15.01
      104.0,      15.99,    18.47,    17.13,    13.42,    14.93
      105.0,      15.90,    18.38,    17.03,    13.33,    14.85
      106.0,      15.81,    18.30,    16.93,    13.25,    14.78
      107.0,      15.73,    18.21,    16.83,    13.17,    14.70
      108.0,      15.64,    18.13,    16.73,    13.09,    14.63
      109.0,      15.56,    18.05,    16.63,    13.01,    14.56
      110.0,      15.48,    17.97,    16.54,    12.93,    14.49
      111.0,      15.40,    17.89,    16.45,    12.85,    14.42
      112.0,      15.33,    17.82,    16.36,    12.78,    14.36
      113.0,      15.25,    17.74,    16.27,    12.71,    14.29
      114.0,      15.18,    17.67,    16.18,    12.64,    14.23
      115.0,      15.11,    17.59,    16.09,    12.57,    14.17
      116.0,      15.03,    17.52,    16.01,    12.50,    14.11
      117.0,      14.96,    17.45,    15.93,    12.43,    14.05
      118.0,      14.90,    17.38,    15.84,    12.36,    13.99
      119.0,      14.83,    17.32,    15.76,    12.30,    13.94
      120.0,      14.76,    17.25,    15.68,    12.23,    13.88
      121.0,      14.70,    17.19,    15.60,    12.17,    13.83
      122.0,      14.63,    17.12,    15.53,    12.11,    13.78
      123.0,      14.57,    17.06,    15.45,    12.04,    13.73
      124.0,      14.51,    17.00,    15.37,    11.98,    13.68
      125.0,      14.45,    16.93,    15.30,    11.92,    13.63
      126.0,      14.39,    16.87,    15.23,    11.87,    13.58
      127.0,      14.33,    16.81,    15.16,    11.81,    13.53
      128.0,      14.27,    16.76,    15.08,    11.75,    13.49
      129.0,      14.21,    16.70,    15.01,    11.69,    13.44
      130.0,      14.15,    16.64,    14.94,    11.64,    13.40
      131.0,      14.10,    16.58,    14.87,    11.58,    13.35
      132.0,      14.04,    16.53,    14.81,    11.53,    13.31
      133.0,      13.99,    16.47,    14.74,    11.48,    13.27
      134.0,      13.94,    16.42,    14.67,    11.42,    13.23
      135.0,      13.88,    16.37,    14.61,    11.37,    13.19
      136.0,      13.83,    16.31,    14.54,    11.32,    13.15
      137.0,      13.78,    16.26,    14.48,    11.27,    13.11
      138.0,      13.73,    16.21,    14.42,    11.22,    13.07
      139.0,      13.68,    16.16,    14.35,    11.17,    13.03
      140.0,      13.63,    16.11,    14.29,    11.12,    12.99
      141.0,      13.58,    16.06,    14.23,    11.07,    12.95
      142.0,      13.53,    16.01,    14.17,    11.02,    12.92
      143.0,      13.48,    15.96,    14.11,    10.98,    12.88
      144.0,      13.43,    15.91,    14.05,    10.93,    12.85
      145.0,      13.39,    15.86,    13.99,    10.88,    12.81
      146.0,      13.34,    15.81,    13.93,    10.84,    12.78
      147.0,      13.29,    15.77,    13.87,    10.79,    12.74
      148.0,      13.25,    15.72,    13.81,    10.74,    12.71
      149.0,      13.20,    15.67,    13.76,    10.70,    12.67
      150.0,      13.16,    15.63,    13.70,    10.66,    12.64
      151.0,      13.11,    15.58,    13.64,    10.61,    12.61
      152.0,      13.07,    15.54,    13.59,    10.57,    12.58
      153.0,      13.02,    15.49,    13.53,    10.52,    12.54
      154.0,      12.98,    15.45,    13.48,    10.48,    12.51
      155.0,      12.94,    15.40,    13.42,    10.44,    12.48
      156.0,      12.89,    15.36,    13.37,    10.40,    12.45
      157.0,      12.85,    15.32,    13.31,    10.35,    12.42
      158.0,      12.81,    15.27,    13.26,    10.31,    12.39
      159.0,      12.77,    15.23,    13.21,    10.27,    12.36
      160.0,      12.73,    15.19,    13.15,    10.23,    12.33
      161.0,      12.69,    15.15,    13.10,    10.19,    12.30
      162.0,      12.64,    15.10,    13.05,    10.15,    12.27
      163.0,      12.60,    15.06,    13.00,    10.11,    12.24
      164.0,      12.56,    15.02,    12.95,    10.07,    12.21
      165.0,      12.52,    14.98,    12.90,    10.03,    12.19
      166.0,      12.48,    14.94,    12.85,     9.99,    12.16
      167.0,      12.44,    14.90,    12.80,     9.95,    12.13
      168.0,      12.41,    14.86,    12.75,     9.91,    12.10
      169.0,      12.37,    14.82,    12.70,     9.88,    12.07
      170.0,      12.33,    14.78,    12.65,     9.84,    12.05
      171.0,      12.29,    14.74,    12.60,     9.80,    12.02
      172.0,      12.25,    14.70,    12.55,     9.76,    11.99
      173.0,      12.21,    14.66,    12.50,     9.73,    11.97
      174.0,      12.18,    14.62,    12.45,     9.69,    11.94
      175.0,      12.14,    14.58,    12.41,     9.65,    11.91
      176.0,      12.10,    14.54,    12.36,     9.61,    11.89
      177.0,      12.06,    14.51,    12.31,     9.58,    11.86
      178.0,      12.03,    14.47,    12.26,     9.54,    11.84
      179.0,      11.99,    14.43,    12.22,     9.51,    11.81
      180.0,      11.95,    14.39,    12.17,     9.47,    11.78
      181.0,      11.92,    14.35,    12.12,     9.43,    11.76
      182.0,      11.88,    14.32,    12.08,     9.40,    11.73
      183.0,      11.85,    14.28,    12.03,     9.36,    11.71
      184.0,      11.81,    14.24,    11.99,     9.33,    11.68
      185.0,      11.77,    14.20,    11.94,     9.29,    11.66
      186.0,      11.74,    14.17,    11.90,     9.26,    11.63
      187.0,      11.70,    14.13,    11.85,     9.22,    11.61
      188.0,      11.67,    14.09,    11.81,     9.19,    11.58
      189.0,      11.63,    14.06,    11.76,     9.16,    11.56
      190.0,      11.60,    14.02,    11.72,     9.12,    11.54
      191.0,      11.56,    13.98,    11.68,     9.09,    11.51
      192.0,      11.53,    13.95,    11.63,     9.05,    11.49
      193.0,      11.50,    13.91,    11.59,     9.02,    11.46
      194.0,      11.46,    13.88,    11.54,     8.99,    11.44
      195.0,      11.43,    13.84,    11.50,     8.95,    11.42
      196.0,      11.39,    13.81,    11.46,     8.92,    11.39
      197.0,      11.36,    13.77,    11.42,     8.89,    11.37
      198.0,      11.33,    13.74,    11.37,     8.86,    11.35
      199.0,      11.29,    13.70,    11.33,     8.82,    11.32
      200.0,      11.26,    13.67,    11.29,     8.79,    11.30
      201.0,      11.23,    13.63,    11.25,     8.76,    11.28
      202.0,      11.20,    13.60,    11.21,     8.73,    11.25
      203.0,      11.16,    13.56,    11.16,     8.69,    11.23
      204.0,      11.13,    13.53,    11.12,     8.66,    11.21
      205.0,      11.10,    13.49,    11.08,     8.63,    11.18
      206.0,      11.06,    13.46,    11.04,     8.60,    11.16
      207.0,      11.03,    13.42,    11.00,     8.57,    11.14
      208.0,      11.00,    13.39,    10.96,     8.54,    11.12
      209.0,      10.97,    13.36,    10.92,     8.51,    11.09
      210.0,      10.94,    13.32,    10.88,     8.48,    11.07
      211.0,      10.90,    13.29,    10.84,     8.44,    11.05
      212.0,      10.87,    13.26,    10.80,     8.41,    11.03
      213.0,      10.84,    13.22,    10.76,     8.38,    11.00
      214.0,      10.81,    13.19,    10.72,     8.35,    10.98
      215.0,      10.78,    13.16,    10.68,     8.32,    10.96
      216.0,      10.75,    13.12,    10.64,     8.29,    10.94
      217.0,      10.72,    13.09,    10.60,     8.26,    10.92
      218.0,      10.69,    13.06,    10.56,     8.23,    10.89
      219.0,      10.65,    13.02,    10.52,     8.20,    10.87
      220.0,      10.62,    12.99,    10.48,     8.17,    10.85
      221.0,      10.59,    12.96,    10.44,     8.14,    10.83
      222.0,      10.56,    12.93,    10.41,     8.11,    10.81
      223.0,      10.53,    12.89,    10.37,     8.08,    10.79
      224.0,      10.50,    12.86,    10.33,     8.06,    10.76
      225.0,      10.47,    12.83,    10.29,     8.03,    10.74
      226.0,      10.44,    12.80,    10.25,     8.00,    10.72
      227.0,      10.41,    12.76,    10.22,     7.97,    10.70
      228.0,      10.38,    12.73,    10.18,     7.94,    10.68
      229.0,      10.35,    12.70,    10.14,     7.91,    10.66
      230.0,      10.32,    12.67,    10.10,     7.88,    10.64
      231.0,      10.29,    12.64,    10.07,     7.85,    10.61
      232.0,      10.26,    12.60,    10.03,     7.83,    10.59
      233.0,      10.23,    12.57,     9.99,     7.80,    10.57
      234.0,      10.20,    12.54,     9.96,     7.77,    10.55
      235.0,      10.18,    12.51,     9.92,     7.74,    10.53
      236.0,      10.15,    12.48,     9.88,     7.71,    10.51
      237.0,      10.12,    12.45,     9.85,     7.69,    10.49
      238.0,      10.09,    12.42,     9.81,     7.66,    10.47
      239.0,      10.06,    12.39,     9.78,     7.63,    10.45
      240.0,      10.03,    12.35,     9.74,     7.60,    10.43
      241.0,      10.00,    12.32,     9.70,     7.58,    10.41
      242.0,       9.97,    12.29,     9.67,     7.55,    10.39
      243.0,       9.95,    12.26,     9.63,     7.52,    10.37
      244.0,       9.92,    12.23,     9.60,     7.49,    10.34
      245.0,       9.89,    12.20,     9.56,     7.47,    10.32
      246.0,       9.86,    12.17,     9.53,     7.44,    10.30
      247.0,       9.83,    12.14,     9.49,     7.41,    10.28
      248.0,       9.81,    12.11,     9.46,     7.39,    10.26
      249.0,       9.78,    12.08,     9.42,     7.36,    10.24
      250.0,       9.75,    12.05,     9.39,     7.33,    10.22
      251.0,       9.72,    12.02,     9.36,     7.31,    10.20
      252.0,       9.69,    11.99,     9.32,     7.28,    10.18
      253.0,       9.67,    11.96,     9.29,     7.26,    10.16
      254.0,       9.64,    11.93,     9.25,     7.23,    10.14
      255.0,       9.61,    11.90,     9.22,     7.20,    10.12
      256.0,       9.58,    11.87,     9.19,     7.18,    10.10
      257.0,       9.56,    11.84,     9.15,     7.15,    10.08
      258.0,       9.53,    11.81,     9.12,     7.13,    10.06
      259.0,       9.50,    11.78,     9.09,     7.10,    10.04
      260.0,       9.48,    11.75,     9.05,     7.07,    10.02
      261.0,       9.45,    11.72,     9.02,     7.05,    10.00
      262.0,       9.42,    11.70,     8.99,     7.02,     9.98
      263.0,       9.40,    11.67,     8.95,     7.00,     9.96
      264.0,       9.37,    11.64,     8.92,     6.97,     9.95
      265.0,       9.34,    11.61,     8.89,     6.95,     9.93
      266.0,       9.32,    11.58,     8.86,     6.92,     9.91
      267.0,       9.29,    11.55,     8.82,     6.90,     9.89
      268.0,       9.26,    11.52,     8.79,     6.87,     9.87
      269.0,       9.24,    11.49,     8.76,     6.85,     9.85
      270.0,       9.21,    11.46,     8.73,     6.83,     9.83
      271.0,       9.19,    11.44,     8.70,     6.80,     9.81
      272.0,       9.16,    11.41,     8.66,     6.78,     9.79
      273.0,       9.13,    11.38,     8.63,     6.75,     9.77
      274.0,       9.11,    11.35,     8.60,     6.73,     9.75
      275.0,       9.08,    11.32,     8.57,     6.70,     9.73
      276.0,       9.06,    11.29,     8.54,     6.68,     9.71
      277.0,       9.03,    11.27,     8.51,     6.66,     9.69
      278.0,       9.01,    11.24,     8.48,     6.63,     9.68
      279.0,       8.98,    11.21,     8.45,     6.61,     9.66
      280.0,       8.96,    11.18,     8.42,     6.58,     9.64
      281.0,       8.93,    11.15,     8.38,     6.56,     9.62
      282.0,       8.90,    11.13,     8.35,     6.54,     9.60
      283.0,       8.88,    11.10,     8.32,     6.51,     9.58
      284.0,       8.85,    11.07,     8.29,     6.49,     9.56
      285.0,       8.83,    11.04,     8.26,     6.47,     9.54
      286.0,       8.80,    11.02,     8.23,     6.44,     9.52
      287.0,       8.78,    10.99,     8.20,     6.42,     9.51
      288.0,       8.76,    10.96,     8.17,     6.40,     9.49
      289.0,       8.73,    10.93,     8.14,     6.38,     9.47
      290.0,       8.71,    10.91,     8.11,     6.35,     9.45
      291.0,       8.68,    10.88,     8.08,     6.33,     9.43
      292.0,       8.66,    10.85,     8.05,     6.31,     9.41
      293.0,       8.63,    10.83,     8.03,     6.28,     9.39
      294.0,       8.61,    10.80,     8.00,     6.26,     9.38
      295.0,       8.58,    10.77,     7.97,     6.24,     9.36
      296.0,       8.56,    10.75,     7.94,     6.22,     9.34
      297.0,       8.54,    10.72,     7.91,     6.20,     9.32
      298.0,       8.51,    10.69,     7.88,     6.17,     9.30
      299.0,       8.49,    10.67,     7.85,     6.15,     9.28
      300.0,       8.46,    10.64,     7.82,     6.13,     9.27
      301.0,       8.44,    10.61,     7.79,     6.11,     9.25
      302.0,       8.42,    10.59,     7.77,     6.09,     9.23
      303.0,       8.39,    10.56,     7.74,     6.06,     9.21
      304.0,       8.37,    10.53,     7.71,     6.04,     9.19
      305.0,       8.35,    10.51,     7.68,     6.02,     9.18
      306.0,       8.32,    10.48,     7.65,     6.00,     9.16
      307.0,       8.30,    10.46,     7.63,     5.98,     9.14
      308.0,       8.28,    10.43,     7.60,     5.96,     9.12
      309.0,       8.25,    10.40,     7.57,     5.93,     9.10
      310.0,       8.23,    10.38,     7.54,     5.91,     9.09
