Radius (km), Mean (m/s), NE (m/s), SE (m/s), SW (m/s), NW (m/s)
        0.0,       0.00,     0.00,     0.00,     0.00,     0.00
        1.0,       3.10,     2.81,     3.14,     3.32,     3.14
        2.0,       5.36,     5.30,     5.50,     5.13,     5.50
        3.0,       7.40,     7.70,     7.64,     6.62,     7.64
        4.0,       9.35,    10.07,     9.69,     7.95,     9.68
        5.0,      11.29,    12.52,    11.74,     9.19,    11.72
        6.0,      13.32,    15.15,    13.87,    10.42,    13.84
        7.0,      15.48,    18.02,    16.13,    11.67,    16.11
        8.0,      17.80,    21.14,    18.54,    12.98,    18.54
        9.0,      20.23,    24.45,    21.05,    14.34,    21.09
       10.0,      22.71,    27.85,    23.59,    15.70,    23.69
       11.0,      25.11,    31.16,    26.03,    17.03,    26.20
       12.0,      27.31,    34.22,    28.27,    18.24,    28.51
       13.0,      29.20,    36.85,    30.19,    19.29,    30.48
       14.0,      30.69,    38.93,    31.70,    20.12,    32.03
       15.0,      31.73,    40.37,    32.76,    20.70,    33.08
       16.0,      32.30,    41.17,    33.37,    21.01,    33.65
       17.0,      32.45,    41.37,    33.57,    21.09,    33.76
       18.0,      32.24,    41.08,    33.43,    20.95,    33.50
       19.0,      31.77,    40.43,    33.04,    20.66,    32.96
       20.0,      31.15,    39.55,    32.51,    20.27,    32.26
       21.0,      30.45,    38.58,    31.91,    19.84,    31.48
       22.0,      29.75,    37.60,    31.31,    19.40,    30.70
       23.0,      29.08,    36.67,    30.74,    18.97,    29.95
       24.0,      28.46,    35.81,    30.20,    18.57,    29.25
       25.0,      27.88,    35.00,    29.70,    18.20,    28.60
       26.0,      27.32,    34.23,    29.23,    17.85,    27.98
       27.0,      26.79,    33.48,    28.77,    17.51,    27.38
       28.0,      26.27,    32.77,    28.32,    17.19,    26.81
       29.0,      25.77,    32.08,    27.89,    16.87,    26.25
       30.0,      25.29,    31.41,    27.47,    16.57,    25.72
       31.0,      24.83,    30.77,    27.07,    16.28,    25.21
       32.0,      24.39,    30.15,    26.68,    16.00,    24.71
       33.0,      23.96,    29.56,    26.31,    15.73,    24.23
       34.0,      23.54,    28.99,    25.95,    15.47,    23.77
       35.0,      23.14,    28.44,    25.60,    15.21,    23.33
       36.0,      22.76,    27.90,    25.26,    14.97,    22.90
       37.0,      22.39,    27.39,    24.93,    14.73,    22.49
       38.0,      22.03,    26.90,    24.61,    14.51,    22.09
       39.0,      21.68,    26.42,    24.31,    14.29,    21.71
       40.0,      21.35,    25.96,    24.01,    14.08,    21.34
       41.0,      21.03,    25.52,    23.72,    13.87,    20.99
       42.0,      20.71,    25.09,    23.45,    13.68,    20.65
       43.0,      20.41,    24.68,    23.18,    13.49,    20.31
       44.0,      20.12,    24.28,    22.92,    13.30,    20.00
       45.0,      19.84,    23.90,    22.66,    13.12,    19.69
       46.0,      19.57,    23.53,    22.42,    12.95,    19.39
       47.0,      19.31,    23.17,    22.18,    12.79,    19.10
       48.0,      19.06,    22.82,    21.95,    12.63,    18.83
       49.0,      18.81,    22.49,    21.73,    12.47,    18.56
       50.0,      18.58,    22.17,    21.51,    12.32,    18.30
       51.0,      18.35,    21.86,    21.30,    12.18,    18.05
       52.0,      18.13,    21.56,    21.10,    12.04,    17.81
       53.0,      17.91,    21.27,    20.90,    11.90,    17.58
       54.0,      17.71,    20.99,    20.71,    11.77,    17.36
       55.0,      17.50,    20.72,    20.52,    11.64,    17.14
       56.0,      17.31,    20.45,    20.34,    11.52,    16.93
       57.0,      17.12,    20.20,    20.16,    11.40,    16.73
       58.0,      16.94,    19.96,    19.99,    11.28,    16.53
       59.0,      16.77,    19.72,    19.82,    11.17,    16.35
       60.0,      16.59,    19.49,    19.66,    11.06,    16.16
       61.0,      16.43,    19.27,    19.50,    10.96,    15.99
       62.0,      16.27,    19.05,    19.35,    10.86,    15.81
       63.0,      16.11,    18.85,    19.20,    10.76,    15.65
       64.0,      15.96,    18.65,    19.06,    10.66,    15.49
       65.0,      15.82,    18.45,    18.91,    10.57,    15.33
       66.0,      15.67,    18.26,    18.78,    10.48,    15.18
       67.0,      15.54,    18.08,    18.64,    10.39,    15.04
       68.0,      15.40,    17.90,    18.51,    10.30,    14.89
       69.0,      15.27,    17.73,    18.38,    10.22,    14.76
       70.0,      15.15,    17.57,    18.26,    10.14,    14.63
       71.0,      15.02,    17.40,    18.13,    10.06,    14.50
       72.0,      14.90,    17.25,    18.02,     9.99,    14.37
       73.0,      14.79,    17.10,    17.90,     9.91,    14.25
       74.0,      14.68,    16.95,    17.78,     9.84,    14.13
       75.0,      14.57,    16.80,    17.67,     9.77,    14.02
       76.0,      14.46,    16.67,    17.56,     9.70,    13.91
       77.0,      14.36,    16.53,    17.46,     9.63,    13.80
       78.0,      14.25,    16.40,    17.35,     9.57,    13.70
       79.0,      14.16,    16.27,    17.25,     9.51,    13.60
       80.0,      14.06,    16.15,    17.15,     9.44,    13.50
       81.0,      13.97,    16.03,    17.05,     9.38,    13.40
       82.0,      13.88,    15.91,    16.96,     9.32,    13.31
       83.0,      13.79,    15.79,    16.86,     9.27,    13.22
       84.0,      13.70,    15.68,    16.77,     9.21,    13.13
       85.0,      13.61,    15.58,    16.68,     9.16,    13.04
       86.0,      13.53,    15.47,    16.59,     9.10,    12.96
       87.0,      13.45,    15.37,    16.51,     9.05,    12.88
       88.0,      13.37,    15.27,    16.42,     9.00,    12.80
       89.0,      13.29,    15.17,    16.34,     8.95,    12.72
       90.0,      13.22,    15.07,    16.26,     8.90,    12.64
       91.0,      13.14,    14.98,    16.17,     8.85,    12.57
       92.0,      13.07,    14.89,    16.10,     8.81,    12.50
       93.0,      13.00,    14.80,    16.02,     8.76,    12.43
       94.0,      12.93,    14.71,    15.94,     8.72,    12.36
       95.0,      12.86,    14.63,    15.86,     8.67,    12.29
       96.0,      12.80,    14.55,    15.79,     8.63,    12.23
       97.0,      12.73,    14.47,    15.72,     8.59,    12.16
       98.0,      12.67,    14.39,    15.64,     8.55,    12.10
       99.0,      12.61,    14.31,    15.57,     8.51,    12.04
      100.0,      12.55,    14.23,    15.50,     8.47,    11.98
      101.0,      12.49,    14.16,    15.43,     8.43,    11.92
      102.0,      12.43,    14.09,    15.37,     8.39,    11.86
      103.0,      12.37,    14.01,    15.30,     8.35,    11.81
      104.0,      12.31,    13.94,    15.23,     8.31,    11.75
      105.0,      12.25,    13.88,    15.17,     8.28,    11.70
      106.0,      12.20,    13.81,    15.10,     8.24,    11.64
      107.0,      12.15,    13.74,    15.04,     8.21,    11.59
      108.0,      12.09,    13.68,    14.98,     8.17,    11.54
      109.0,      12.04,    13.62,    14.91,     8.14,    11.49
      110.0,      11.99,    13.55,    14.85,     8.10,    11.44
      111.0,      11.94,    13.49,    14.79,     8.07,    11.39
      112.0,      11.89,    13.43,    14.73,     8.04,    11.35
      113.0,      11.84,    13.37,    14.67,     8.01,    11.30
      114.0,      11.79,    13.31,    14.61,     7.97,    11.25
      115.0,      11.74,    13.26,    14.55,     7.94,    11.21
      116.0,      11.69,    13.20,    14.50,     7.91,    11.16
      117.0,      11.65,    13.14,    14.44,     7.88,    11.12
      118.0,      11.60,    13.09,    14.38,     7.85,    11.08
      119.0,      11.56,    13.04,    14.33,     7.82,    11.04
      120.0,      11.51,    12.98,    14.27,     7.79,    10.99
      121.0,      11.47,    12.93,    14.22,     7.76,    10.95
      122.0,      11.42,    12.88,    14.16,     7.73,    10.91
      123.0,      11.38,    12.83,    14.11,     7.71,    10.87
      124.0,      11.34,    12.78,    14.06,     7.68,    10.83
      125.0,      11.29,    12.73,    14.00,     7.65,    10.79
      126.0,      11.25,    12.68,    13.95,     7.62,    10.76
      127.0,      11.21,    12.63,    13.90,     7.59,    10.72
      128.0,      11.17,    12.58,    13.85,     7.57,    10.68
      129.0,      11.13,    12.54,    13.80,     7.54,    10.64
      130.0,      11.09,    12.49,    13.75,     7.52,    10.61
      131.0,      11.05,    12.45,    13.70,     7.49,    10.57
      132.0,      11.01,    12.40,    13.65,     7.46,    10.54
      133.0,      10.97,    12.36,    13.60,     7.44,    10.50
      134.0,      10.93,    12.31,    13.55,     7.41,    10.47
      135.0,      10.90,    12.27,    13.50,     7.39,    10.43
      136.0,      10.86,    12.22,    13.45,     7.36,    10.40
      137.0,      10.82,    12.18,    13.40,     7.34,    10.36
      138.0,      10.78,    12.14,    13.36,     7.31,    10.33
      139.0,      10.75,    12.10,    13.31,     7.29,    10.30
      140.0,      10.71,    12.05,    13.26,     7.27,    10.26
      141.0,      10.68,    12.01,    13.22,     7.24,    10.23
      142.0,      10.64,    11.97,    13.17,     7.22,    10.20
      143.0,      10.60,    11.93,    13.12,     7.19,    10.17
      144.0,      10.57,    11.89,    13.08,     7.17,    10.14
      145.0,      10.53,    11.85,    13.03,     7.15,    10.10
      146.0,      10.50,    11.81,    12.99,     7.12,    10.07
      147.0,      10.46,    11.77,    12.94,     7.10,    10.04
      148.0,      10.43,    11.73,    12.90,     7.08,    10.01
      149.0,      10.40,    11.70,    12.85,     7.06,     9.98
      150.0,      10.36,    11.66,    12.81,     7.03,     9.95
      151.0,      10.33,    11.62,    12.76,     7.01,     9.92
      152.0,      10.30,    11.58,    12.72,     6.99,     9.89
      153.0,      10.26,    11.54,    12.68,     6.97,     9.86
      154.0,      10.23,    11.51,    12.63,     6.95,     9.83
      155.0,      10.20,    11.47,    12.59,     6.93,     9.80
      156.0,      10.17,    11.43,    12.55,     6.90,     9.78
      157.0,      10.13,    11.40,    12.50,     6.88,     9.75
      158.0,      10.10,    11.36,    12.46,     6.86,     9.72
      159.0,      10.07,    11.33,    12.42,     6.84,     9.69
      160.0,      10.04,    11.29,    12.38,     6.82,     9.66
      161.0,      10.01,    11.25,    12.34,     6.80,     9.63
      162.0,       9.97,    11.22,    12.29,     6.78,     9.61
      163.0,       9.94,    11.18,    12.25,     6.76,     9.58
      164.0,       9.91,    11.15,    12.21,     6.74,     9.55
      165.0,       9.88,    11.12,    12.17,     6.72,     9.52
      166.0,       9.85,    11.08,    12.13,     6.69,     9.50
      167.0,       9.82,    11.05,    12.09,     6.67,     9.47
      168.0,       9.79,    11.01,    12.05,     6.65,     9.44
      169.0,       9.76,    10.98,    12.01,     6.63,     9.42
      170.0,       9.73,    10.95,    11.97,     6.61,     9.39
      171.0,       9.70,    10.91,    11.93,     6.59,     9.36
      172.0,       9.67,    10.88,    11.89,     6.57,     9.34
      173.0,       9.64,    10.85,    11.85,     6.55,     9.31
      174.0,       9.61,    10.81,    11.81,     6.54,     9.29
      175.0,       9.58,    10.78,    11.77,     6.52,     9.26
      176.0,       9.55,    10.75,    11.73,     6.50,     9.23
      177.0,       9.52,    10.72,    11.69,     6.48,     9.21
      178.0,       9.49,    10.68,    11.66,     6.46,     9.18
      179.0,       9.47,    10.65,    11.62,     6.44,     9.16
      180.0,       9.44,    10.62,    11.58,     6.42,     9.13
      181.0,       9.41,    10.59,    11.54,     6.40,     9.11
      182.0,       9.38,    10.56,    11.50,     6.38,     9.08
      183.0,       9.35,    10.52,    11.46,     6.36,     9.06
      184.0,       9.32,    10.49,    11.43,     6.34,     9.03
      185.0,       9.30,    10.46,    11.39,     6.33,     9.01
      186.0,       9.27,    10.43,    11.35,     6.31,     8.98
      187.0,       9.24,    10.40,    11.31,     6.29,     8.96
      188.0,       9.21,    10.37,    11.28,     6.27,     8.94
      189.0,       9.18,    10.34,    11.24,     6.25,     8.91
      190.0,       9.16,    10.31,    11.20,     6.23,     8.89
      191.0,       9.13,    10.28,    11.17,     6.21,     8.86
      192.0,       9.10,    10.25,    11.13,     6.20,     8.84
      193.0,       9.08,    10.22,    11.09,     6.18,     8.81
      194.0,       9.05,    10.19,    11.06,     6.16,     8.79
      195.0,       9.02,    10.16,    11.02,     6.14,     8.77
      196.0,       8.99,    10.13,    10.98,     6.12,     8.74
      197.0,       8.97,    10.10,    10.95,     6.11,     8.72
      198.0,       8.94,    10.07,    10.91,     6.09,     8.70
      199.0,       8.91,    10.04,    10.88,     6.07,     8.67
      200.0,       8.89,    10.01,    10.84,     6.05,     8.65
      201.0,       8.86,     9.98,    10.81,     6.04,     8.63
      202.0,       8.84,     9.95,    10.77,     6.02,     8.60
      203.0,       8.81,     9.92,    10.74,     6.00,     8.58
      204.0,       8.78,     9.89,    10.70,     5.98,     8.56
      205.0,       8.76,     9.86,    10.67,     5.97,     8.53
      206.0,       8.73,     9.83,    10.63,     5.95,     8.51
      207.0,       8.71,     9.80,    10.60,     5.93,     8.49
      208.0,       8.68,     9.78,    10.56,     5.91,     8.47
      209.0,       8.65,     9.75,    10.53,     5.90,     8.44
      210.0,       8.63,     9.72,    10.49,     5.88,     8.42
      211.0,       8.60,     9.69,    10.46,     5.86,     8.40
      212.0,       8.58,     9.66,    10.43,     5.84,     8.38
      213.0,       8.55,     9.64,    10.39,     5.83,     8.35
      214.0,       8.53,     9.61,    10.36,     5.81,     8.33
      215.0,       8.50,     9.58,    10.32,     5.79,     8.31
      216.0,       8.48,     9.55,    10.29,     5.78,     8.29
      217.0,       8.45,     9.52,    10.26,     5.76,     8.26
      218.0,       8.43,     9.50,    10.22,     5.74,     8.24
      219.0,       8.40,     9.47,    10.19,     5.73,     8.22
      220.0,       8.38,     9.44,    10.16,     5.71,     8.20
      221.0,       8.35,     9.41,    10.12,     5.69,     8.18
      222.0,       8.33,     9.39,    10.09,     5.68,     8.16
      223.0,       8.30,     9.36,    10.06,     5.66,     8.13
      224.0,       8.28,     9.33,    10.03,     5.65,     8.11
      225.0,       8.25,     9.31,     9.99,     5.63,     8.09
      226.0,       8.23,     9.28,     9.96,     5.61,     8.07
      227.0,       8.21,     9.25,     9.93,     5.60,     8.05
      228.0,       8.18,     9.22,     9.90,     5.58,     8.03
      229.0,       8.16,     9.20,     9.86,     5.56,     8.01
      230.0,       8.13,     9.17,     9.83,     5.55,     7.98
      231.0,       8.11,     9.15,     9.80,     5.53,     7.96
      232.0,       8.09,     9.12,     9.77,     5.52,     7.94
      233.0,       8.06,     9.09,     9.74,     5.50,     7.92
      234.0,       8.04,     9.07,     9.71,     5.48,     7.90
      235.0,       8.02,     9.04,     9.67,     5.47,     7.88
      236.0,       7.99,     9.01,     9.64,     5.45,     7.86
      237.0,       7.97,     8.99,     9.61,     5.44,     7.84
      238.0,       7.95,     8.96,     9.58,     5.42,     7.82
      239.0,       7.92,     8.94,     9.55,     5.41,     7.80
      240.0,       7.90,     8.91,     9.52,     5.39,     7.78
      241.0,       7.88,     8.89,     9.49,     5.37,     7.76
      242.0,       7.85,     8.86,     9.46,     5.36,     7.73
      243.0,       7.83,     8.83,     9.43,     5.34,     7.71
      244.0,       7.81,     8.81,     9.40,     5.33,     7.69
      245.0,       7.78,     8.78,     9.36,     5.31,     7.67
      246.0,       7.76,     8.76,     9.33,     5.30,     7.65
      247.0,       7.74,     8.73,     9.30,     5.28,     7.63
      248.0,       7.72,     8.71,     9.27,     5.27,     7.61
      249.0,       7.69,     8.68,     9.24,     5.25,     7.59
      250.0,       7.67,     8.66,     9.21,     5.24,     7.57
      251.0,       7.65,     8.63,     9.18,     5.22,     7.55
      252.0,       7.63,     8.61,     9.15,     5.21,     7.53
      253.0,       7.60,     8.58,     9.12,     5.19,     7.51
      254.0,       7.58,     8.56,     9.10,     5.18,     7.49
      255.0,       7.56,     8.53,     9.07,     5.16,     7.47
      256.0,       7.54,     8.51,     9.04,     5.15,     7.45
      257.0,       7.51,     8.48,     9.01,     5.13,     7.43
      258.0,       7.49,     8.46,     8.98,     5.12,     7.41
      259.0,       7.47,     8.44,     8.95,     5.10,     7.39
      260.0,       7.45,     8.41,     8.92,     5.09,     7.38
      261.0,       7.43,     8.39,     8.89,     5.07,     7.36
      262.0,       7.41,     8.36,     8.86,     5.06,     7.34
      263.0,       7.38,     8.34,     8.83,     5.04,     7.32
      264.0,       7.36,     8.32,     8.81,     5.03,     7.30
      265.0,       7.34,     8.29,     8.78,     5.02,     7.28
      266.0,       7.32,     8.27,     8.75,     5.00,     7.26
      267.0,       7.30,     8.24,     8.72,     4.99,     7.24
      268.0,       7.28,     8.22,     8.69,     4.97,     7.22
      269.0,       7.26,     8.20,     8.66,     4.96,     7.20
      270.0,       7.23,     8.17,     8.64,     4.94,     7.18
      271.0,       7.21,     8.15,     8.61,     4.93,     7.16
      272.0,       7.19,     8.13,     8.58,     4.92,     7.15
      273.0,       7.17,     8.10,     8.55,     4.90,     7.13
      274.0,       7.15,     8.08,     8.52,     4.89,     7.11
      275.0,       7.13,     8.06,     8.50,     4.87,     7.09
      276.0,       7.11,     8.03,     8.47,     4.86,     7.07
      277.0,       7.09,     8.01,     8.44,     4.85,     7.05
      278.0,       7.07,     7.99,     8.41,     4.83,     7.03
      279.0,       7.05,     7.96,     8.39,     4.82,     7.02
      280.0,       7.03,     7.94,     8.36,     4.80,     7.00
      281.0,       7.01,     7.92,     8.33,     4.79,     6.98
      282.0,       6.98,     7.90,     8.31,     4.78,     6.96
      283.0,       6.96,     7.87,     8.28,     4.76,     6.94
      284.0,       6.94,     7.85,     8.25,     4.75,     6.92
      285.0,       6.92,     7.83,     8.23,     4.74,     6.90
      286.0,       6.90,     7.81,     8.20,     4.72,     6.89
      287.0,       6.88,     7.78,     8.17,     4.71,     6.87
      288.0,       6.86,     7.76,     8.15,     4.69,     6.85
      289.0,       6.84,     7.74,     8.12,     4.68,     6.83
      290.0,       6.82,     7.72,     8.09,     4.67,     6.81
      291.0,       6.80,     7.69,     8.07,     4.65,     6.80
      292.0,       6.78,     7.67,     8.04,     4.64,     6.78
      293.0,       6.76,     7.65,     8.02,     4.63,     6.76
      294.0,       6.74,     7.63,     7.99,     4.61,     6.74
      295.0,       6.72,     7.61,     7.96,     4.60,     6.73
      296.0,       6.70,     7.59,     7.94,     4.59,     6.71
      297.0,       6.69,     7.56,     7.91,     4.57,     6.69
      298.0,       6.67,     7.54,     7.89,     4.56,     6.67
      299.0,       6.65,     7.52,     7.86,     4.55,     6.65
      300.0,       6.63,     7.50,     7.84,     4.54,     6.64
      301.0,       6.61,     7.48,     7.81,     4.52,     6.62
      302.0,       6.59,     7.46,     7.79,     4.51,     6.60
      303.0,       6.57,     7.43,     7.76,     4.50,     6.59
      304.0,       6.55,     7.41,     7.73,     4.48,     6.57
      305.0,       6.53,     7.39,     7.71,     4.47,     6.55
      306.0,       6.51,     7.37,     7.68,     4.46,     6.53
      307.0,       6.49,     7.35,     7.66,     4.45,     6.52
      308.0,       6.47,     7.33,     7.64,     4.43,     6.50
      309.0,       6.45,     7.31,     7.61,     4.42,     6.48
      310.0,       6.44,     7.29,     7.59,     4.41,     6.46
