Radius (km), Mean (m/s), NE (m/s), SE (m/s), SW (m/s), NW (m/s)
        0.0,       0.00,     0.00,     0.00,     0.00,     0.00
        1.0,       1.08,     0.83,     1.19,     1.36,     0.94
        2.0,       1.95,     1.62,     2.10,     2.30,     1.78
        3.0,       2.76,     2.39,     2.93,     3.12,     2.58
        4.0,       3.53,     3.16,     3.71,     3.88,     3.36
        5.0,       4.27,     3.92,     4.46,     4.60,     4.12
        6.0,       5.00,     4.67,     5.17,     5.28,     4.87
        7.0,       5.71,     5.42,     5.87,     5.94,     5.60
        8.0,       6.41,     6.17,     6.55,     6.57,     6.33
        9.0,       7.09,     6.91,     7.21,     7.18,     7.06
       10.0,       7.77,     7.65,     7.86,     7.78,     7.77
       11.0,       8.43,     8.39,     8.50,     8.37,     8.48
       12.0,       9.09,     9.12,     9.13,     8.94,     9.18
       13.0,       9.74,     9.86,     9.74,     9.50,     9.88
       14.0,      10.39,    10.59,    10.35,    10.04,    10.58
       15.0,      11.03,    11.32,    10.95,    10.58,    11.27
       16.0,      11.67,    12.04,    11.55,    11.11,    11.96
       17.0,      12.30,    12.77,    12.14,    11.64,    12.64
       18.0,      12.92,    13.49,    12.72,    12.15,    13.32
       19.0,      13.54,    14.22,    13.29,    12.66,    13.99
       20.0,      14.16,    14.94,    13.86,    13.16,    14.67
       21.0,      14.77,    15.66,    14.43,    13.66,    15.34
       22.0,      15.38,    16.38,    14.99,    14.15,    16.01
       23.0,      15.99,    17.10,    15.55,    14.64,    16.67
       24.0,      16.59,    17.81,    16.10,    15.12,    17.34
       25.0,      17.19,    18.53,    16.64,    15.59,    18.00
       26.0,      17.79,    19.24,    17.19,    16.06,    18.65
       27.0,      18.38,    19.96,    17.73,    16.53,    19.31
       28.0,      18.97,    20.67,    18.26,    16.99,    19.97
       29.0,      19.56,    21.38,    18.79,    17.45,    20.62
       30.0,      20.15,    22.09,    19.32,    17.90,    21.27
       31.0,      20.73,    22.81,    19.85,    18.35,    21.92
       32.0,      21.31,    23.51,    20.37,    18.80,    22.56
       33.0,      21.89,    24.22,    20.89,    19.24,    23.21
       34.0,      22.47,    24.93,    21.41,    19.68,    23.85
       35.0,      23.04,    25.64,    21.92,    20.12,    24.50
       36.0,      23.62,    26.35,    22.43,    20.56,    25.14
       37.0,      24.19,    27.05,    22.94,    20.99,    25.78
       38.0,      24.76,    27.76,    23.45,    21.42,    26.41
       39.0,      25.33,    28.46,    23.95,    21.84,    27.05
       40.0,      25.89,    29.17,    24.46,    22.27,    27.68
       41.0,      26.46,    29.87,    24.96,    22.69,    28.32
       42.0,      27.02,    30.57,    25.45,    23.11,    28.95
       43.0,      27.58,    31.27,    25.95,    23.52,    29.58
       44.0,      28.14,    31.98,    26.44,    23.93,    30.21
       45.0,      28.70,    32.68,    26.93,    24.35,    30.84
       46.0,      29.26,    33.38,    27.42,    24.76,    31.47
       47.0,      29.81,    34.08,    27.91,    25.16,    32.09
       48.0,      30.36,    34.78,    28.39,    25.57,    32.72
       49.0,      30.92,    35.48,    28.88,    25.97,    33.34
       50.0,      31.47,    36.18,    29.36,    26.37,    33.97
       51.0,      32.02,    36.88,    29.84,    26.78,    34.59
       52.0,      32.59,    37.62,    30.32,    27.19,    35.23
       53.0,      33.20,    38.44,    30.81,    27.64,    35.91
       54.0,      33.86,    39.35,    31.33,    28.12,    36.66
       55.0,      34.60,    40.39,    31.88,    28.63,    37.48
       56.0,      35.40,    41.53,    32.48,    29.19,    38.39
       57.0,      36.24,    42.72,    33.12,    29.76,    39.34
       58.0,      37.08,    43.90,    33.78,    30.32,    40.30
       59.0,      37.87,    44.99,    34.43,    30.84,    41.21
       60.0,      38.56,    45.90,    35.04,    31.30,    42.01
       61.0,      39.11,    46.57,    35.55,    31.67,    42.64
       62.0,      39.47,    46.95,    35.95,    31.93,    43.06
       63.0,      39.65,    47.03,    36.21,    32.08,    43.26
       64.0,      39.63,    46.83,    36.32,    32.13,    43.25
       65.0,      39.45,    46.38,    36.30,    32.10,    43.04
       66.0,      39.14,    45.76,    36.15,    31.99,    42.68
       67.0,      38.75,    45.02,    35.91,    31.84,    42.22
       68.0,      38.31,    44.24,    35.62,    31.67,    41.71
       69.0,      37.86,    43.46,    35.30,    31.50,    41.19
       70.0,      37.43,    42.73,    34.99,    31.33,    40.70
       71.0,      37.03,    42.04,    34.68,    31.17,    40.23
       72.0,      36.66,    41.40,    34.41,    31.02,    39.80
       73.0,      36.30,    40.79,    34.14,    30.87,    39.40
       74.0,      35.95,    40.20,    33.89,    30.72,    39.01
       75.0,      35.62,    39.63,    33.65,    30.57,    38.63
       76.0,      35.30,    39.09,    33.41,    30.43,    38.26
       77.0,      34.98,    38.56,    33.17,    30.28,    37.91
       78.0,      34.67,    38.05,    32.93,    30.14,    37.56
       79.0,      34.37,    37.56,    32.70,    30.00,    37.22
       80.0,      34.08,    37.09,    32.47,    29.85,    36.90
       81.0,      33.79,    36.63,    32.25,    29.71,    36.58
       82.0,      33.51,    36.19,    32.02,    29.57,    36.27
       83.0,      33.24,    35.76,    31.80,    29.43,    35.97
       84.0,      32.98,    35.35,    31.58,    29.29,    35.68
       85.0,      32.72,    34.95,    31.37,    29.16,    35.40
       86.0,      32.47,    34.57,    31.16,    29.02,    35.12
       87.0,      32.22,    34.20,    30.95,    28.88,    34.85
       88.0,      31.98,    33.84,    30.74,    28.75,    34.59
       89.0,      31.74,    33.49,    30.54,    28.61,    34.34
       90.0,      31.51,    33.15,    30.34,    28.48,    34.09
       91.0,      31.29,    32.83,    30.14,    28.35,    33.85
       92.0,      31.07,    32.51,    29.94,    28.21,    33.61
       93.0,      30.86,    32.21,    29.75,    28.08,    33.38
       94.0,      30.65,    31.91,    29.56,    27.95,    33.16
       95.0,      30.44,    31.63,    29.37,    27.82,    32.94
       96.0,      30.24,    31.35,    29.18,    27.69,    32.72
       97.0,      30.04,    31.09,    28.99,    27.57,    32.52
       98.0,      29.85,    30.83,    28.81,    27.44,    32.31
       99.0,      29.66,    30.58,    28.63,    27.31,    32.11
      100.0,      29.47,    30.33,    28.45,    27.19,    31.92
      101.0,      29.29,    30.10,    28.28,    27.06,    31.73
      102.0,      29.11,    29.87,    28.10,    26.94,    31.54
      103.0,      28.94,    29.64,    27.93,    26.81,    31.36
      104.0,      28.76,    29.43,    27.76,    26.69,    31.18
      105.0,      28.60,    29.22,    27.59,    26.57,    31.01
      106.0,      28.43,    29.02,    27.42,    26.45,    30.83
      107.0,      28.27,    28.82,    27.26,    26.33,    30.67
      108.0,      28.11,    28.63,    27.09,    26.21,    30.50
      109.0,      27.95,    28.44,    26.93,    26.09,    30.34
      110.0,      27.80,    28.26,    26.77,    25.97,    30.18
      111.0,      27.64,    28.08,    26.61,    25.85,    30.03
      112.0,      27.50,    27.91,    26.46,    25.73,    29.87
      113.0,      27.35,    27.75,    26.30,    25.62,    29.72
      114.0,      27.20,    27.58,    26.15,    25.50,    29.58
      115.0,      27.06,    27.43,    26.00,    25.39,    29.43
      116.0,      26.92,    27.27,    25.85,    25.27,    29.29
      117.0,      26.78,    27.12,    25.70,    25.16,    29.15
      118.0,      26.65,    26.98,    25.55,    25.05,    29.01
      119.0,      26.51,    26.84,    25.41,    24.94,    28.88
      120.0,      26.38,    26.70,    25.26,    24.82,    28.75
      121.0,      26.25,    26.56,    25.12,    24.71,    28.62
      122.0,      26.12,    26.43,    24.98,    24.60,    28.49
      123.0,      26.00,    26.30,    24.84,    24.49,    28.36
      124.0,      25.87,    26.17,    24.70,    24.39,    28.24
      125.0,      25.75,    26.05,    24.56,    24.28,    28.11
      126.0,      25.63,    25.93,    24.43,    24.17,    27.99
      127.0,      25.51,    25.81,    24.29,    24.06,    27.87
      128.0,      25.39,    25.70,    24.16,    23.96,    27.75
      129.0,      25.28,    25.59,    24.03,    23.85,    27.64
      130.0,      25.16,    25.48,    23.89,    23.75,    27.52
      131.0,      25.05,    25.37,    23.76,    23.64,    27.41
      132.0,      24.93,    25.26,    23.64,    23.54,    27.30
      133.0,      24.82,    25.16,    23.51,    23.43,    27.19
      134.0,      24.71,    25.06,    23.38,    23.33,    27.08
      135.0,      24.60,    24.96,    23.26,    23.23,    26.97
      136.0,      24.50,    24.86,    23.13,    23.13,    26.86
      137.0,      24.39,    24.77,    23.01,    23.03,    26.76
      138.0,      24.29,    24.67,    22.89,    22.93,    26.65
      139.0,      24.18,    24.58,    22.77,    22.83,    26.55
      140.0,      24.08,    24.49,    22.65,    22.73,    26.45
      141.0,      23.98,    24.40,    22.53,    22.63,    26.34
      142.0,      23.88,    24.31,    22.41,    22.53,    26.24
      143.0,      23.78,    24.23,    22.29,    22.44,    26.15
      144.0,      23.68,    24.14,    22.18,    22.34,    26.05
      145.0,      23.58,    24.06,    22.06,    22.25,    25.95
      146.0,      23.48,    23.98,    21.95,    22.15,    25.85
      147.0,      23.39,    23.90,    21.83,    22.06,    25.76
      148.0,      23.29,    23.82,    21.72,    21.96,    25.66
      149.0,      23.20,    23.74,    21.61,    21.87,    25.57
      150.0,      23.10,    23.67,    21.50,    21.77,    25.48
      151.0,      23.01,    23.59,    21.39,    21.68,    25.39
      152.0,      22.92,    23.51,    21.28,    21.59,    25.29
      153.0,      22.83,    23.44,    21.17,    21.50,    25.20
      154.0,      22.74,    23.37,    21.07,    21.41,    25.11
      155.0,      22.65,    23.30,    20.96,    21.32,    25.02
      156.0,      22.56,    23.23,    20.86,    21.23,    24.94
      157.0,      22.47,    23.16,    20.75,    21.14,    24.85
      158.0,      22.39,    23.09,    20.65,    21.05,    24.76
      159.0,      22.30,    23.02,    20.54,    20.96,    24.67
      160.0,      22.21,    22.95,    20.44,    20.87,    24.59
      161.0,      22.13,    22.88,    20.34,    20.79,    24.50
      162.0,      22.04,    22.82,    20.24,    20.70,    24.42
      163.0,      21.96,    22.75,    20.14,    20.61,    24.33
      164.0,      21.88,    22.69,    20.04,    20.53,    24.25
      165.0,      21.79,    22.63,    19.94,    20.44,    24.17
      166.0,      21.71,    22.56,    19.84,    20.36,    24.09
      167.0,      21.63,    22.50,    19.75,    20.27,    24.00
      168.0,      21.55,    22.44,    19.65,    20.19,    23.92
      169.0,      21.47,    22.38,    19.55,    20.11,    23.84
      170.0,      21.39,    22.32,    19.46,    20.02,    23.76
      171.0,      21.31,    22.26,    19.36,    19.94,    23.68
      172.0,      21.23,    22.20,    19.27,    19.86,    23.60
      173.0,      21.15,    22.14,    19.18,    19.78,    23.52
      174.0,      21.08,    22.08,    19.08,    19.70,    23.44
      175.0,      21.00,    22.02,    18.99,    19.62,    23.37
      176.0,      20.92,    21.96,    18.90,    19.54,    23.29
      177.0,      20.85,    21.90,    18.81,    19.46,    23.21
      178.0,      20.77,    21.85,    18.72,    19.38,    23.13
      179.0,      20.69,    21.79,    18.63,    19.30,    23.06
      180.0,      20.62,    21.74,    18.54,    19.22,    22.98
      181.0,      20.55,    21.68,    18.45,    19.15,    22.91
      182.0,      20.47,    21.63,    18.36,    19.07,    22.83
      183.0,      20.40,    21.57,    18.28,    18.99,    22.76
      184.0,      20.33,    21.52,    18.19,    18.92,    22.68
      185.0,      20.25,    21.46,    18.10,    18.84,    22.61
      186.0,      20.18,    21.41,    18.02,    18.77,    22.53
      187.0,      20.11,    21.35,    17.93,    18.69,    22.46
      188.0,      20.04,    21.30,    17.85,    18.62,    22.39
      189.0,      19.97,    21.25,    17.76,    18.54,    22.31
      190.0,      19.90,    21.20,    17.68,    18.47,    22.24
      191.0,      19.83,    21.14,    17.60,    18.40,    22.17
      192.0,      19.76,    21.09,    17.51,    18.32,    22.10
      193.0,      19.69,    21.04,    17.43,    18.25,    22.02
      194.0,      19.62,    20.99,    17.35,    18.18,    21.95
      195.0,      19.55,    20.94,    17.27,    18.11,    21.88
      196.0,      19.48,    20.89,    17.19,    18.04,    21.81
      197.0,      19.41,    20.84,    17.11,    17.97,    21.74
      198.0,      19.35,    20.79,    17.03,    17.90,    21.67
      199.0,      19.28,    20.74,    16.95,    17.83,    21.60
      200.0,      19.21,    20.69,    16.87,    17.76,    21.53
      201.0,      19.15,    20.64,    16.79,    17.69,    21.46
      202.0,      19.08,    20.59,    16.72,    17.62,    21.39
      203.0,      19.01,    20.54,    16.64,    17.55,    21.33
      204.0,      18.95,    20.49,    16.56,    17.48,    21.26
      205.0,      18.88,    20.44,    16.49,    17.42,    21.19
      206.0,      18.82,    20.40,    16.41,    17.35,    21.12
      207.0,      18.75,    20.35,    16.33,    17.28,    21.05
      208.0,      18.69,    20.30,    16.26,    17.22,    20.99
      209.0,      18.63,    20.25,    16.18,    17.15,    20.92
      210.0,      18.56,    20.20,    16.11,    17.09,    20.85
      211.0,      18.50,    20.16,    16.04,    17.02,    20.79
      212.0,      18.44,    20.11,    15.96,    16.96,    20.72
      213.0,      18.38,    20.06,    15.89,    16.89,    20.66
      214.0,      18.31,    20.02,    15.82,    16.83,    20.59
      215.0,      18.25,    19.97,    15.74,    16.77,    20.52
      216.0,      18.19,    19.92,    15.67,    16.70,    20.46
      217.0,      18.13,    19.88,    15.60,    16.64,    20.39
      218.0,      18.07,    19.83,    15.53,    16.58,    20.33
      219.0,      18.01,    19.79,    15.46,    16.51,    20.26
      220.0,      17.95,    19.74,    15.39,    16.45,    20.20
      221.0,      17.89,    19.69,    15.32,    16.39,    20.14
      222.0,      17.83,    19.65,    15.25,    16.33,    20.07
      223.0,      17.77,    19.60,    15.18,    16.27,    20.01
      224.0,      17.71,    19.56,    15.11,    16.21,    19.95
      225.0,      17.65,    19.51,    15.04,    16.15,    19.88
      226.0,      17.59,    19.47,    14.98,    16.09,    19.82
      227.0,      17.53,    19.42,    14.91,    16.03,    19.76
      228.0,      17.47,    19.38,    14.84,    15.97,    19.69
      229.0,      17.41,    19.33,    14.77,    15.91,    19.63
      230.0,      17.36,    19.29,    14.71,    15.85,    19.57
      231.0,      17.30,    19.25,    14.64,    15.80,    19.51
      232.0,      17.24,    19.20,    14.58,    15.74,    19.45
      233.0,      17.18,    19.16,    14.51,    15.68,    19.38
      234.0,      17.13,    19.11,    14.44,    15.62,    19.32
      235.0,      17.07,    19.07,    14.38,    15.57,    19.26
      236.0,      17.01,    19.03,    14.31,    15.51,    19.20
      237.0,      16.96,    18.98,    14.25,    15.46,    19.14
      238.0,      16.90,    18.94,    14.19,    15.40,    19.08
      239.0,      16.85,    18.90,    14.12,    15.34,    19.02
      240.0,      16.79,    18.85,    14.06,    15.29,    18.96
      241.0,      16.74,    18.81,    14.00,    15.23,    18.90
      242.0,      16.68,    18.77,    13.93,    15.18,    18.84
      243.0,      16.63,    18.73,    13.87,    15.13,    18.78
      244.0,      16.57,    18.68,    13.81,    15.07,    18.72
      245.0,      16.52,    18.64,    13.75,    15.02,    18.66
      246.0,      16.46,    18.60,    13.69,    14.97,    18.61
      247.0,      16.41,    18.56,    13.63,    14.91,    18.55
      248.0,      16.36,    18.52,    13.57,    14.86,    18.49
      249.0,      16.30,    18.47,    13.50,    14.81,    18.43
      250.0,      16.25,    18.43,    13.44,    14.76,    18.37
      251.0,      16.20,    18.39,    13.38,    14.70,    18.31
      252.0,      16.15,    18.35,    13.33,    14.65,    18.26
      253.0,      16.09,    18.31,    13.27,    14.60,    18.20
      254.0,      16.04,    18.27,    13.21,    14.55,    18.14
      255.0,      15.99,    18.22,    13.15,    14.50,    18.09
      256.0,      15.94,    18.18,    13.09,    14.45,    18.03
      257.0,      15.89,    18.14,    13.03,    14.40,    17.97
      258.0,      15.84,    18.10,    12.97,    14.35,    17.92
      259.0,      15.78,    18.06,    12.92,    14.30,    17.86
      260.0,      15.73,    18.02,    12.86,    14.25,    17.80
      261.0,      15.68,    17.98,    12.80,    14.20,    17.75
      262.0,      15.63,    17.94,    12.75,    14.15,    17.69
      263.0,      15.58,    17.90,    12.69,    14.11,    17.64
      264.0,      15.53,    17.86,    12.63,    14.06,    17.58
      265.0,      15.48,    17.82,    12.58,    14.01,    17.52
      266.0,      15.43,    17.78,    12.52,    13.96,    17.47
      267.0,      15.38,    17.74,    12.47,    13.91,    17.41
      268.0,      15.33,    17.70,    12.41,    13.87,    17.36
      269.0,      15.29,    17.66,    12.36,    13.82,    17.31
      270.0,      15.24,    17.62,    12.30,    13.77,    17.25
      271.0,      15.19,    17.58,    12.25,    13.73,    17.20
      272.0,      15.14,    17.54,    12.19,    13.68,    17.14
      273.0,      15.09,    17.50,    12.14,    13.64,    17.09
      274.0,      15.04,    17.46,    12.09,    13.59,    17.04
      275.0,      15.00,    17.42,    12.03,    13.55,    16.98
      276.0,      14.95,    17.38,    11.98,    13.50,    16.93
      277.0,      14.90,    17.34,    11.93,    13.46,    16.88
      278.0,      14.85,    17.30,    11.87,    13.41,    16.82
      279.0,      14.81,    17.26,    11.82,    13.37,    16.77
      280.0,      14.76,    17.23,    11.77,    13.32,    16.72
      281.0,      14.71,    17.19,    11.72,    13.28,    16.67
      282.0,      14.67,    17.15,    11.67,    13.24,    16.61
      283.0,      14.62,    17.11,    11.62,    13.19,    16.56
      284.0,      14.57,    17.07,    11.56,    13.15,    16.51
      285.0,      14.53,    17.03,    11.51,    13.11,    16.46
      286.0,      14.48,    16.99,    11.46,    13.06,    16.41
      287.0,      14.44,    16.96,    11.41,    13.02,    16.35
      288.0,      14.39,    16.92,    11.36,    12.98,    16.30
      289.0,      14.35,    16.88,    11.31,    12.94,    16.25
      290.0,      14.30,    16.84,    11.26,    12.90,    16.20
      291.0,      14.26,    16.80,    11.21,    12.85,    16.15
      292.0,      14.21,    16.77,    11.16,    12.81,    16.10
      293.0,      14.17,    16.73,    11.12,    12.77,    16.05
      294.0,      14.12,    16.69,    11.07,    12.73,    16.00
      295.0,      14.08,    16.65,    11.02,    12.69,    15.95
      296.0,      14.03,    16.62,    10.97,    12.65,    15.90
      297.0,      13.99,    16.58,    10.92,    12.61,    15.85
      298.0,      13.95,    16.54,    10.87,    12.57,    15.80
      299.0,      13.90,    16.51,    10.83,    12.53,    15.75
      300.0,      13.86,    16.47,    10.78,    12.49,    15.70
      301.0,      13.82,    16.43,    10.73,    12.45,    15.65
      302.0,      13.77,    16.39,    10.68,    12.41,    15.60
      303.0,      13.73,    16.36,    10.64,    12.37,    15.55
      304.0,      13.69,    16.32,    10.59,    12.34,    15.50
      305.0,      13.65,    16.28,    10.54,    12.30,    15.45
      306.0,      13.60,    16.25,    10.50,    12.26,    15.41
      307.0,      13.56,    16.21,    10.45,    12.22,    15.36
      308.0,      13.52,    16.18,    10.41,    12.18,    15.31
      309.0,      13.48,    16.14,    10.36,    12.15,    15.26
      310.0,      13.44,    16.10,    10.32,    12.11,    15.21
