Radius (km), Mean (m/s), NE (m/s), SE (m/s), SW (m/s), NW (m/s)
        0.0,      10.94,    12.42,    12.22,     7.58,    11.55
        1.0,      18.42,    20.26,    19.62,    14.77,    19.00
        2.0,      24.74,    27.16,    25.83,    20.69,    25.28
        3.0,      30.07,    33.02,    30.99,    25.74,    30.55
        4.0,      34.33,    37.69,    35.04,    29.88,    34.72
        5.0,      37.48,    41.09,    37.98,    33.07,    37.78
        6.0,      39.57,    43.26,    39.89,    35.33,    39.79
        7.0,      40.72,    44.34,    40.92,    36.73,    40.88
        8.0,      41.13,    44.55,    41.26,    37.43,    41.27
        9.0,      41.01,    44.15,    41.15,    37.60,    41.15
       10.0,      40.57,    43.37,    40.76,    37.41,    40.74
       11.0,      39.98,    42.43,    40.26,    37.05,    40.20
       12.0,      39.36,    41.47,    39.74,    36.61,    39.63
       13.0,      38.77,    40.56,    39.24,    36.19,    39.08
       14.0,      38.20,    39.70,    38.76,    35.79,    38.56
       15.0,      37.67,    38.89,    38.30,    35.42,    38.05
       16.0,      37.14,    38.12,    37.84,    35.05,    37.55
       17.0,      36.63,    37.37,    37.39,    34.69,    37.06
       18.0,      36.13,    36.64,    36.95,    34.34,    36.58
       19.0,      35.64,    35.95,    36.51,    33.99,    36.11
       20.0,      35.16,    35.28,    36.08,    33.64,    35.64
       21.0,      34.69,    34.63,    35.66,    33.30,    35.19
       22.0,      34.24,    34.01,    35.24,    32.96,    34.73
       23.0,      33.79,    33.41,    34.83,    32.62,    34.29
       24.0,      33.35,    32.83,    34.42,    32.29,    33.85
       25.0,      32.92,    32.27,    34.03,    31.96,    33.42
       26.0,      32.50,    31.73,    33.63,    31.63,    33.00
       27.0,      32.09,    31.21,    33.25,    31.31,    32.58
       28.0,      31.69,    30.71,    32.87,    30.99,    32.17
       29.0,      31.29,    30.23,    32.49,    30.68,    31.77
       30.0,      30.91,    29.77,    32.12,    30.37,    31.37
       31.0,      30.53,    29.32,    31.76,    30.06,    30.98
       32.0,      30.16,    28.88,    31.40,    29.76,    30.60
       33.0,      29.80,    28.46,    31.05,    29.45,    30.22
       34.0,      29.44,    28.06,    30.70,    29.16,    29.85
       35.0,      29.09,    27.67,    30.36,    28.86,    29.48
       36.0,      28.75,    27.29,    30.02,    28.57,    29.12
       37.0,      28.42,    26.93,    29.69,    28.28,    28.76
       38.0,      28.09,    26.58,    29.36,    27.99,    28.42
       39.0,      27.77,    26.24,    29.04,    27.71,    28.07
       40.0,      27.45,    25.91,    28.73,    27.43,    27.73
       41.0,      27.14,    25.59,    28.41,    27.16,    27.40
       42.0,      26.84,    25.29,    28.11,    26.88,    27.07
       43.0,      26.54,    24.99,    27.80,    26.61,    26.75
       44.0,      26.25,    24.71,    27.51,    26.34,    26.43
       45.0,      25.96,    24.43,    27.21,    26.08,    26.12
       46.0,      25.68,    24.16,    26.92,    25.82,    25.81
       47.0,      25.40,    23.90,    26.64,    25.56,    25.51
       48.0,      25.13,    23.65,    26.36,    25.30,    25.21
       49.0,      24.86,    23.41,    26.08,    25.05,    24.92
       50.0,      24.60,    23.17,    25.81,    24.80,    24.63
       51.0,      24.35,    22.94,    25.54,    24.55,    24.35
       52.0,      24.09,    22.72,    25.28,    24.30,    24.07
       53.0,      23.85,    22.51,    25.02,    24.06,    23.80
       54.0,      23.60,    22.30,    24.76,    23.82,    23.52
       55.0,      23.36,    22.10,    24.51,    23.58,    23.26
       56.0,      23.13,    21.91,    24.26,    23.35,    23.00
       57.0,      22.90,    21.72,    24.01,    23.12,    22.74
       58.0,      22.67,    21.53,    23.77,    22.89,    22.48
       59.0,      22.45,    21.36,    23.54,    22.66,    22.23
       60.0,      22.23,    21.18,    23.30,    22.43,    21.99
       61.0,      22.01,    21.02,    23.07,    22.21,    21.75
       62.0,      21.80,    20.85,    22.84,    21.99,    21.51
       63.0,      21.59,    20.70,    22.62,    21.77,    21.27
       64.0,      21.39,    20.54,    22.40,    21.56,    21.04
       65.0,      21.18,    20.39,    22.18,    21.34,    20.82
       66.0,      20.99,    20.25,    21.97,    21.13,    20.59
       67.0,      20.79,    20.11,    21.76,    20.92,    20.37
       68.0,      20.60,    19.97,    21.55,    20.72,    20.16
       69.0,      20.41,    19.83,    21.35,    20.51,    19.94
       70.0,      20.22,    19.70,    21.15,    20.31,    19.73
       71.0,      20.04,    19.58,    20.95,    20.11,    19.53
       72.0,      19.86,    19.45,    20.75,    19.92,    19.32
       73.0,      19.68,    19.33,    20.56,    19.72,    19.12
       74.0,      19.51,    19.21,    20.37,    19.53,    18.93
       75.0,      19.34,    19.10,    20.18,    19.33,    18.73
       76.0,      19.17,    18.99,    20.00,    19.15,    18.54
       77.0,      19.00,    18.88,    19.82,    18.96,    18.35
       78.0,      18.84,    18.77,    19.64,    18.77,    18.17
       79.0,      18.68,    18.67,    19.46,    18.59,    17.99
       80.0,      18.52,    18.57,    19.29,    18.41,    17.81
       81.0,      18.36,    18.47,    19.12,    18.23,    17.63
       82.0,      18.21,    18.37,    18.95,    18.05,    17.46
       83.0,      18.06,    18.28,    18.78,    17.88,    17.28
       84.0,      17.91,    18.18,    18.62,    17.70,    17.12
       85.0,      17.76,    18.09,    18.46,    17.53,    16.95
       86.0,      17.61,    18.00,    18.30,    17.36,    16.79
       87.0,      17.47,    17.92,    18.15,    17.19,    16.63
       88.0,      17.33,    17.83,    17.99,    17.03,    16.47
       89.0,      17.19,    17.75,    17.84,    16.86,    16.31
       90.0,      17.05,    17.67,    17.69,    16.70,    16.16
       91.0,      16.92,    17.59,    17.54,    16.54,    16.01
       92.0,      16.79,    17.51,    17.40,    16.38,    15.86
       93.0,      16.66,    17.43,    17.26,    16.22,    15.71
       94.0,      16.53,    17.35,    17.11,    16.07,    15.57
       95.0,      16.40,    17.28,    16.98,    15.91,    15.43
       96.0,      16.27,    17.21,    16.84,    15.76,    15.29
       97.0,      16.15,    17.13,    16.70,    15.61,    15.15
       98.0,      16.03,    17.06,    16.57,    15.46,    15.02
       99.0,      15.91,    16.99,    16.44,    15.31,    14.88
      100.0,      15.79,    16.92,    16.31,    15.17,    14.75
      101.0,      15.67,    16.86,    16.18,    15.02,    14.62
      102.0,      15.56,    16.79,    16.06,    14.88,    14.49
      103.0,      15.44,    16.73,    15.94,    14.74,    14.37
      104.0,      15.33,    16.66,    15.81,    14.60,    14.25
      105.0,      15.22,    16.60,    15.69,    14.46,    14.12
      106.0,      15.11,    16.54,    15.58,    14.32,    14.00
      107.0,      15.00,    16.47,    15.46,    14.19,    13.89
      108.0,      14.90,    16.41,    15.34,    14.05,    13.77
      109.0,      14.79,    16.35,    15.23,    13.92,    13.66
      110.0,      14.69,    16.29,    15.12,    13.79,    13.54
      111.0,      14.59,    16.24,    15.01,    13.66,    13.43
      112.0,      14.48,    16.18,    14.90,    13.53,    13.32
      113.0,      14.38,    16.12,    14.80,    13.40,    13.22
      114.0,      14.29,    16.07,    14.69,    13.28,    13.11
      115.0,      14.19,    16.01,    14.59,    13.15,    13.01
      116.0,      14.09,    15.96,    14.48,    13.03,    12.90
      117.0,      14.00,    15.90,    14.38,    12.91,    12.80
      118.0,      13.91,    15.85,    14.28,    12.79,    12.70
      119.0,      13.81,    15.80,    14.19,    12.67,    12.61
      120.0,      13.72,    15.74,    14.09,    12.55,    12.51
      121.0,      13.63,    15.69,    13.99,    12.44,    12.41
      122.0,      13.55,    15.64,    13.90,    12.32,    12.32
      123.0,      13.46,    15.59,    13.81,    12.21,    12.23
      124.0,      13.37,    15.54,    13.72,    12.09,    12.14
      125.0,      13.29,    15.49,    13.63,    11.98,    12.05
      126.0,      13.20,    15.44,    13.54,    11.87,    11.96
      127.0,      13.12,    15.39,    13.45,    11.76,    11.87
      128.0,      13.04,    15.34,    13.37,    11.66,    11.79
      129.0,      12.96,    15.30,    13.28,    11.55,    11.70
      130.0,      12.88,    15.25,    13.20,    11.44,    11.62
      131.0,      12.80,    15.20,    13.11,    11.34,    11.54
      132.0,      12.72,    15.15,    13.03,    11.24,    11.46
      133.0,      12.64,    15.11,    12.95,    11.13,    11.38
      134.0,      12.57,    15.06,    12.87,    11.03,    11.30
      135.0,      12.49,    15.02,    12.80,    10.93,    11.22
      136.0,      12.42,    14.97,    12.72,    10.83,    11.15
      137.0,      12.34,    14.93,    12.64,    10.73,    11.07
      138.0,      12.27,    14.88,    12.57,    10.64,    11.00
      139.0,      12.20,    14.84,    12.50,    10.54,    10.93
      140.0,      12.13,    14.79,    12.42,    10.45,    10.86
      141.0,      12.06,    14.75,    12.35,    10.35,    10.79
      142.0,      11.99,    14.71,    12.28,    10.26,    10.72
      143.0,      11.92,    14.66,    12.21,    10.17,    10.65
      144.0,      11.85,    14.62,    12.14,    10.08,    10.58
      145.0,      11.79,    14.58,    12.07,     9.99,    10.51
      146.0,      11.72,    14.53,    12.01,     9.90,    10.45
      147.0,      11.66,    14.49,    11.94,     9.81,    10.38
      148.0,      11.59,    14.45,    11.88,     9.72,    10.32
      149.0,      11.53,    14.41,    11.81,     9.64,    10.26
      150.0,      11.47,    14.37,    11.75,     9.55,    10.20
      151.0,      11.40,    14.33,    11.69,     9.47,    10.14
      152.0,      11.34,    14.29,    11.62,     9.38,    10.08
      153.0,      11.28,    14.25,    11.56,     9.30,    10.02
      154.0,      11.22,    14.21,    11.50,     9.22,     9.96
      155.0,      11.16,    14.17,    11.44,     9.14,     9.90
      156.0,      11.10,    14.13,    11.39,     9.06,     9.84
      157.0,      11.05,    14.09,    11.33,     8.98,     9.79
      158.0,      10.99,    14.05,    11.27,     8.90,     9.73
      159.0,      10.93,    14.01,    11.22,     8.82,     9.68
      160.0,      10.88,    13.97,    11.16,     8.75,     9.63
      161.0,      10.82,    13.93,    11.11,     8.67,     9.57
      162.0,      10.76,    13.89,    11.05,     8.59,     9.52
      163.0,      10.71,    13.85,    11.00,     8.52,     9.47
      164.0,      10.66,    13.81,    10.95,     8.45,     9.42
      165.0,      10.60,    13.77,    10.90,     8.37,     9.37
      166.0,      10.55,    13.74,    10.84,     8.30,     9.32
      167.0,      10.50,    13.70,    10.79,     8.23,     9.27
      168.0,      10.45,    13.66,    10.75,     8.16,     9.23
      169.0,      10.40,    13.62,    10.70,     8.09,     9.18
      170.0,      10.35,    13.59,    10.65,     8.02,     9.13
      171.0,      10.30,    13.55,    10.60,     7.95,     9.09
      172.0,      10.25,    13.51,    10.55,     7.89,     9.04
      173.0,      10.20,    13.47,    10.51,     7.82,     9.00
      174.0,      10.15,    13.44,    10.46,     7.75,     8.95
      175.0,      10.10,    13.40,    10.42,     7.69,     8.91
      176.0,      10.06,    13.36,    10.37,     7.62,     8.87
      177.0,      10.01,    13.33,    10.33,     7.56,     8.83
      178.0,       9.96,    13.29,    10.28,     7.50,     8.79
      179.0,       9.92,    13.25,    10.24,     7.43,     8.75
      180.0,       9.87,    13.22,    10.20,     7.37,     8.70
      181.0,       9.83,    13.18,    10.16,     7.31,     8.67
      182.0,       9.78,    13.15,    10.11,     7.25,     8.63
      183.0,       9.74,    13.11,    10.07,     7.19,     8.59
      184.0,       9.70,    13.08,    10.03,     7.13,     8.55
      185.0,       9.65,    13.04,     9.99,     7.07,     8.51
      186.0,       9.61,    13.01,     9.95,     7.01,     8.47
      187.0,       9.57,    12.97,     9.92,     6.96,     8.44
      188.0,       9.53,    12.93,     9.88,     6.90,     8.40
      189.0,       9.49,    12.90,     9.84,     6.84,     8.37
      190.0,       9.45,    12.87,     9.80,     6.79,     8.33
      191.0,       9.41,    12.83,     9.77,     6.73,     8.30
      192.0,       9.37,    12.80,     9.73,     6.68,     8.26
      193.0,       9.33,    12.76,     9.69,     6.62,     8.23
      194.0,       9.29,    12.73,     9.66,     6.57,     8.20
      195.0,       9.25,    12.69,     9.62,     6.52,     8.16
      196.0,       9.21,    12.66,     9.59,     6.46,     8.13
      197.0,       9.17,    12.63,     9.55,     6.41,     8.10
      198.0,       9.13,    12.59,     9.52,     6.36,     8.07
      199.0,       9.10,    12.56,     9.49,     6.31,     8.04
      200.0,       9.06,    12.52,     9.45,     6.26,     8.01
      201.0,       9.02,    12.49,     9.42,     6.21,     7.97
      202.0,       8.99,    12.46,     9.39,     6.16,     7.94
      203.0,       8.95,    12.42,     9.36,     6.11,     7.92
      204.0,       8.92,    12.39,     9.32,     6.06,     7.89
      205.0,       8.88,    12.36,     9.29,     6.02,     7.86
      206.0,       8.85,    12.32,     9.26,     5.97,     7.83
      207.0,       8.81,    12.29,     9.23,     5.92,     7.80
      208.0,       8.78,    12.26,     9.20,     5.88,     7.77
      209.0,       8.74,    12.23,     9.17,     5.83,     7.75
      210.0,       8.71,    12.19,     9.14,     5.79,     7.72
      211.0,       8.68,    12.16,     9.11,     5.74,     7.69
      212.0,       8.64,    12.13,     9.09,     5.70,     7.67
      213.0,       8.61,    12.10,     9.06,     5.65,     7.64
      214.0,       8.58,    12.06,     9.03,     5.61,     7.61
      215.0,       8.55,    12.03,     9.00,     5.57,     7.59
      216.0,       8.52,    12.00,     8.98,     5.53,     7.56
      217.0,       8.48,    11.97,     8.95,     5.48,     7.54
      218.0,       8.45,    11.94,     8.92,     5.44,     7.51
      219.0,       8.42,    11.90,     8.89,     5.40,     7.49
      220.0,       8.39,    11.87,     8.87,     5.36,     7.47
      221.0,       8.36,    11.84,     8.84,     5.32,     7.44
      222.0,       8.33,    11.81,     8.82,     5.28,     7.42
      223.0,       8.30,    11.78,     8.79,     5.24,     7.40
      224.0,       8.27,    11.75,     8.77,     5.20,     7.37
      225.0,       8.24,    11.71,     8.74,     5.16,     7.35
      226.0,       8.21,    11.68,     8.72,     5.13,     7.33
      227.0,       8.19,    11.65,     8.69,     5.09,     7.31
      228.0,       8.16,    11.62,     8.67,     5.05,     7.29
      229.0,       8.13,    11.59,     8.65,     5.01,     7.26
      230.0,       8.10,    11.56,     8.62,     4.98,     7.24
      231.0,       8.07,    11.53,     8.60,     4.94,     7.22
      232.0,       8.05,    11.50,     8.58,     4.90,     7.20
      233.0,       8.02,    11.47,     8.55,     4.87,     7.18
      234.0,       7.99,    11.44,     8.53,     4.83,     7.16
      235.0,       7.96,    11.41,     8.51,     4.80,     7.14
      236.0,       7.94,    11.38,     8.49,     4.77,     7.12
      237.0,       7.91,    11.35,     8.47,     4.73,     7.10
      238.0,       7.89,    11.32,     8.45,     4.70,     7.08
      239.0,       7.86,    11.29,     8.42,     4.66,     7.06
      240.0,       7.83,    11.26,     8.40,     4.63,     7.04
      241.0,       7.81,    11.23,     8.38,     4.60,     7.03
      242.0,       7.78,    11.20,     8.36,     4.57,     7.01
      243.0,       7.76,    11.17,     8.34,     4.53,     6.99
      244.0,       7.73,    11.14,     8.32,     4.50,     6.97
      245.0,       7.71,    11.11,     8.30,     4.47,     6.95
      246.0,       7.68,    11.08,     8.28,     4.44,     6.94
      247.0,       7.66,    11.05,     8.26,     4.41,     6.92
      248.0,       7.64,    11.02,     8.24,     4.38,     6.90
      249.0,       7.61,    10.99,     8.22,     4.35,     6.88
      250.0,       7.59,    10.96,     8.20,     4.32,     6.87
      251.0,       7.56,    10.93,     8.19,     4.29,     6.85
      252.0,       7.54,    10.90,     8.17,     4.26,     6.83
      253.0,       7.52,    10.87,     8.15,     4.23,     6.82
      254.0,       7.50,    10.85,     8.13,     4.20,     6.80
      255.0,       7.47,    10.82,     8.11,     4.18,     6.78
      256.0,       7.45,    10.79,     8.09,     4.15,     6.77
      257.0,       7.43,    10.76,     8.08,     4.12,     6.75
      258.0,       7.40,    10.73,     8.06,     4.09,     6.74
      259.0,       7.38,    10.70,     8.04,     4.07,     6.72
      260.0,       7.36,    10.67,     8.02,     4.04,     6.71
      261.0,       7.34,    10.65,     8.01,     4.01,     6.69
      262.0,       7.32,    10.62,     7.99,     3.99,     6.68
      263.0,       7.30,    10.59,     7.97,     3.96,     6.66
      264.0,       7.27,    10.56,     7.96,     3.93,     6.65
      265.0,       7.25,    10.53,     7.94,     3.91,     6.63
      266.0,       7.23,    10.51,     7.92,     3.88,     6.62
      267.0,       7.21,    10.48,     7.91,     3.86,     6.60
      268.0,       7.19,    10.45,     7.89,     3.83,     6.59
      269.0,       7.17,    10.42,     7.88,     3.81,     6.58
      270.0,       7.15,    10.40,     7.86,     3.78,     6.56
      271.0,       7.13,    10.37,     7.84,     3.76,     6.55
      272.0,       7.11,    10.34,     7.83,     3.74,     6.54
      273.0,       7.09,    10.31,     7.81,     3.71,     6.52
      274.0,       7.07,    10.29,     7.80,     3.69,     6.51
      275.0,       7.05,    10.26,     7.78,     3.67,     6.50
      276.0,       7.03,    10.23,     7.77,     3.64,     6.48
      277.0,       7.01,    10.20,     7.75,     3.62,     6.47
      278.0,       6.99,    10.18,     7.74,     3.60,     6.46
      279.0,       6.97,    10.15,     7.72,     3.58,     6.44
      280.0,       6.96,    10.12,     7.71,     3.56,     6.43
      281.0,       6.94,    10.10,     7.70,     3.53,     6.42
      282.0,       6.92,    10.07,     7.68,     3.51,     6.41
      283.0,       6.90,    10.04,     7.67,     3.49,     6.39
      284.0,       6.88,    10.02,     7.65,     3.47,     6.38
      285.0,       6.86,     9.99,     7.64,     3.45,     6.37
      286.0,       6.84,     9.96,     7.63,     3.43,     6.36
      287.0,       6.83,     9.94,     7.61,     3.41,     6.35
      288.0,       6.81,     9.91,     7.60,     3.39,     6.33
      289.0,       6.79,     9.88,     7.59,     3.37,     6.32
      290.0,       6.77,     9.86,     7.57,     3.35,     6.31
      291.0,       6.76,     9.83,     7.56,     3.33,     6.30
      292.0,       6.74,     9.81,     7.55,     3.31,     6.29
      293.0,       6.72,     9.78,     7.53,     3.29,     6.28
      294.0,       6.70,     9.75,     7.52,     3.27,     6.27
      295.0,       6.69,     9.73,     7.51,     3.25,     6.25
      296.0,       6.67,     9.70,     7.49,     3.23,     6.24
      297.0,       6.65,     9.68,     7.48,     3.22,     6.23
      298.0,       6.64,     9.65,     7.47,     3.20,     6.22
      299.0,       6.62,     9.63,     7.46,     3.18,     6.21
      300.0,       6.60,     9.60,     7.44,     3.16,     6.20
      301.0,       6.59,     9.58,     7.43,     3.14,     6.19
      302.0,       6.57,     9.55,     7.42,     3.13,     6.18
      303.0,       6.55,     9.52,     7.41,     3.11,     6.17
      304.0,       6.54,     9.50,     7.40,     3.09,     6.16
      305.0,       6.52,     9.47,     7.38,     3.08,     6.15
      306.0,       6.50,     9.45,     7.37,     3.06,     6.14
      307.0,       6.49,     9.42,     7.36,     3.04,     6.13
      308.0,       6.47,     9.40,     7.35,     3.03,     6.12
      309.0,       6.46,     9.37,     7.34,     3.01,     6.11
      310.0,       6.44,     9.35,     7.32,     2.99,     6.10
