Radius (km), Mean (m/s), NE (m/s), SE (m/s), SW (m/s), NW (m/s)
        0.0,       0.00,     0.00,     0.00,     0.00,     0.00
        1.0,       2.40,     2.21,     2.21,     2.61,     2.54
        2.0,       4.96,     4.75,     4.75,     5.20,     5.13
        3.0,       7.61,     7.46,     7.43,     7.79,     7.76
        4.0,      10.38,    10.39,    10.27,    10.39,    10.48
        5.0,      13.36,    13.63,    13.36,    13.04,    13.40
        6.0,      16.64,    17.27,    16.80,    15.85,    16.63
        7.0,      20.29,    21.36,    20.68,    18.89,    20.24
        8.0,      24.32,    25.86,    25.01,    22.21,    24.23
        9.0,      28.65,    30.64,    29.69,    25.79,    28.49
       10.0,      33.13,    35.53,    34.57,    29.57,    32.85
       11.0,      37.54,    40.27,    39.41,    33.39,    37.10
       12.0,      41.65,    44.62,    43.94,    37.07,    40.99
       13.0,      45.25,    48.37,    47.91,    40.41,    44.31
       14.0,      48.15,    51.34,    51.12,    43.23,    46.89
       15.0,      50.24,    53.47,    53.45,    45.41,    48.64
       16.0,      51.51,    54.75,    54.87,    46.87,    49.56
       17.0,      52.01,    55.28,    55.43,    47.63,    49.72
       18.0,      51.87,    55.19,    55.27,    47.76,    49.26
       19.0,      51.25,    54.67,    54.57,    47.38,    48.36
       20.0,      50.32,    53.89,    53.54,    46.65,    47.20
       21.0,      49.25,    53.01,    52.35,    45.72,    45.93
       22.0,      48.16,    52.12,    51.15,    44.72,    44.67
       23.0,      47.12,    51.27,    50.00,    43.75,    43.47
       24.0,      46.15,    50.47,    48.94,    42.84,    42.35
       25.0,      45.24,    49.70,    47.95,    42.00,    41.30
       26.0,      44.37,    48.96,    47.01,    41.20,    40.30
       27.0,      43.52,    48.22,    46.10,    40.43,    39.33
       28.0,      42.70,    47.51,    45.22,    39.68,    38.40
       29.0,      41.91,    46.81,    44.38,    38.95,    37.51
       30.0,      41.14,    46.12,    43.56,    38.24,    36.65
       31.0,      40.40,    45.45,    42.77,    37.55,    35.82
       32.0,      39.67,    44.79,    42.01,    36.87,    35.02
       33.0,      38.97,    44.14,    41.27,    36.22,    34.25
       34.0,      38.29,    43.51,    40.56,    35.57,    33.52
       35.0,      37.63,    42.90,    39.87,    34.95,    32.80
       36.0,      36.99,    42.29,    39.21,    34.34,    32.12
       37.0,      36.37,    41.70,    38.57,    33.74,    31.46
       38.0,      35.76,    41.12,    37.95,    33.16,    30.82
       39.0,      35.18,    40.55,    37.35,    32.59,    30.21
       40.0,      34.61,    40.00,    36.77,    32.04,    29.62
       41.0,      34.06,    39.46,    36.21,    31.50,    29.06
       42.0,      33.52,    38.92,    35.67,    30.98,    28.51
       43.0,      33.00,    38.40,    35.14,    30.47,    27.98
       44.0,      32.49,    37.89,    34.64,    29.97,    27.48
       45.0,      32.00,    37.39,    34.14,    29.48,    26.99
       46.0,      31.52,    36.90,    33.67,    29.00,    26.52
       47.0,      31.06,    36.42,    33.21,    28.54,    26.06
       48.0,      30.61,    35.96,    32.76,    28.08,    25.63
       49.0,      30.17,    35.50,    32.33,    27.64,    25.21
       50.0,      29.74,    35.05,    31.91,    27.21,    24.80
       51.0,      29.33,    34.61,    31.51,    26.79,    24.41
       52.0,      28.92,    34.17,    31.12,    26.38,    24.03
       53.0,      28.53,    33.75,    30.73,    25.98,    23.66
       54.0,      28.15,    33.34,    30.37,    25.59,    23.31
       55.0,      27.78,    32.93,    30.01,    25.20,    22.97
       56.0,      27.42,    32.53,    29.66,    24.83,    22.65
       57.0,      27.07,    32.15,    29.32,    24.46,    22.33
       58.0,      26.72,    31.76,    28.99,    24.11,    22.03
       59.0,      26.39,    31.39,    28.68,    23.76,    21.73
       60.0,      26.07,    31.03,    28.37,    23.42,    21.45
       61.0,      25.75,    30.67,    28.07,    23.09,    21.18
       62.0,      25.44,    30.32,    27.77,    22.77,    20.91
       63.0,      25.14,    29.97,    27.49,    22.45,    20.66
       64.0,      24.85,    29.64,    27.21,    22.14,    20.41
       65.0,      24.57,    29.31,    26.95,    21.84,    20.17
       66.0,      24.29,    28.98,    26.69,    21.54,    19.94
       67.0,      24.02,    28.66,    26.43,    21.26,    19.72
       68.0,      23.75,    28.35,    26.18,    20.97,    19.50
       69.0,      23.50,    28.05,    25.94,    20.70,    19.29
       70.0,      23.25,    27.75,    25.71,    20.43,    19.09
       71.0,      23.00,    27.46,    25.48,    20.17,    18.90
       72.0,      22.76,    27.17,    25.26,    19.91,    18.71
       73.0,      22.53,    26.89,    25.04,    19.66,    18.53
       74.0,      22.30,    26.62,    24.83,    19.41,    18.35
       75.0,      22.08,    26.35,    24.62,    19.17,    18.18
       76.0,      21.86,    26.08,    24.42,    18.94,    18.02
       77.0,      21.65,    25.82,    24.22,    18.71,    17.86
       78.0,      21.44,    25.57,    24.03,    18.48,    17.70
       79.0,      21.24,    25.32,    23.84,    18.26,    17.55
       80.0,      21.05,    25.08,    23.66,    18.04,    17.40
       81.0,      20.85,    24.84,    23.48,    17.83,    17.26
       82.0,      20.66,    24.60,    23.30,    17.63,    17.13
       83.0,      20.48,    24.37,    23.13,    17.43,    16.99
       84.0,      20.30,    24.15,    22.96,    17.23,    16.86
       85.0,      20.12,    23.93,    22.80,    17.03,    16.74
       86.0,      19.95,    23.71,    22.64,    16.84,    16.62
       87.0,      19.78,    23.50,    22.48,    16.66,    16.50
       88.0,      19.62,    23.29,    22.32,    16.48,    16.38
       89.0,      19.46,    23.08,    22.17,    16.30,    16.27
       90.0,      19.30,    22.88,    22.02,    16.13,    16.17
       91.0,      19.14,    22.68,    21.88,    15.95,    16.06
       92.0,      18.99,    22.49,    21.73,    15.79,    15.96
       93.0,      18.84,    22.30,    21.59,    15.62,    15.86
       94.0,      18.70,    22.11,    21.46,    15.46,    15.76
       95.0,      18.56,    21.93,    21.32,    15.31,    15.67
       96.0,      18.42,    21.75,    21.19,    15.15,    15.58
       97.0,      18.28,    21.58,    21.06,    15.00,    15.49
       98.0,      18.15,    21.41,    20.93,    14.85,    15.40
       99.0,      18.01,    21.24,    20.80,    14.71,    15.31
      100.0,      17.89,    21.07,    20.68,    14.56,    15.23
      101.0,      17.76,    20.91,    20.56,    14.42,    15.15
      102.0,      17.64,    20.75,    20.44,    14.29,    15.07
      103.0,      17.51,    20.59,    20.32,    14.15,    14.99
      104.0,      17.39,    20.44,    20.20,    14.02,    14.92
      105.0,      17.28,    20.28,    20.09,    13.89,    14.85
      106.0,      17.16,    20.14,    19.98,    13.76,    14.77
      107.0,      17.05,    19.99,    19.87,    13.64,    14.70
      108.0,      16.94,    19.85,    19.76,    13.52,    14.63
      109.0,      16.83,    19.71,    19.65,    13.40,    14.57
      110.0,      16.72,    19.57,    19.54,    13.28,    14.50
      111.0,      16.62,    19.43,    19.44,    13.16,    14.44
      112.0,      16.51,    19.30,    19.33,    13.05,    14.38
      113.0,      16.41,    19.17,    19.23,    12.94,    14.31
      114.0,      16.31,    19.04,    19.13,    12.83,    14.25
      115.0,      16.21,    18.91,    19.03,    12.72,    14.19
      116.0,      16.12,    18.79,    18.93,    12.61,    14.14
      117.0,      16.02,    18.67,    18.83,    12.51,    14.08
      118.0,      15.93,    18.55,    18.74,    12.41,    14.02
      119.0,      15.84,    18.43,    18.64,    12.31,    13.97
      120.0,      15.75,    18.31,    18.55,    12.21,    13.91
      121.0,      15.66,    18.20,    18.46,    12.11,    13.86
      122.0,      15.57,    18.09,    18.36,    12.01,    13.81
      123.0,      15.48,    17.98,    18.27,    11.92,    13.76
      124.0,      15.40,    17.87,    18.18,    11.83,    13.71
      125.0,      15.31,    17.76,    18.10,    11.73,    13.66
      126.0,      15.23,    17.66,    18.01,    11.65,    13.61
      127.0,      15.15,    17.55,    17.92,    11.56,    13.56
      128.0,      15.07,    17.45,    17.83,    11.47,    13.52
      129.0,      14.99,    17.35,    17.75,    11.38,    13.47
      130.0,      14.91,    17.26,    17.67,    11.30,    13.42
      131.0,      14.83,    17.16,    17.58,    11.22,    13.38
      132.0,      14.76,    17.07,    17.50,    11.14,    13.33
      133.0,      14.68,    16.97,    17.42,    11.05,    13.29
      134.0,      14.61,    16.88,    17.34,    10.98,    13.25
      135.0,      14.54,    16.79,    17.25,    10.90,    13.20
      136.0,      14.46,    16.70,    17.17,    10.82,    13.16
      137.0,      14.39,    16.61,    17.10,    10.74,    13.12
      138.0,      14.32,    16.53,    17.02,    10.67,    13.08
      139.0,      14.25,    16.44,    16.94,    10.60,    13.04
      140.0,      14.19,    16.36,    16.86,    10.52,    13.00
      141.0,      14.12,    16.28,    16.79,    10.45,    12.96
      142.0,      14.05,    16.20,    16.71,    10.38,    12.92
      143.0,      13.99,    16.12,    16.63,    10.31,    12.88
      144.0,      13.92,    16.04,    16.56,    10.24,    12.84
      145.0,      13.86,    15.96,    16.48,    10.17,    12.81
      146.0,      13.79,    15.89,    16.41,    10.11,    12.77
      147.0,      13.73,    15.81,    16.34,    10.04,    12.73
      148.0,      13.67,    15.74,    16.26,     9.98,    12.70
      149.0,      13.61,    15.67,    16.19,     9.91,    12.66
      150.0,      13.55,    15.59,    16.12,     9.85,    12.62
      151.0,      13.49,    15.52,    16.05,     9.79,    12.59
      152.0,      13.43,    15.45,    15.98,     9.72,    12.55
      153.0,      13.37,    15.39,    15.91,     9.66,    12.52
      154.0,      13.31,    15.32,    15.84,     9.60,    12.48
      155.0,      13.25,    15.25,    15.77,     9.54,    12.45
      156.0,      13.20,    15.19,    15.70,     9.48,    12.41
      157.0,      13.14,    15.12,    15.63,     9.43,    12.38
      158.0,      13.08,    15.06,    15.57,     9.37,    12.35
      159.0,      13.03,    14.99,    15.50,     9.31,    12.31
      160.0,      12.97,    14.93,    15.43,     9.26,    12.28
      161.0,      12.92,    14.87,    15.36,     9.20,    12.25
      162.0,      12.87,    14.81,    15.30,     9.15,    12.21
      163.0,      12.81,    14.75,    15.23,     9.09,    12.18
      164.0,      12.76,    14.69,    15.17,     9.04,    12.15
      165.0,      12.71,    14.63,    15.10,     8.98,    12.12
      166.0,      12.66,    14.58,    15.04,     8.93,    12.09
      167.0,      12.61,    14.52,    14.97,     8.88,    12.05
      168.0,      12.56,    14.46,    14.91,     8.83,    12.02
      169.0,      12.51,    14.41,    14.85,     8.78,    11.99
      170.0,      12.46,    14.35,    14.78,     8.73,    11.96
      171.0,      12.41,    14.30,    14.72,     8.68,    11.93
      172.0,      12.36,    14.25,    14.66,     8.63,    11.90
      173.0,      12.31,    14.19,    14.59,     8.58,    11.87
      174.0,      12.26,    14.14,    14.53,     8.53,    11.84
      175.0,      12.21,    14.09,    14.47,     8.48,    11.81
      176.0,      12.17,    14.04,    14.41,     8.44,    11.78
      177.0,      12.12,    13.99,    14.35,     8.39,    11.75
      178.0,      12.07,    13.94,    14.29,     8.34,    11.72
      179.0,      12.03,    13.89,    14.23,     8.30,    11.69
      180.0,      11.98,    13.84,    14.17,     8.25,    11.66
      181.0,      11.94,    13.80,    14.11,     8.21,    11.63
      182.0,      11.89,    13.75,    14.05,     8.16,    11.60
      183.0,      11.85,    13.70,    13.99,     8.12,    11.57
      184.0,      11.80,    13.66,    13.93,     8.07,    11.55
      185.0,      11.76,    13.61,    13.87,     8.03,    11.52
      186.0,      11.71,    13.57,    13.82,     7.99,    11.49
      187.0,      11.67,    13.52,    13.76,     7.95,    11.46
      188.0,      11.63,    13.48,    13.70,     7.90,    11.43
      189.0,      11.59,    13.43,    13.64,     7.86,    11.40
      190.0,      11.54,    13.39,    13.59,     7.82,    11.38
      191.0,      11.50,    13.35,    13.53,     7.78,    11.35
      192.0,      11.46,    13.30,    13.47,     7.74,    11.32
      193.0,      11.42,    13.26,    13.42,     7.70,    11.29
      194.0,      11.38,    13.22,    13.36,     7.66,    11.27
      195.0,      11.34,    13.18,    13.30,     7.62,    11.24
      196.0,      11.29,    13.14,    13.25,     7.58,    11.21
      197.0,      11.25,    13.10,    13.19,     7.54,    11.18
      198.0,      11.21,    13.06,    13.14,     7.50,    11.16
      199.0,      11.17,    13.02,    13.08,     7.46,    11.13
      200.0,      11.13,    12.98,    13.03,     7.42,    11.10
      201.0,      11.10,    12.94,    12.98,     7.39,    11.08
      202.0,      11.06,    12.90,    12.92,     7.35,    11.05
      203.0,      11.02,    12.87,    12.87,     7.31,    11.02
      204.0,      10.98,    12.83,    12.82,     7.27,    11.00
      205.0,      10.94,    12.79,    12.76,     7.24,    10.97
      206.0,      10.90,    12.75,    12.71,     7.20,    10.94
      207.0,      10.86,    12.72,    12.66,     7.17,    10.92
      208.0,      10.83,    12.68,    12.60,     7.13,    10.89
      209.0,      10.79,    12.65,    12.55,     7.09,    10.86
      210.0,      10.75,    12.61,    12.50,     7.06,    10.84
      211.0,      10.71,    12.57,    12.45,     7.02,    10.81
      212.0,      10.68,    12.54,    12.40,     6.99,    10.79
      213.0,      10.64,    12.50,    12.35,     6.95,    10.76
      214.0,      10.60,    12.47,    12.29,     6.92,    10.74
      215.0,      10.57,    12.44,    12.24,     6.89,    10.71
      216.0,      10.53,    12.40,    12.19,     6.85,    10.68
      217.0,      10.50,    12.37,    12.14,     6.82,    10.66
      218.0,      10.46,    12.33,    12.09,     6.78,    10.63
      219.0,      10.43,    12.30,    12.04,     6.75,    10.61
      220.0,      10.39,    12.27,    11.99,     6.72,    10.58
      221.0,      10.36,    12.24,    11.94,     6.69,    10.56
      222.0,      10.32,    12.20,    11.89,     6.65,    10.53
      223.0,      10.29,    12.17,    11.85,     6.62,    10.51
      224.0,      10.25,    12.14,    11.80,     6.59,    10.48
      225.0,      10.22,    12.11,    11.75,     6.56,    10.46
      226.0,      10.18,    12.08,    11.70,     6.53,    10.43
      227.0,      10.15,    12.04,    11.65,     6.49,    10.41
      228.0,      10.12,    12.01,    11.60,     6.46,    10.38
      229.0,      10.08,    11.98,    11.56,     6.43,    10.36
      230.0,      10.05,    11.95,    11.51,     6.40,    10.33
      231.0,      10.02,    11.92,    11.46,     6.37,    10.31
      232.0,       9.98,    11.89,    11.41,     6.34,    10.29
      233.0,       9.95,    11.86,    11.37,     6.31,    10.26
      234.0,       9.92,    11.83,    11.32,     6.28,    10.24
      235.0,       9.88,    11.80,    11.27,     6.25,    10.21
      236.0,       9.85,    11.77,    11.23,     6.22,    10.19
      237.0,       9.82,    11.74,    11.18,     6.19,    10.16
      238.0,       9.79,    11.72,    11.13,     6.16,    10.14
      239.0,       9.76,    11.69,    11.09,     6.13,    10.12
      240.0,       9.72,    11.66,    11.04,     6.10,    10.09
      241.0,       9.69,    11.63,    11.00,     6.07,    10.07
      242.0,       9.66,    11.60,    10.95,     6.04,    10.05
      243.0,       9.63,    11.57,    10.91,     6.02,    10.02
      244.0,       9.60,    11.55,    10.86,     5.99,    10.00
      245.0,       9.57,    11.52,    10.82,     5.96,     9.97
      246.0,       9.54,    11.49,    10.77,     5.93,     9.95
      247.0,       9.51,    11.46,    10.73,     5.90,     9.93
      248.0,       9.48,    11.43,    10.69,     5.88,     9.90
      249.0,       9.44,    11.41,    10.64,     5.85,     9.88
      250.0,       9.41,    11.38,    10.60,     5.82,     9.86
      251.0,       9.38,    11.35,    10.55,     5.79,     9.83
      252.0,       9.35,    11.33,    10.51,     5.77,     9.81
      253.0,       9.32,    11.30,    10.47,     5.74,     9.79
      254.0,       9.29,    11.27,    10.42,     5.71,     9.77
      255.0,       9.26,    11.25,    10.38,     5.69,     9.74
      256.0,       9.24,    11.22,    10.34,     5.66,     9.72
      257.0,       9.21,    11.20,    10.30,     5.63,     9.70
      258.0,       9.18,    11.17,    10.25,     5.61,     9.67
      259.0,       9.15,    11.14,    10.21,     5.58,     9.65
      260.0,       9.12,    11.12,    10.17,     5.56,     9.63
      261.0,       9.09,    11.09,    10.13,     5.53,     9.61
      262.0,       9.06,    11.07,    10.09,     5.50,     9.58
      263.0,       9.03,    11.04,    10.05,     5.48,     9.56
      264.0,       9.00,    11.02,    10.00,     5.45,     9.54
      265.0,       8.98,    10.99,     9.96,     5.43,     9.52
      266.0,       8.95,    10.97,     9.92,     5.40,     9.49
      267.0,       8.92,    10.94,     9.88,     5.38,     9.47
      268.0,       8.89,    10.92,     9.84,     5.35,     9.45
      269.0,       8.86,    10.89,     9.80,     5.33,     9.43
      270.0,       8.83,    10.87,     9.76,     5.30,     9.40
      271.0,       8.81,    10.85,     9.72,     5.28,     9.38
      272.0,       8.78,    10.82,     9.68,     5.26,     9.36
      273.0,       8.75,    10.80,     9.64,     5.23,     9.34
      274.0,       8.72,    10.77,     9.60,     5.21,     9.32
      275.0,       8.70,    10.75,     9.56,     5.18,     9.30
      276.0,       8.67,    10.73,     9.52,     5.16,     9.27
      277.0,       8.64,    10.70,     9.48,     5.14,     9.25
      278.0,       8.62,    10.68,     9.44,     5.11,     9.23
      279.0,       8.59,    10.65,     9.41,     5.09,     9.21
      280.0,       8.56,    10.63,     9.37,     5.07,     9.19
      281.0,       8.54,    10.61,     9.33,     5.04,     9.17
      282.0,       8.51,    10.58,     9.29,     5.02,     9.14
      283.0,       8.48,    10.56,     9.25,     5.00,     9.12
      284.0,       8.46,    10.54,     9.21,     4.97,     9.10
      285.0,       8.43,    10.52,     9.18,     4.95,     9.08
      286.0,       8.40,    10.49,     9.14,     4.93,     9.06
      287.0,       8.38,    10.47,     9.10,     4.91,     9.04
      288.0,       8.35,    10.45,     9.06,     4.88,     9.02
      289.0,       8.33,    10.42,     9.03,     4.86,     8.99
      290.0,       8.30,    10.40,     8.99,     4.84,     8.97
      291.0,       8.28,    10.38,     8.95,     4.82,     8.95
      292.0,       8.25,    10.36,     8.92,     4.80,     8.93
      293.0,       8.22,    10.34,     8.88,     4.77,     8.91
      294.0,       8.20,    10.31,     8.84,     4.75,     8.89
      295.0,       8.17,    10.29,     8.81,     4.73,     8.87
      296.0,       8.15,    10.27,     8.77,     4.71,     8.85
      297.0,       8.12,    10.25,     8.73,     4.69,     8.83
      298.0,       8.10,    10.23,     8.70,     4.67,     8.81
      299.0,       8.07,    10.20,     8.66,     4.65,     8.79
      300.0,       8.05,    10.18,     8.63,     4.62,     8.77
      301.0,       8.03,    10.16,     8.59,     4.60,     8.75
      302.0,       8.00,    10.14,     8.56,     4.58,     8.72
      303.0,       7.98,    10.12,     8.52,     4.56,     8.70
      304.0,       7.95,    10.10,     8.49,     4.54,     8.68
      305.0,       7.93,    10.07,     8.45,     4.52,     8.66
      306.0,       7.90,    10.05,     8.42,     4.50,     8.64
      307.0,       7.88,    10.03,     8.38,     4.48,     8.62
      308.0,       7.86,    10.01,     8.35,     4.46,     8.60
      309.0,       7.83,     9.99,     8.31,     4.44,     8.58
      310.0,       7.81,     9.97,     8.28,     4.42,     8.56
