Radius (km), Mean (m/s), NE (m/s), SE (m/s), SW (m/s), NW (m/s)
        0.0,       0.00,     0.00,     0.00,     0.00,     0.00
        1.0,       3.12,     2.82,     3.16,     3.34,     3.16
        2.0,       5.38,     5.33,     5.53,     5.15,     5.53
        3.0,       7.44,     7.75,     7.69,     6.65,     7.66
        4.0,       9.40,    10.20,     9.77,     7.96,     9.68
        5.0,      11.37,    12.78,    11.87,     9.18,    11.66
        6.0,      13.42,    15.59,    14.06,    10.36,    13.67
        7.0,      15.59,    18.66,    16.38,    11.53,    15.78
        8.0,      17.88,    21.98,    18.80,    12.72,    18.02
        9.0,      20.26,    25.45,    21.28,    13.94,    20.37
       10.0,      22.65,    28.93,    23.75,    15.16,    22.77
       11.0,      24.96,    32.25,    26.09,    16.36,    25.15
       12.0,      27.07,    35.22,    28.20,    17.49,    27.37
       13.0,      28.88,    37.70,    29.99,    18.49,    29.35
       14.0,      30.33,    39.58,    31.41,    19.34,    30.97
       15.0,      31.36,    40.81,    32.42,    20.00,    32.19
       16.0,      31.98,    41.42,    33.05,    20.46,    32.98
       17.0,      32.22,    41.48,    33.32,    20.73,    33.35
       18.0,      32.15,    41.10,    33.33,    20.82,    33.36
       19.0,      31.86,    40.42,    33.14,    20.78,    33.09
       20.0,      31.43,    39.58,    32.84,    20.65,    32.64
       21.0,      30.93,    38.68,    32.49,    20.46,    32.09
       22.0,      30.42,    37.79,    32.14,    20.25,    31.52
       23.0,      29.94,    36.95,    31.80,    20.05,    30.96
       24.0,      29.48,    36.16,    31.49,    19.85,    30.44
       25.0,      29.05,    35.41,    31.18,    19.67,    29.95
       26.0,      28.64,    34.69,    30.88,    19.50,    29.48
       27.0,      28.23,    34.00,    30.58,    19.33,    29.02
       28.0,      27.84,    33.33,    30.29,    19.17,    28.58
       29.0,      27.46,    32.68,    30.00,    19.00,    28.14
       30.0,      27.08,    32.06,    29.71,    18.84,    27.72
       31.0,      26.72,    31.46,    29.43,    18.68,    27.30
       32.0,      26.37,    30.88,    29.16,    18.52,    26.90
       33.0,      26.02,    30.33,    28.89,    18.37,    26.50
       34.0,      25.68,    29.79,    28.62,    18.21,    26.11
       35.0,      25.35,    29.27,    28.35,    18.06,    25.74
       36.0,      25.03,    28.77,    28.09,    17.90,    25.37
       37.0,      24.72,    28.29,    27.84,    17.75,    25.00
       38.0,      24.42,    27.83,    27.59,    17.61,    24.65
       39.0,      24.12,    27.38,    27.34,    17.46,    24.31
       40.0,      23.83,    26.95,    27.09,    17.31,    23.97
       41.0,      23.55,    26.53,    26.85,    17.17,    23.64
       42.0,      23.27,    26.13,    26.61,    17.03,    23.32
       43.0,      23.00,    25.74,    26.38,    16.89,    23.00
       44.0,      22.74,    25.36,    26.15,    16.75,    22.70
       45.0,      22.48,    25.00,    25.92,    16.61,    22.40
       46.0,      22.23,    24.65,    25.70,    16.47,    22.10
       47.0,      21.99,    24.31,    25.48,    16.34,    21.81
       48.0,      21.75,    23.99,    25.26,    16.21,    21.53
       49.0,      21.51,    23.67,    25.05,    16.07,    21.26
       50.0,      21.28,    23.37,    24.84,    15.94,    20.99
       51.0,      21.06,    23.07,    24.63,    15.81,    20.73
       52.0,      20.84,    22.79,    24.42,    15.69,    20.47
       53.0,      20.63,    22.52,    24.22,    15.56,    20.22
       54.0,      20.42,    22.25,    24.02,    15.44,    19.97
       55.0,      20.22,    21.99,    23.82,    15.31,    19.73
       56.0,      20.02,    21.75,    23.63,    15.19,    19.49
       57.0,      19.82,    21.51,    23.44,    15.07,    19.26
       58.0,      19.63,    21.28,    23.25,    14.95,    19.04
       59.0,      19.44,    21.05,    23.07,    14.83,    18.82
       60.0,      19.26,    20.83,    22.88,    14.71,    18.60
       61.0,      19.08,    20.62,    22.70,    14.60,    18.39
       62.0,      18.90,    20.42,    22.53,    14.48,    18.18
       63.0,      18.73,    20.23,    22.35,    14.37,    17.98
       64.0,      18.56,    20.03,    22.18,    14.26,    17.78
       65.0,      18.40,    19.85,    22.01,    14.15,    17.59
       66.0,      18.24,    19.67,    21.84,    14.04,    17.40
       67.0,      18.08,    19.50,    21.68,    13.93,    17.21
       68.0,      17.92,    19.33,    21.51,    13.82,    17.03
       69.0,      17.77,    19.17,    21.35,    13.71,    16.85
       70.0,      17.62,    19.01,    21.20,    13.61,    16.68
       71.0,      17.48,    18.86,    21.04,    13.50,    16.50
       72.0,      17.33,    18.71,    20.89,    13.40,    16.34
       73.0,      17.19,    18.57,    20.73,    13.30,    16.17
       74.0,      17.06,    18.43,    20.58,    13.20,    16.01
       75.0,      16.92,    18.29,    20.44,    13.09,    15.85
       76.0,      16.79,    18.16,    20.29,    13.00,    15.70
       77.0,      16.66,    18.04,    20.15,    12.90,    15.55
       78.0,      16.53,    17.91,    20.01,    12.80,    15.40
       79.0,      16.40,    17.79,    19.87,    12.70,    15.25
       80.0,      16.28,    17.68,    19.73,    12.61,    15.11
       81.0,      16.16,    17.56,    19.59,    12.51,    14.97
       82.0,      16.04,    17.45,    19.46,    12.42,    14.83
       83.0,      15.93,    17.35,    19.33,    12.33,    14.70
       84.0,      15.81,    17.24,    19.20,    12.24,    14.57
       85.0,      15.70,    17.14,    19.07,    12.15,    14.44
       86.0,      15.59,    17.04,    18.94,    12.06,    14.31
       87.0,      15.48,    16.95,    18.82,    11.97,    14.18
       88.0,      15.37,    16.85,    18.69,    11.88,    14.06
       89.0,      15.27,    16.76,    18.57,    11.79,    13.94
       90.0,      15.16,    16.67,    18.45,    11.71,    13.82
       91.0,      15.06,    16.58,    18.33,    11.62,    13.71
       92.0,      14.96,    16.50,    18.22,    11.54,    13.60
       93.0,      14.86,    16.42,    18.10,    11.46,    13.48
       94.0,      14.77,    16.34,    17.99,    11.37,    13.37
       95.0,      14.67,    16.26,    17.88,    11.29,    13.27
       96.0,      14.58,    16.18,    17.77,    11.21,    13.16
       97.0,      14.49,    16.11,    17.66,    11.13,    13.06
       98.0,      14.40,    16.03,    17.55,    11.05,    12.96
       99.0,      14.31,    15.96,    17.44,    10.97,    12.86
      100.0,      14.22,    15.89,    17.34,    10.89,    12.76
      101.0,      14.13,    15.83,    17.23,    10.82,    12.66
      102.0,      14.05,    15.76,    17.13,    10.74,    12.57
      103.0,      13.97,    15.69,    17.03,    10.66,    12.47
      104.0,      13.88,    15.63,    16.93,    10.59,    12.38
      105.0,      13.80,    15.57,    16.83,    10.51,    12.29
      106.0,      13.72,    15.51,    16.74,    10.44,    12.20
      107.0,      13.64,    15.45,    16.64,    10.37,    12.12
      108.0,      13.56,    15.39,    16.55,    10.30,    12.03
      109.0,      13.49,    15.33,    16.45,    10.22,    11.95
      110.0,      13.41,    15.27,    16.36,    10.15,    11.86
      111.0,      13.34,    15.22,    16.27,    10.08,    11.78
      112.0,      13.26,    15.16,    16.18,    10.01,    11.70
      113.0,      13.19,    15.11,    16.09,     9.95,    11.62
      114.0,      13.12,    15.06,    16.00,     9.88,    11.55
      115.0,      13.05,    15.00,    15.92,     9.81,    11.47
      116.0,      12.98,    14.95,    15.83,     9.74,    11.39
      117.0,      12.91,    14.90,    15.75,     9.68,    11.32
      118.0,      12.84,    14.85,    15.66,     9.61,    11.25
      119.0,      12.78,    14.81,    15.58,     9.55,    11.18
      120.0,      12.71,    14.76,    15.50,     9.48,    11.11
      121.0,      12.65,    14.71,    15.42,     9.42,    11.04
      122.0,      12.58,    14.67,    15.34,     9.36,    10.97
      123.0,      12.52,    14.62,    15.26,     9.29,    10.90
      124.0,      12.46,    14.58,    15.18,     9.23,    10.83
      125.0,      12.39,    14.53,    15.11,     9.17,    10.77
      126.0,      12.33,    14.49,    15.03,     9.11,    10.70
      127.0,      12.27,    14.44,    14.96,     9.05,    10.64
      128.0,      12.21,    14.40,    14.88,     8.99,    10.58
      129.0,      12.15,    14.36,    14.81,     8.93,    10.51
      130.0,      12.10,    14.32,    14.74,     8.87,    10.45
      131.0,      12.04,    14.28,    14.67,     8.81,    10.39
      132.0,      11.98,    14.24,    14.60,     8.76,    10.33
      133.0,      11.93,    14.20,    14.53,     8.70,    10.28
      134.0,      11.87,    14.16,    14.46,     8.64,    10.22
      135.0,      11.82,    14.12,    14.39,     8.59,    10.16
      136.0,      11.76,    14.08,    14.33,     8.53,    10.10
      137.0,      11.71,    14.04,    14.26,     8.48,    10.05
      138.0,      11.65,    14.01,    14.19,     8.42,     9.99
      139.0,      11.60,    13.97,    14.13,     8.37,     9.94
      140.0,      11.55,    13.93,    14.07,     8.31,     9.89
      141.0,      11.50,    13.90,    14.00,     8.26,     9.83
      142.0,      11.45,    13.86,    13.94,     8.21,     9.78
      143.0,      11.40,    13.83,    13.88,     8.16,     9.73
      144.0,      11.35,    13.79,    13.82,     8.10,     9.68
      145.0,      11.30,    13.76,    13.76,     8.05,     9.63
      146.0,      11.25,    13.72,    13.70,     8.00,     9.58
      147.0,      11.20,    13.69,    13.64,     7.95,     9.53
      148.0,      11.15,    13.65,    13.58,     7.90,     9.48
      149.0,      11.11,    13.62,    13.52,     7.85,     9.43
      150.0,      11.06,    13.59,    13.46,     7.80,     9.39
      151.0,      11.01,    13.55,    13.41,     7.76,     9.34
      152.0,      10.97,    13.52,    13.35,     7.71,     9.29
      153.0,      10.92,    13.49,    13.30,     7.66,     9.25
      154.0,      10.88,    13.45,    13.24,     7.61,     9.20
      155.0,      10.83,    13.42,    13.19,     7.57,     9.16
      156.0,      10.79,    13.39,    13.13,     7.52,     9.11
      157.0,      10.75,    13.36,    13.08,     7.47,     9.07
      158.0,      10.70,    13.33,    13.03,     7.43,     9.03
      159.0,      10.66,    13.30,    12.98,     7.38,     8.98
      160.0,      10.62,    13.26,    12.93,     7.34,     8.94
      161.0,      10.58,    13.23,    12.87,     7.29,     8.90
      162.0,      10.53,    13.20,    12.82,     7.25,     8.86
      163.0,      10.49,    13.17,    12.77,     7.20,     8.82
      164.0,      10.45,    13.14,    12.73,     7.16,     8.78
      165.0,      10.41,    13.11,    12.68,     7.12,     8.74
      166.0,      10.37,    13.08,    12.63,     7.08,     8.70
      167.0,      10.33,    13.05,    12.58,     7.03,     8.66
      168.0,      10.29,    13.02,    12.53,     6.99,     8.62
      169.0,      10.25,    12.99,    12.49,     6.95,     8.58
      170.0,      10.21,    12.96,    12.44,     6.91,     8.54
      171.0,      10.18,    12.93,    12.39,     6.87,     8.50
      172.0,      10.14,    12.91,    12.35,     6.83,     8.47
      173.0,      10.10,    12.88,    12.30,     6.79,     8.43
      174.0,      10.06,    12.85,    12.26,     6.75,     8.39
      175.0,      10.02,    12.82,    12.22,     6.71,     8.35
      176.0,       9.99,    12.79,    12.17,     6.67,     8.32
      177.0,       9.95,    12.76,    12.13,     6.63,     8.28
      178.0,       9.91,    12.73,    12.09,     6.59,     8.25
      179.0,       9.88,    12.71,    12.04,     6.55,     8.21
      180.0,       9.84,    12.68,    12.00,     6.51,     8.18
      181.0,       9.81,    12.65,    11.96,     6.48,     8.14
      182.0,       9.77,    12.62,    11.92,     6.44,     8.11
      183.0,       9.74,    12.60,    11.88,     6.40,     8.07
      184.0,       9.70,    12.57,    11.84,     6.36,     8.04
      185.0,       9.67,    12.54,    11.80,     6.33,     8.01
      186.0,       9.63,    12.51,    11.76,     6.29,     7.97
      187.0,       9.60,    12.49,    11.72,     6.26,     7.94
      188.0,       9.57,    12.46,    11.68,     6.22,     7.91
      189.0,       9.53,    12.43,    11.64,     6.18,     7.87
      190.0,       9.50,    12.41,    11.60,     6.15,     7.84
      191.0,       9.47,    12.38,    11.56,     6.11,     7.81
      192.0,       9.43,    12.35,    11.53,     6.08,     7.78
      193.0,       9.40,    12.33,    11.49,     6.05,     7.74
      194.0,       9.37,    12.30,    11.45,     6.01,     7.71
      195.0,       9.34,    12.27,    11.42,     5.98,     7.68
      196.0,       9.31,    12.25,    11.38,     5.94,     7.65
      197.0,       9.27,    12.22,    11.34,     5.91,     7.62
      198.0,       9.24,    12.20,    11.31,     5.88,     7.59
      199.0,       9.21,    12.17,    11.27,     5.85,     7.56
      200.0,       9.18,    12.14,    11.24,     5.81,     7.53
      201.0,       9.15,    12.12,    11.20,     5.78,     7.50
      202.0,       9.12,    12.09,    11.17,     5.75,     7.47
      203.0,       9.09,    12.07,    11.13,     5.72,     7.44
      204.0,       9.06,    12.04,    11.10,     5.69,     7.41
      205.0,       9.03,    12.01,    11.07,     5.65,     7.38
      206.0,       9.00,    11.99,    11.03,     5.62,     7.35
      207.0,       8.97,    11.96,    11.00,     5.59,     7.32
      208.0,       8.94,    11.94,    10.97,     5.56,     7.30
      209.0,       8.91,    11.91,    10.93,     5.53,     7.27
      210.0,       8.88,    11.89,    10.90,     5.50,     7.24
      211.0,       8.85,    11.86,    10.87,     5.47,     7.21
      212.0,       8.83,    11.84,    10.84,     5.44,     7.18
      213.0,       8.80,    11.81,    10.81,     5.41,     7.16
      214.0,       8.77,    11.79,    10.78,     5.38,     7.13
      215.0,       8.74,    11.76,    10.74,     5.35,     7.10
      216.0,       8.71,    11.74,    10.71,     5.33,     7.07
      217.0,       8.69,    11.71,    10.68,     5.30,     7.05
      218.0,       8.66,    11.69,    10.65,     5.27,     7.02
      219.0,       8.63,    11.67,    10.62,     5.24,     6.99
      220.0,       8.60,    11.64,    10.59,     5.21,     6.97
      221.0,       8.58,    11.62,    10.56,     5.18,     6.94
      222.0,       8.55,    11.59,    10.53,     5.16,     6.92
      223.0,       8.52,    11.57,    10.50,     5.13,     6.89
      224.0,       8.50,    11.54,    10.47,     5.10,     6.86
      225.0,       8.47,    11.52,    10.45,     5.08,     6.84
      226.0,       8.44,    11.50,    10.42,     5.05,     6.81
      227.0,       8.42,    11.47,    10.39,     5.02,     6.79
      228.0,       8.39,    11.45,    10.36,     5.00,     6.76
      229.0,       8.37,    11.42,    10.33,     4.97,     6.74
      230.0,       8.34,    11.40,    10.30,     4.94,     6.71
      231.0,       8.31,    11.38,    10.28,     4.92,     6.69
      232.0,       8.29,    11.35,    10.25,     4.89,     6.66
      233.0,       8.26,    11.33,    10.22,     4.87,     6.64
      234.0,       8.24,    11.30,    10.19,     4.84,     6.61
      235.0,       8.21,    11.28,    10.17,     4.82,     6.59
      236.0,       8.19,    11.26,    10.14,     4.79,     6.56
      237.0,       8.16,    11.23,    10.11,     4.77,     6.54
      238.0,       8.14,    11.21,    10.09,     4.74,     6.52
      239.0,       8.11,    11.19,    10.06,     4.72,     6.49
      240.0,       8.09,    11.16,    10.03,     4.69,     6.47
      241.0,       8.07,    11.14,    10.01,     4.67,     6.44
      242.0,       8.04,    11.12,     9.98,     4.64,     6.42
      243.0,       8.02,    11.09,     9.96,     4.62,     6.40
      244.0,       7.99,    11.07,     9.93,     4.60,     6.37
      245.0,       7.97,    11.05,     9.91,     4.57,     6.35
      246.0,       7.95,    11.03,     9.88,     4.55,     6.33
      247.0,       7.92,    11.00,     9.86,     4.53,     6.30
      248.0,       7.90,    10.98,     9.83,     4.50,     6.28
      249.0,       7.88,    10.96,     9.81,     4.48,     6.26
      250.0,       7.85,    10.93,     9.78,     4.46,     6.24
      251.0,       7.83,    10.91,     9.76,     4.44,     6.21
      252.0,       7.81,    10.89,     9.73,     4.41,     6.19
      253.0,       7.78,    10.87,     9.71,     4.39,     6.17
      254.0,       7.76,    10.84,     9.69,     4.37,     6.15
      255.0,       7.74,    10.82,     9.66,     4.35,     6.12
      256.0,       7.72,    10.80,     9.64,     4.33,     6.10
      257.0,       7.69,    10.78,     9.62,     4.30,     6.08
      258.0,       7.67,    10.75,     9.59,     4.28,     6.06
      259.0,       7.65,    10.73,     9.57,     4.26,     6.04
      260.0,       7.63,    10.71,     9.55,     4.24,     6.02
      261.0,       7.61,    10.69,     9.52,     4.22,     5.99
      262.0,       7.58,    10.67,     9.50,     4.20,     5.97
      263.0,       7.56,    10.64,     9.48,     4.18,     5.95
      264.0,       7.54,    10.62,     9.45,     4.16,     5.93
      265.0,       7.52,    10.60,     9.43,     4.14,     5.91
      266.0,       7.50,    10.58,     9.41,     4.12,     5.89
      267.0,       7.48,    10.56,     9.39,     4.10,     5.87
      268.0,       7.45,    10.53,     9.36,     4.08,     5.85
      269.0,       7.43,    10.51,     9.34,     4.06,     5.82
      270.0,       7.41,    10.49,     9.32,     4.04,     5.80
      271.0,       7.39,    10.47,     9.30,     4.02,     5.78
      272.0,       7.37,    10.45,     9.28,     4.00,     5.76
      273.0,       7.35,    10.43,     9.26,     3.98,     5.74
      274.0,       7.33,    10.40,     9.23,     3.96,     5.72
      275.0,       7.31,    10.38,     9.21,     3.94,     5.70
      276.0,       7.29,    10.36,     9.19,     3.92,     5.68
      277.0,       7.27,    10.34,     9.17,     3.90,     5.66
      278.0,       7.25,    10.32,     9.15,     3.88,     5.64
      279.0,       7.23,    10.30,     9.13,     3.86,     5.62
      280.0,       7.21,    10.27,     9.11,     3.84,     5.60
      281.0,       7.19,    10.25,     9.09,     3.83,     5.58
      282.0,       7.17,    10.23,     9.07,     3.81,     5.56
      283.0,       7.15,    10.21,     9.05,     3.79,     5.54
      284.0,       7.13,    10.19,     9.02,     3.77,     5.52
      285.0,       7.11,    10.17,     9.00,     3.75,     5.50
      286.0,       7.09,    10.15,     8.98,     3.73,     5.48
      287.0,       7.07,    10.13,     8.96,     3.72,     5.47
      288.0,       7.05,    10.11,     8.94,     3.70,     5.45
      289.0,       7.03,    10.09,     8.92,     3.68,     5.43
      290.0,       7.01,    10.06,     8.90,     3.66,     5.41
      291.0,       6.99,    10.04,     8.88,     3.65,     5.39
      292.0,       6.97,    10.02,     8.86,     3.63,     5.37
      293.0,       6.95,    10.00,     8.84,     3.61,     5.35
      294.0,       6.93,     9.98,     8.83,     3.59,     5.33
      295.0,       6.91,     9.96,     8.81,     3.58,     5.31
      296.0,       6.90,     9.94,     8.79,     3.56,     5.29
      297.0,       6.88,     9.92,     8.77,     3.54,     5.28
      298.0,       6.86,     9.90,     8.75,     3.53,     5.26
      299.0,       6.84,     9.88,     8.73,     3.51,     5.24
      300.0,       6.82,     9.86,     8.71,     3.49,     5.22
      301.0,       6.80,     9.84,     8.69,     3.48,     5.20
      302.0,       6.78,     9.82,     8.67,     3.46,     5.18
      303.0,       6.77,     9.80,     8.65,     3.44,     5.17
      304.0,       6.75,     9.78,     8.63,     3.43,     5.15
      305.0,       6.73,     9.76,     8.62,     3.41,     5.13
      306.0,       6.71,     9.74,     8.60,     3.40,     5.11
      307.0,       6.69,     9.72,     8.58,     3.38,     5.09
      308.0,       6.67,     9.70,     8.56,     3.36,     5.08
      309.0,       6.66,     9.68,     8.54,     3.35,     5.06
      310.0,       6.64,     9.66,     8.52,     3.33,     5.04
