Radius (km), Mean (m/s), NE (m/s), SE (m/s), SW (m/s), NW (m/s)
        0.0,       0.00,     0.00,     0.00,     0.00,     0.00
        1.0,       1.34,     0.91,     1.27,     1.72,     1.48
        2.0,       2.91,     2.24,     2.82,     3.45,     3.13
        3.0,       4.59,     3.80,     4.51,     5.18,     4.86
        4.0,       6.34,     5.53,     6.29,     6.92,     6.63
        5.0,       8.16,     7.40,     8.13,     8.66,     8.43
        6.0,      10.02,     9.39,    10.04,    10.40,    10.27
        7.0,      11.94,    11.48,    12.00,    12.14,    12.13
        8.0,      13.89,    13.66,    14.00,    13.89,    14.01
        9.0,      15.88,    15.93,    16.04,    15.63,    15.91
       10.0,      17.90,    18.28,    18.11,    17.38,    17.83
       11.0,      19.95,    20.70,    20.22,    19.13,    19.76
       12.0,      22.04,    23.20,    22.36,    20.88,    21.71
       13.0,      24.18,    25.79,    24.58,    22.63,    23.71
       14.0,      26.44,    28.60,    26.96,    24.39,    25.82
       15.0,      28.92,    31.75,    29.62,    26.20,    28.14
       16.0,      31.71,    35.36,    32.64,    28.14,    30.72
       17.0,      34.85,    39.50,    36.06,    30.27,    33.58
       18.0,      38.32,    44.11,    39.83,    32.64,    36.70
       19.0,      42.00,    49.03,    43.79,    35.22,    39.96
       20.0,      45.73,    54.03,    47.75,    37.94,    43.22
       21.0,      49.31,    58.79,    51.48,    40.66,    46.30
       22.0,      52.50,    63.03,    54.72,    43.22,    49.02
       23.0,      55.12,    66.47,    57.31,    45.45,    51.25
       24.0,      57.03,    68.94,    59.10,    47.21,    52.88
       25.0,      58.17,    70.35,    60.06,    48.39,    53.87
       26.0,      58.55,    70.74,    60.22,    48.96,    54.26
       27.0,      58.25,    70.24,    59.71,    48.93,    54.13
       28.0,      57.42,    69.04,    58.68,    48.38,    53.59
       29.0,      56.23,    67.38,    57.33,    47.43,    52.79
       30.0,      54.84,    65.48,    55.82,    46.22,    51.86
       31.0,      53.40,    63.54,    54.28,    44.89,    50.89
       32.0,      51.99,    61.66,    52.81,    43.56,    49.94
       33.0,      50.67,    59.91,    51.43,    42.29,    49.05
       34.0,      49.43,    58.27,    50.14,    41.12,    48.21
       35.0,      48.27,    56.72,    48.91,    40.04,    47.39
       36.0,      47.15,    55.24,    47.73,    39.02,    46.60
       37.0,      46.07,    53.81,    46.59,    38.05,    45.83
       38.0,      45.03,    52.43,    45.50,    37.12,    45.08
       39.0,      44.03,    51.11,    44.44,    36.22,    44.35
       40.0,      43.07,    49.84,    43.43,    35.36,    43.63
       41.0,      42.13,    48.62,    42.46,    34.53,    42.93
       42.0,      41.23,    47.44,    41.52,    33.72,    42.25
       43.0,      40.37,    46.31,    40.62,    32.95,    41.59
       44.0,      39.53,    45.22,    39.75,    32.20,    40.94
       45.0,      38.72,    44.17,    38.92,    31.48,    40.31
       46.0,      37.94,    43.16,    38.11,    30.79,    39.70
       47.0,      37.19,    42.19,    37.34,    30.12,    39.10
       48.0,      36.46,    41.25,    36.60,    29.48,    38.51
       49.0,      35.76,    40.35,    35.88,    28.86,    37.94
       50.0,      35.08,    39.49,    35.19,    28.26,    37.38
       51.0,      34.43,    38.66,    34.53,    27.69,    36.84
       52.0,      33.79,    37.85,    33.89,    27.13,    36.31
       53.0,      33.18,    37.08,    33.27,    26.59,    35.79
       54.0,      32.59,    36.34,    32.68,    26.07,    35.29
       55.0,      32.02,    35.62,    32.10,    25.57,    34.80
       56.0,      31.47,    34.93,    31.55,    25.09,    34.32
       57.0,      30.94,    34.27,    31.02,    24.63,    33.85
       58.0,      30.43,    33.63,    30.51,    24.18,    33.39
       59.0,      29.93,    33.01,    30.02,    23.74,    32.94
       60.0,      29.45,    32.42,    29.55,    23.33,    32.51
       61.0,      28.99,    31.85,    29.09,    22.92,    32.08
       62.0,      28.54,    31.30,    28.65,    22.53,    31.67
       63.0,      28.10,    30.77,    28.23,    22.15,    31.26
       64.0,      27.68,    30.26,    27.82,    21.79,    30.87
       65.0,      27.28,    29.76,    27.42,    21.44,    30.48
       66.0,      26.88,    29.29,    27.04,    21.10,    30.11
       67.0,      26.50,    28.83,    26.68,    20.77,    29.74
       68.0,      26.14,    28.39,    26.32,    20.45,    29.38
       69.0,      25.78,    27.97,    25.98,    20.14,    29.03
       70.0,      25.44,    27.55,    25.65,    19.84,    28.69
       71.0,      25.10,    27.16,    25.33,    19.56,    28.36
       72.0,      24.78,    26.78,    25.03,    19.28,    28.03
       73.0,      24.47,    26.41,    24.73,    19.01,    27.71
       74.0,      24.16,    26.05,    24.45,    18.75,    27.40
       75.0,      23.87,    25.71,    24.17,    18.49,    27.10
       76.0,      23.58,    25.38,    23.90,    18.25,    26.80
       77.0,      23.31,    25.06,    23.65,    18.01,    26.51
       78.0,      23.04,    24.75,    23.40,    17.78,    26.23
       79.0,      22.78,    24.46,    23.16,    17.56,    25.96
       80.0,      22.53,    24.17,    22.93,    17.35,    25.69
       81.0,      22.29,    23.89,    22.70,    17.14,    25.42
       82.0,      22.05,    23.62,    22.49,    16.93,    25.17
       83.0,      21.82,    23.36,    22.28,    16.74,    24.92
       84.0,      21.60,    23.11,    22.07,    16.55,    24.67
       85.0,      21.39,    22.87,    21.88,    16.36,    24.43
       86.0,      21.18,    22.64,    21.69,    16.18,    24.20
       87.0,      20.97,    22.41,    21.51,    16.01,    23.97
       88.0,      20.78,    22.19,    21.33,    15.84,    23.74
       89.0,      20.58,    21.98,    21.16,    15.67,    23.52
       90.0,      20.40,    21.78,    20.99,    15.51,    23.31
       91.0,      20.22,    21.58,    20.83,    15.36,    23.10
       92.0,      20.04,    21.39,    20.67,    15.20,    22.90
       93.0,      19.87,    21.20,    20.52,    15.06,    22.70
       94.0,      19.70,    21.02,    20.38,    14.91,    22.50
       95.0,      19.54,    20.85,    20.23,    14.77,    22.31
       96.0,      19.38,    20.68,    20.10,    14.64,    22.12
       97.0,      19.23,    20.52,    19.96,    14.51,    21.94
       98.0,      19.08,    20.36,    19.83,    14.38,    21.76
       99.0,      18.94,    20.20,    19.71,    14.25,    21.59
      100.0,      18.80,    20.05,    19.59,    14.13,    21.42
      101.0,      18.66,    19.91,    19.47,    14.01,    21.25
      102.0,      18.53,    19.77,    19.35,    13.89,    21.09
      103.0,      18.39,    19.63,    19.24,    13.78,    20.93
      104.0,      18.27,    19.50,    19.13,    13.67,    20.77
      105.0,      18.14,    19.37,    19.02,    13.56,    20.62
      106.0,      18.02,    19.25,    18.92,    13.45,    20.47
      107.0,      17.91,    19.13,    18.82,    13.35,    20.32
      108.0,      17.79,    19.01,    18.72,    13.25,    20.18
      109.0,      17.68,    18.89,    18.63,    13.15,    20.04
      110.0,      17.57,    18.78,    18.54,    13.05,    19.90
      111.0,      17.46,    18.67,    18.45,    12.96,    19.76
      112.0,      17.36,    18.57,    18.36,    12.87,    19.63
      113.0,      17.26,    18.47,    18.27,    12.78,    19.50
      114.0,      17.16,    18.37,    18.19,    12.69,    19.38
      115.0,      17.06,    18.27,    18.11,    12.60,    19.25
      116.0,      16.96,    18.17,    18.03,    12.52,    19.13
      117.0,      16.87,    18.08,    17.95,    12.43,    19.01
      118.0,      16.78,    17.99,    17.88,    12.35,    18.89
      119.0,      16.69,    17.90,    17.80,    12.27,    18.78
      120.0,      16.60,    17.82,    17.73,    12.19,    18.67
      121.0,      16.52,    17.73,    17.66,    12.12,    18.56
      122.0,      16.43,    17.65,    17.59,    12.04,    18.45
      123.0,      16.35,    17.57,    17.52,    11.97,    18.34
      124.0,      16.27,    17.49,    17.46,    11.89,    18.24
      125.0,      16.19,    17.42,    17.39,    11.82,    18.14
      126.0,      16.12,    17.34,    17.33,    11.75,    18.04
      127.0,      16.04,    17.27,    17.27,    11.68,    17.94
      128.0,      15.97,    17.20,    17.21,    11.61,    17.85
      129.0,      15.89,    17.13,    17.15,    11.55,    17.75
      130.0,      15.82,    17.06,    17.09,    11.48,    17.66
      131.0,      15.75,    16.99,    17.03,    11.42,    17.57
      132.0,      15.68,    16.92,    16.97,    11.35,    17.48
      133.0,      15.61,    16.86,    16.92,    11.29,    17.39
      134.0,      15.55,    16.80,    16.86,    11.23,    17.31
      135.0,      15.48,    16.73,    16.81,    11.17,    17.22
      136.0,      15.42,    16.67,    16.76,    11.11,    17.14
      137.0,      15.36,    16.61,    16.71,    11.05,    17.06
      138.0,      15.29,    16.55,    16.66,    10.99,    16.98
      139.0,      15.23,    16.49,    16.61,    10.93,    16.90
      140.0,      15.17,    16.44,    16.56,    10.87,    16.82
      141.0,      15.11,    16.38,    16.51,    10.82,    16.75
      142.0,      15.06,    16.33,    16.46,    10.76,    16.67
      143.0,      15.00,    16.27,    16.41,    10.71,    16.60
      144.0,      14.94,    16.22,    16.37,    10.65,    16.53
      145.0,      14.89,    16.17,    16.32,    10.60,    16.46
      146.0,      14.83,    16.12,    16.28,    10.55,    16.39
      147.0,      14.78,    16.06,    16.23,    10.50,    16.32
      148.0,      14.72,    16.01,    16.19,    10.44,    16.25
      149.0,      14.67,    15.96,    16.15,    10.39,    16.18
      150.0,      14.62,    15.92,    16.10,    10.34,    16.12
      151.0,      14.57,    15.87,    16.06,    10.29,    16.06
      152.0,      14.52,    15.82,    16.02,    10.24,    15.99
      153.0,      14.47,    15.77,    15.98,    10.19,    15.93
      154.0,      14.42,    15.73,    15.94,    10.15,    15.87
      155.0,      14.37,    15.68,    15.90,    10.10,    15.81
      156.0,      14.32,    15.64,    15.86,    10.05,    15.75
      157.0,      14.28,    15.59,    15.82,    10.00,    15.69
      158.0,      14.23,    15.55,    15.78,     9.96,    15.63
      159.0,      14.18,    15.50,    15.74,     9.91,    15.58
      160.0,      14.14,    15.46,    15.70,     9.86,    15.52
      161.0,      14.09,    15.42,    15.67,     9.82,    15.47
      162.0,      14.05,    15.38,    15.63,     9.77,    15.41
      163.0,      14.00,    15.34,    15.59,     9.73,    15.36
      164.0,      13.96,    15.29,    15.55,     9.69,    15.30
      165.0,      13.92,    15.25,    15.52,     9.64,    15.25
      166.0,      13.87,    15.21,    15.48,     9.60,    15.20
      167.0,      13.83,    15.17,    15.45,     9.56,    15.15
      168.0,      13.79,    15.13,    15.41,     9.51,    15.10
      169.0,      13.75,    15.09,    15.38,     9.47,    15.05
      170.0,      13.71,    15.05,    15.34,     9.43,    15.00
      171.0,      13.67,    15.02,    15.31,     9.39,    14.95
      172.0,      13.63,    14.98,    15.27,     9.35,    14.91
      173.0,      13.59,    14.94,    15.24,     9.31,    14.86
      174.0,      13.55,    14.90,    15.20,     9.27,    14.81
      175.0,      13.51,    14.86,    15.17,     9.22,    14.77
      176.0,      13.47,    14.83,    15.14,     9.18,    14.72
      177.0,      13.43,    14.79,    15.10,     9.15,    14.68
      178.0,      13.39,    14.75,    15.07,     9.11,    14.63
      179.0,      13.35,    14.72,    15.04,     9.07,    14.59
      180.0,      13.32,    14.68,    15.01,     9.03,    14.55
      181.0,      13.28,    14.64,    14.97,     8.99,    14.51
      182.0,      13.24,    14.61,    14.94,     8.95,    14.46
      183.0,      13.20,    14.57,    14.91,     8.91,    14.42
      184.0,      13.17,    14.54,    14.88,     8.87,    14.38
      185.0,      13.13,    14.50,    14.85,     8.84,    14.34
      186.0,      13.10,    14.47,    14.81,     8.80,    14.30
      187.0,      13.06,    14.43,    14.78,     8.76,    14.26
      188.0,      13.02,    14.40,    14.75,     8.72,    14.22
      189.0,      12.99,    14.37,    14.72,     8.69,    14.18
      190.0,      12.95,    14.33,    14.69,     8.65,    14.14
      191.0,      12.92,    14.30,    14.66,     8.61,    14.10
      192.0,      12.88,    14.26,    14.63,     8.58,    14.07
      193.0,      12.85,    14.23,    14.60,     8.54,    14.03
      194.0,      12.82,    14.20,    14.57,     8.51,    13.99
      195.0,      12.78,    14.17,    14.54,     8.47,    13.96
      196.0,      12.75,    14.13,    14.51,     8.44,    13.92
      197.0,      12.72,    14.10,    14.48,     8.40,    13.88
      198.0,      12.68,    14.07,    14.45,     8.37,    13.85
      199.0,      12.65,    14.03,    14.42,     8.33,    13.81
      200.0,      12.62,    14.00,    14.39,     8.30,    13.78
      201.0,      12.58,    13.97,    14.36,     8.26,    13.74
      202.0,      12.55,    13.94,    14.33,     8.23,    13.71
      203.0,      12.52,    13.91,    14.30,     8.19,    13.67
      204.0,      12.49,    13.87,    14.27,     8.16,    13.64
      205.0,      12.46,    13.84,    14.24,     8.13,    13.61
      206.0,      12.42,    13.81,    14.22,     8.09,    13.57
      207.0,      12.39,    13.78,    14.19,     8.06,    13.54
      208.0,      12.36,    13.75,    14.16,     8.03,    13.51
      209.0,      12.33,    13.72,    14.13,     7.99,    13.47
      210.0,      12.30,    13.69,    14.10,     7.96,    13.44
      211.0,      12.27,    13.66,    14.07,     7.93,    13.41
      212.0,      12.24,    13.63,    14.04,     7.90,    13.38
      213.0,      12.21,    13.60,    14.02,     7.86,    13.35
      214.0,      12.18,    13.56,    13.99,     7.83,    13.32
      215.0,      12.14,    13.53,    13.96,     7.80,    13.28
      216.0,      12.11,    13.50,    13.93,     7.77,    13.25
      217.0,      12.08,    13.47,    13.91,     7.74,    13.22
      218.0,      12.05,    13.44,    13.88,     7.70,    13.19
      219.0,      12.02,    13.41,    13.85,     7.67,    13.16
      220.0,      12.00,    13.38,    13.82,     7.64,    13.13
      221.0,      11.97,    13.35,    13.79,     7.61,    13.10
      222.0,      11.94,    13.32,    13.77,     7.58,    13.07
      223.0,      11.91,    13.29,    13.74,     7.55,    13.04
      224.0,      11.88,    13.27,    13.71,     7.52,    13.01
      225.0,      11.85,    13.24,    13.69,     7.49,    12.99
      226.0,      11.82,    13.21,    13.66,     7.46,    12.96
      227.0,      11.79,    13.18,    13.63,     7.43,    12.93
      228.0,      11.76,    13.15,    13.60,     7.40,    12.90
      229.0,      11.73,    13.12,    13.58,     7.37,    12.87
      230.0,      11.71,    13.09,    13.55,     7.34,    12.84
      231.0,      11.68,    13.06,    13.52,     7.31,    12.82
      232.0,      11.65,    13.03,    13.50,     7.28,    12.79
      233.0,      11.62,    13.00,    13.47,     7.25,    12.76
      234.0,      11.59,    12.98,    13.44,     7.22,    12.73
      235.0,      11.56,    12.95,    13.42,     7.19,    12.71
      236.0,      11.54,    12.92,    13.39,     7.16,    12.68
      237.0,      11.51,    12.89,    13.37,     7.13,    12.65
      238.0,      11.48,    12.86,    13.34,     7.10,    12.62
      239.0,      11.45,    12.83,    13.31,     7.07,    12.60
      240.0,      11.43,    12.81,    13.29,     7.04,    12.57
      241.0,      11.40,    12.78,    13.26,     7.02,    12.54
      242.0,      11.37,    12.75,    13.24,     6.99,    12.52
      243.0,      11.35,    12.72,    13.21,     6.96,    12.49
      244.0,      11.32,    12.69,    13.18,     6.93,    12.47
      245.0,      11.29,    12.67,    13.16,     6.90,    12.44
      246.0,      11.26,    12.64,    13.13,     6.88,    12.41
      247.0,      11.24,    12.61,    13.11,     6.85,    12.39
      248.0,      11.21,    12.58,    13.08,     6.82,    12.36
      249.0,      11.19,    12.56,    13.06,     6.79,    12.34
      250.0,      11.16,    12.53,    13.03,     6.77,    12.31
      251.0,      11.13,    12.50,    13.00,     6.74,    12.29
      252.0,      11.11,    12.47,    12.98,     6.71,    12.26
      253.0,      11.08,    12.45,    12.95,     6.68,    12.24
      254.0,      11.05,    12.42,    12.93,     6.66,    12.21
      255.0,      11.03,    12.39,    12.90,     6.63,    12.19
      256.0,      11.00,    12.37,    12.88,     6.60,    12.16
      257.0,      10.98,    12.34,    12.85,     6.58,    12.14
      258.0,      10.95,    12.31,    12.83,     6.55,    12.11
      259.0,      10.92,    12.29,    12.80,     6.52,    12.09
      260.0,      10.90,    12.26,    12.78,     6.50,    12.06
      261.0,      10.87,    12.23,    12.75,     6.47,    12.04
      262.0,      10.85,    12.21,    12.73,     6.45,    12.01
      263.0,      10.82,    12.18,    12.70,     6.42,    11.99
      264.0,      10.80,    12.15,    12.68,     6.39,    11.97
      265.0,      10.77,    12.13,    12.65,     6.37,    11.94
      266.0,      10.75,    12.10,    12.63,     6.34,    11.92
      267.0,      10.72,    12.07,    12.60,     6.32,    11.89
      268.0,      10.70,    12.05,    12.58,     6.29,    11.87
      269.0,      10.67,    12.02,    12.56,     6.27,    11.85
      270.0,      10.65,    11.99,    12.53,     6.24,    11.82
      271.0,      10.62,    11.97,    12.51,     6.22,    11.80
      272.0,      10.60,    11.94,    12.48,     6.19,    11.78
      273.0,      10.57,    11.92,    12.46,     6.17,    11.75
      274.0,      10.55,    11.89,    12.43,     6.14,    11.73
      275.0,      10.53,    11.86,    12.41,     6.12,    11.71
      276.0,      10.50,    11.84,    12.39,     6.09,    11.69
      277.0,      10.48,    11.81,    12.36,     6.07,    11.66
      278.0,      10.45,    11.79,    12.34,     6.04,    11.64
      279.0,      10.43,    11.76,    12.31,     6.02,    11.62
      280.0,      10.40,    11.74,    12.29,     6.00,    11.59
      281.0,      10.38,    11.71,    12.27,     5.97,    11.57
      282.0,      10.36,    11.69,    12.24,     5.95,    11.55
      283.0,      10.33,    11.66,    12.22,     5.92,    11.53
      284.0,      10.31,    11.64,    12.19,     5.90,    11.50
      285.0,      10.28,    11.61,    12.17,     5.88,    11.48
      286.0,      10.26,    11.59,    12.15,     5.85,    11.46
      287.0,      10.24,    11.56,    12.12,     5.83,    11.44
      288.0,      10.21,    11.53,    12.10,     5.81,    11.42
      289.0,      10.19,    11.51,    12.08,     5.78,    11.39
      290.0,      10.17,    11.49,    12.05,     5.76,    11.37
      291.0,      10.14,    11.46,    12.03,     5.74,    11.35
      292.0,      10.12,    11.44,    12.01,     5.71,    11.33
      293.0,      10.10,    11.41,    11.98,     5.69,    11.31
      294.0,      10.07,    11.39,    11.96,     5.67,    11.28
      295.0,      10.05,    11.36,    11.94,     5.64,    11.26
      296.0,      10.03,    11.34,    11.91,     5.62,    11.24
      297.0,      10.01,    11.31,    11.89,     5.60,    11.22
      298.0,       9.98,    11.29,    11.87,     5.58,    11.20
      299.0,       9.96,    11.26,    11.84,     5.55,    11.18
      300.0,       9.94,    11.24,    11.82,     5.53,    11.15
      301.0,       9.91,    11.21,    11.80,     5.51,    11.13
      302.0,       9.89,    11.19,    11.78,     5.49,    11.11
      303.0,       9.87,    11.17,    11.75,     5.47,    11.09
      304.0,       9.85,    11.14,    11.73,     5.44,    11.07
      305.0,       9.82,    11.12,    11.71,     5.42,    11.05
      306.0,       9.80,    11.09,    11.68,     5.40,    11.03
      307.0,       9.78,    11.07,    11.66,     5.38,    11.01
      308.0,       9.76,    11.05,    11.64,     5.36,    10.99
      309.0,       9.73,    11.02,    11.62,     5.34,    10.96
      310.0,       9.71,    11.00,    11.59,     5.31,    10.94
