Radius (km), Mean (m/s), NE (m/s), SE (m/s), SW (m/s), NW (m/s)
        0.0,       0.00,     0.00,     0.00,     0.00,     0.00
        1.0,       1.12,     1.08,     0.94,     1.23,     1.23
        2.0,       1.83,     1.79,     1.61,     1.96,     1.96
        3.0,       2.44,     2.40,     2.20,     2.57,     2.57
        4.0,       2.99,     2.95,     2.76,     3.12,     3.12
        5.0,       3.50,     3.47,     3.28,     3.63,     3.63
        6.0,       3.99,     3.96,     3.78,     4.11,     4.11
        7.0,       4.45,     4.43,     4.26,     4.56,     4.56
        8.0,       4.89,     4.88,     4.73,     4.98,     4.98
        9.0,       5.32,     5.32,     5.18,     5.40,     5.40
       10.0,       5.74,     5.74,     5.62,     5.79,     5.79
       11.0,       6.14,     6.15,     6.05,     6.18,     6.18
       12.0,       6.53,     6.55,     6.48,     6.55,     6.55
       13.0,       6.91,     6.94,     6.89,     6.91,     6.91
       14.0,       7.29,     7.33,     7.30,     7.27,     7.27
       15.0,       7.66,     7.70,     7.70,     7.61,     7.61
       16.0,       8.02,     8.07,     8.10,     7.95,     7.95
       17.0,       8.37,     8.43,     8.49,     8.28,     8.28
       18.0,       8.72,     8.79,     8.87,     8.61,     8.61
       19.0,       9.06,     9.14,     9.26,     8.92,     8.92
       20.0,       9.40,     9.49,     9.63,     9.24,     9.24
       21.0,       9.73,     9.83,    10.00,     9.55,     9.55
       22.0,      10.06,    10.17,    10.37,     9.85,     9.85
       23.0,      10.39,    10.50,    10.74,    10.15,    10.15
       24.0,      10.71,    10.83,    11.10,    10.45,    10.45
       25.0,      11.02,    11.16,    11.46,    10.74,    10.74
       26.0,      11.33,    11.48,    11.81,    11.02,    11.02
       27.0,      11.64,    11.80,    12.16,    11.31,    11.31
       28.0,      11.95,    12.11,    12.51,    11.59,    11.59
       29.0,      12.25,    12.43,    12.86,    11.87,    11.87
       30.0,      12.55,    12.74,    13.20,    12.14,    12.14
       31.0,      12.85,    13.04,    13.54,    12.41,    12.41
       32.0,      13.15,    13.35,    13.88,    12.68,    12.68
       33.0,      13.44,    13.65,    14.22,    12.94,    12.94
       34.0,      13.73,    13.95,    14.55,    13.21,    13.21
       35.0,      14.01,    14.24,    14.88,    13.47,    13.47
       36.0,      14.30,    14.54,    15.21,    13.73,    13.73
       37.0,      14.58,    14.83,    15.54,    13.98,    13.98
       38.0,      14.86,    15.12,    15.86,    14.23,    14.23
       39.0,      15.14,    15.40,    16.19,    14.49,    14.49
       40.0,      15.42,    15.69,    16.51,    14.73,    14.73
       41.0,      15.69,    15.97,    16.83,    14.98,    14.98
       42.0,      15.96,    16.26,    17.15,    15.23,    15.23
       43.0,      16.23,    16.54,    17.46,    15.47,    15.47
       44.0,      16.50,    16.81,    17.78,    15.71,    15.71
       45.0,      16.77,    17.09,    18.09,    15.95,    15.95
       46.0,      17.04,    17.36,    18.40,    16.19,    16.19
       47.0,      17.30,    17.64,    18.71,    16.43,    16.43
       48.0,      17.56,    17.91,    19.02,    16.66,    16.66
       49.0,      17.82,    18.18,    19.33,    16.89,    16.89
       50.0,      18.08,    18.45,    19.63,    17.12,    17.12
       51.0,      18.34,    18.71,    19.94,    17.35,    17.35
       52.0,      18.60,    18.98,    20.24,    17.58,    17.58
       53.0,      18.85,    19.24,    20.54,    17.81,    17.81
       54.0,      19.11,    19.51,    20.85,    18.04,    18.04
       55.0,      19.36,    19.77,    21.14,    18.26,    18.26
       56.0,      19.61,    20.03,    21.44,    18.48,    18.48
       57.0,      19.86,    20.29,    21.74,    18.70,    18.70
       58.0,      20.11,    20.54,    22.04,    18.92,    18.92
       59.0,      20.35,    20.80,    22.33,    19.14,    19.14
       60.0,      20.60,    21.06,    22.62,    19.36,    19.36
       61.0,      20.85,    21.31,    22.92,    19.58,    19.58
       62.0,      21.09,    21.56,    23.21,    19.79,    19.79
       63.0,      21.33,    21.81,    23.50,    20.01,    20.01
       64.0,      21.57,    22.06,    23.79,    20.22,    20.22
       65.0,      21.81,    22.31,    24.08,    20.43,    20.43
       66.0,      22.05,    22.56,    24.36,    20.65,    20.65
       67.0,      22.29,    22.81,    24.65,    20.86,    20.86
       68.0,      22.53,    23.06,    24.94,    21.06,    21.06
       69.0,      22.77,    23.30,    25.22,    21.27,    21.27
       70.0,      23.00,    23.55,    25.50,    21.48,    21.48
       71.0,      23.24,    23.79,    25.79,    21.69,    21.69
       72.0,      23.47,    24.03,    26.07,    21.89,    21.89
       73.0,      23.70,    24.27,    26.35,    22.10,    22.10
       74.0,      23.94,    24.52,    26.63,    22.30,    22.30
       75.0,      24.17,    24.76,    26.91,    22.50,    22.50
       76.0,      24.40,    24.99,    27.19,    22.70,    22.70
       77.0,      24.63,    25.23,    27.46,    22.90,    22.90
       78.0,      24.85,    25.47,    27.74,    23.10,    23.10
       79.0,      25.08,    25.71,    28.02,    23.30,    23.30
       80.0,      25.31,    25.94,    28.29,    23.50,    23.50
       81.0,      25.54,    26.18,    28.57,    23.70,    23.70
       82.0,      25.76,    26.41,    28.84,    23.90,    23.90
       83.0,      25.99,    26.64,    29.11,    24.09,    24.09
       84.0,      26.21,    26.88,    29.39,    24.29,    24.29
       85.0,      26.43,    27.11,    29.66,    24.48,    24.48
       86.0,      26.65,    27.34,    29.93,    24.67,    24.67
       87.0,      26.88,    27.57,    30.20,    24.87,    24.87
       88.0,      27.10,    27.80,    30.47,    25.06,    25.06
       89.0,      27.32,    28.03,    30.74,    25.25,    25.25
       90.0,      27.54,    28.26,    31.01,    25.44,    25.44
       91.0,      27.75,    28.48,    31.27,    25.63,    25.63
       92.0,      27.97,    28.71,    31.54,    25.82,    25.82
       93.0,      28.19,    28.94,    31.81,    26.01,    26.01
       94.0,      28.41,    29.16,    32.07,    26.20,    26.20
       95.0,      28.62,    29.39,    32.34,    26.39,    26.39
       96.0,      28.84,    29.61,    32.60,    26.57,    26.57
       97.0,      29.06,    29.84,    32.86,    26.76,    26.76
       98.0,      29.28,    30.08,    33.13,    26.95,    26.95
       99.0,      29.52,    30.35,    33.42,    27.15,    27.16
      100.0,      29.79,    30.66,    33.73,    27.36,    27.40
      101.0,      30.09,    31.01,    34.08,    27.59,    27.66
      102.0,      30.41,    31.39,    34.46,    27.84,    27.95
      103.0,      30.76,    31.78,    34.87,    28.11,    28.26
      104.0,      31.10,    32.18,    35.29,    28.38,    28.57
      105.0,      31.43,    32.53,    35.69,    28.64,    28.86
      106.0,      31.71,    32.83,    36.04,    28.87,    29.11
      107.0,      31.93,    33.04,    36.32,    29.07,    29.30
      108.0,      32.08,    33.16,    36.52,    29.22,    29.42
      109.0,      32.14,    33.17,    36.62,    29.31,    29.47
      110.0,      32.12,    33.10,    36.62,    29.34,    29.43
      111.0,      32.04,    32.95,    36.54,    29.33,    29.34
      112.0,      31.90,    32.74,    36.39,    29.27,    29.19
      113.0,      31.72,    32.50,    36.19,    29.19,    29.01
      114.0,      31.53,    32.24,    35.96,    29.08,    28.82
      115.0,      31.33,    31.99,    35.73,    28.97,    28.62
      116.0,      31.14,    31.75,    35.50,    28.86,    28.44
      117.0,      30.96,    31.52,    35.29,    28.76,    28.26
      118.0,      30.79,    31.31,    35.09,    28.66,    28.09
      119.0,      30.63,    31.10,    34.91,    28.57,    27.93
      120.0,      30.47,    30.90,    34.73,    28.48,    27.78
      121.0,      30.32,    30.71,    34.55,    28.39,    27.64
      122.0,      30.18,    30.53,    34.38,    28.30,    27.49
      123.0,      30.03,    30.35,    34.22,    28.21,    27.36
      124.0,      29.90,    30.18,    34.06,    28.12,    27.22
      125.0,      29.76,    30.01,    33.90,    28.03,    27.09
      126.0,      29.63,    29.85,    33.75,    27.94,    26.97
      127.0,      29.50,    29.70,    33.60,    27.86,    26.85
      128.0,      29.38,    29.55,    33.46,    27.77,    26.73
      129.0,      29.26,    29.40,    33.32,    27.69,    26.61
      130.0,      29.14,    29.26,    33.18,    27.60,    26.50
      131.0,      29.02,    29.13,    33.05,    27.52,    26.39
      132.0,      28.91,    28.99,    32.92,    27.43,    26.29
      133.0,      28.80,    28.87,    32.79,    27.35,    26.19
      134.0,      28.69,    28.74,    32.67,    27.27,    26.09
      135.0,      28.59,    28.62,    32.55,    27.19,    25.99
      136.0,      28.49,    28.51,    32.43,    27.11,    25.90
      137.0,      28.39,    28.39,    32.32,    27.03,    25.81
      138.0,      28.29,    28.28,    32.20,    26.95,    25.72
      139.0,      28.19,    28.18,    32.09,    26.87,    25.63
      140.0,      28.10,    28.08,    31.99,    26.79,    25.55
      141.0,      28.01,    27.98,    31.88,    26.72,    25.47
      142.0,      27.92,    27.88,    31.78,    26.64,    25.39
      143.0,      27.83,    27.78,    31.68,    26.56,    25.31
      144.0,      27.75,    27.69,    31.58,    26.49,    25.23
      145.0,      27.67,    27.60,    31.48,    26.41,    25.16
      146.0,      27.58,    27.52,    31.39,    26.34,    25.09
      147.0,      27.50,    27.43,    31.30,    26.27,    25.02
      148.0,      27.43,    27.35,    31.20,    26.19,    24.95
      149.0,      27.35,    27.27,    31.12,    26.12,    24.88
      150.0,      27.27,    27.20,    31.03,    26.05,    24.82
      151.0,      27.20,    27.12,    30.94,    25.98,    24.75
      152.0,      27.13,    27.05,    30.86,    25.91,    24.69
      153.0,      27.05,    26.98,    30.77,    25.84,    24.63
      154.0,      26.98,    26.91,    30.69,    25.77,    24.57
      155.0,      26.91,    26.84,    30.61,    25.70,    24.51
      156.0,      26.85,    26.77,    30.53,    25.63,    24.45
      157.0,      26.78,    26.71,    30.45,    25.56,    24.40
      158.0,      26.71,    26.64,    30.38,    25.49,    24.34
      159.0,      26.65,    26.58,    30.30,    25.43,    24.29
      160.0,      26.59,    26.52,    30.23,    25.36,    24.23
      161.0,      26.52,    26.46,    30.16,    25.29,    24.18
      162.0,      26.46,    26.41,    30.08,    25.23,    24.13
      163.0,      26.40,    26.35,    30.01,    25.16,    24.08
      164.0,      26.34,    26.30,    29.94,    25.10,    24.03
      165.0,      26.28,    26.24,    29.87,    25.03,    23.98
      166.0,      26.23,    26.19,    29.80,    24.97,    23.94
      167.0,      26.17,    26.14,    29.74,    24.91,    23.89
      168.0,      26.11,    26.09,    29.67,    24.85,    23.84
      169.0,      26.06,    26.04,    29.60,    24.78,    23.80
      170.0,      26.00,    25.99,    29.54,    24.72,    23.75
      171.0,      25.95,    25.94,    29.48,    24.66,    23.71
      172.0,      25.89,    25.90,    29.41,    24.60,    23.67
      173.0,      25.84,    25.85,    29.35,    24.54,    23.62
      174.0,      25.79,    25.80,    29.29,    24.48,    23.58
      175.0,      25.74,    25.76,    29.23,    24.42,    23.54
      176.0,      25.68,    25.72,    29.17,    24.36,    23.50
      177.0,      25.63,    25.67,    29.11,    24.30,    23.46
      178.0,      25.58,    25.63,    29.05,    24.24,    23.42
      179.0,      25.53,    25.59,    28.99,    24.18,    23.38
      180.0,      25.49,    25.55,    28.93,    24.13,    23.34
      181.0,      25.44,    25.51,    28.87,    24.07,    23.30
      182.0,      25.39,    25.47,    28.81,    24.01,    23.26
      183.0,      25.34,    25.43,    28.76,    23.96,    23.23
      184.0,      25.30,    25.39,    28.70,    23.90,    23.19
      185.0,      25.25,    25.36,    28.64,    23.84,    23.15
      186.0,      25.20,    25.32,    28.59,    23.79,    23.12
      187.0,      25.16,    25.28,    28.53,    23.73,    23.08
      188.0,      25.11,    25.25,    28.48,    23.68,    23.04
      189.0,      25.07,    25.21,    28.42,    23.62,    23.01
      190.0,      25.02,    25.17,    28.37,    23.57,    22.97
      191.0,      24.98,    25.14,    28.32,    23.52,    22.94
      192.0,      24.93,    25.11,    28.26,    23.46,    22.91
      193.0,      24.89,    25.07,    28.21,    23.41,    22.87
      194.0,      24.85,    25.04,    28.16,    23.36,    22.84
      195.0,      24.81,    25.00,    28.11,    23.31,    22.81
      196.0,      24.76,    24.97,    28.05,    23.25,    22.77
      197.0,      24.72,    24.94,    28.00,    23.20,    22.74
      198.0,      24.68,    24.91,    27.95,    23.15,    22.71
      199.0,      24.64,    24.87,    27.90,    23.10,    22.67
      200.0,      24.60,    24.84,    27.85,    23.05,    22.64
      201.0,      24.56,    24.81,    27.80,    23.00,    22.61
      202.0,      24.51,    24.78,    27.75,    22.95,    22.58
      203.0,      24.47,    24.75,    27.70,    22.90,    22.55
      204.0,      24.43,    24.72,    27.65,    22.85,    22.52
      205.0,      24.39,    24.69,    27.60,    22.80,    22.49
      206.0,      24.35,    24.66,    27.55,    22.75,    22.45
      207.0,      24.32,    24.63,    27.50,    22.71,    22.42
      208.0,      24.28,    24.60,    27.45,    22.66,    22.39
      209.0,      24.24,    24.57,    27.41,    22.61,    22.36
      210.0,      24.20,    24.54,    27.36,    22.56,    22.33
      211.0,      24.16,    24.51,    27.31,    22.51,    22.30
      212.0,      24.12,    24.48,    27.26,    22.47,    22.27
      213.0,      24.08,    24.46,    27.21,    22.42,    22.24
      214.0,      24.05,    24.43,    27.17,    22.37,    22.21
      215.0,      24.01,    24.40,    27.12,    22.33,    22.18
      216.0,      23.97,    24.37,    27.07,    22.28,    22.16
      217.0,      23.93,    24.34,    27.03,    22.24,    22.13
      218.0,      23.90,    24.32,    26.98,    22.19,    22.10
      219.0,      23.86,    24.29,    26.93,    22.15,    22.07
      220.0,      23.82,    24.26,    26.89,    22.10,    22.04
      221.0,      23.79,    24.23,    26.84,    22.06,    22.01
      222.0,      23.75,    24.21,    26.80,    22.01,    21.98
      223.0,      23.71,    24.18,    26.75,    21.97,    21.95
      224.0,      23.68,    24.15,    26.70,    21.93,    21.93
      225.0,      23.64,    24.13,    26.66,    21.88,    21.90
      226.0,      23.61,    24.10,    26.61,    21.84,    21.87
      227.0,      23.57,    24.07,    26.57,    21.80,    21.84
      228.0,      23.53,    24.05,    26.52,    21.75,    21.81
      229.0,      23.50,    24.02,    26.48,    21.71,    21.79
      230.0,      23.46,    24.00,    26.43,    21.67,    21.76
      231.0,      23.43,    23.97,    26.39,    21.63,    21.73
      232.0,      23.39,    23.94,    26.34,    21.58,    21.70
      233.0,      23.36,    23.92,    26.30,    21.54,    21.68
      234.0,      23.32,    23.89,    26.26,    21.50,    21.65
      235.0,      23.29,    23.87,    26.21,    21.46,    21.62
      236.0,      23.26,    23.84,    26.17,    21.42,    21.59
      237.0,      23.22,    23.82,    26.12,    21.38,    21.57
      238.0,      23.19,    23.79,    26.08,    21.34,    21.54
      239.0,      23.15,    23.77,    26.04,    21.30,    21.51
      240.0,      23.12,    23.74,    25.99,    21.26,    21.49
      241.0,      23.09,    23.71,    25.95,    21.22,    21.46
      242.0,      23.05,    23.69,    25.91,    21.18,    21.43
      243.0,      23.02,    23.67,    25.86,    21.14,    21.41
      244.0,      22.98,    23.64,    25.82,    21.10,    21.38
      245.0,      22.95,    23.62,    25.78,    21.06,    21.35
      246.0,      22.92,    23.59,    25.73,    21.02,    21.33
      247.0,      22.88,    23.57,    25.69,    20.98,    21.30
      248.0,      22.85,    23.54,    25.65,    20.94,    21.27
      249.0,      22.82,    23.52,    25.61,    20.90,    21.25
      250.0,      22.79,    23.49,    25.56,    20.87,    21.22
      251.0,      22.75,    23.47,    25.52,    20.83,    21.20
      252.0,      22.72,    23.44,    25.48,    20.79,    21.17
      253.0,      22.69,    23.42,    25.44,    20.75,    21.14
      254.0,      22.66,    23.40,    25.39,    20.71,    21.12
      255.0,      22.62,    23.37,    25.35,    20.68,    21.09
      256.0,      22.59,    23.35,    25.31,    20.64,    21.07
      257.0,      22.56,    23.32,    25.27,    20.60,    21.04
      258.0,      22.53,    23.30,    25.23,    20.57,    21.01
      259.0,      22.49,    23.28,    25.18,    20.53,    20.99
      260.0,      22.46,    23.25,    25.14,    20.49,    20.96
      261.0,      22.43,    23.23,    25.10,    20.46,    20.94
      262.0,      22.40,    23.20,    25.06,    20.42,    20.91
      263.0,      22.37,    23.18,    25.02,    20.38,    20.89
      264.0,      22.34,    23.16,    24.98,    20.35,    20.86
      265.0,      22.30,    23.13,    24.94,    20.31,    20.84
      266.0,      22.27,    23.11,    24.89,    20.28,    20.81
      267.0,      22.24,    23.09,    24.85,    20.24,    20.78
      268.0,      22.21,    23.06,    24.81,    20.21,    20.76
      269.0,      22.18,    23.04,    24.77,    20.17,    20.73
      270.0,      22.15,    23.02,    24.73,    20.14,    20.71
      271.0,      22.12,    22.99,    24.69,    20.10,    20.68
      272.0,      22.09,    22.97,    24.65,    20.07,    20.66
      273.0,      22.06,    22.95,    24.61,    20.03,    20.63
      274.0,      22.02,    22.92,    24.57,    20.00,    20.61
      275.0,      21.99,    22.90,    24.53,    19.97,    20.58
      276.0,      21.96,    22.88,    24.49,    19.93,    20.56
      277.0,      21.93,    22.85,    24.45,    19.90,    20.53
      278.0,      21.90,    22.83,    24.41,    19.86,    20.51
      279.0,      21.87,    22.81,    24.37,    19.83,    20.48
      280.0,      21.84,    22.78,    24.33,    19.80,    20.46
      281.0,      21.81,    22.76,    24.29,    19.76,    20.43
      282.0,      21.78,    22.74,    24.25,    19.73,    20.41
      283.0,      21.75,    22.71,    24.21,    19.70,    20.38
      284.0,      21.72,    22.69,    24.17,    19.67,    20.36
      285.0,      21.69,    22.67,    24.13,    19.63,    20.34
      286.0,      21.66,    22.65,    24.09,    19.60,    20.31
      287.0,      21.63,    22.62,    24.05,    19.57,    20.29
      288.0,      21.60,    22.60,    24.01,    19.54,    20.26
      289.0,      21.57,    22.58,    23.97,    19.50,    20.24
      290.0,      21.54,    22.55,    23.93,    19.47,    20.21
      291.0,      21.51,    22.53,    23.89,    19.44,    20.19
      292.0,      21.48,    22.51,    23.85,    19.41,    20.16
      293.0,      21.45,    22.49,    23.81,    19.38,    20.14
      294.0,      21.42,    22.46,    23.77,    19.35,    20.12
      295.0,      21.40,    22.44,    23.74,    19.31,    20.09
      296.0,      21.37,    22.42,    23.70,    19.28,    20.07
      297.0,      21.34,    22.40,    23.66,    19.25,    20.04
      298.0,      21.31,    22.37,    23.62,    19.22,    20.02
      299.0,      21.28,    22.35,    23.58,    19.19,    19.99
      300.0,      21.25,    22.33,    23.54,    19.16,    19.97
      301.0,      21.22,    22.31,    23.50,    19.13,    19.95
      302.0,      21.19,    22.28,    23.46,    19.10,    19.92
      303.0,      21.16,    22.26,    23.43,    19.07,    19.90
      304.0,      21.13,    22.24,    23.39,    19.04,    19.87
      305.0,      21.11,    22.22,    23.35,    19.01,    19.85
      306.0,      21.08,    22.19,    23.31,    18.98,    19.83
      307.0,      21.05,    22.17,    23.27,    18.95,    19.80
      308.0,      21.02,    22.15,    23.24,    18.92,    19.78
      309.0,      20.99,    22.13,    23.20,    18.89,    19.75
      310.0,      20.96,    22.11,    23.16,    18.86,    19.73
