Radius (km), Mean (m/s), NE (m/s), SE (m/s), SW (m/s), NW (m/s)
        0.0,       0.00,     0.00,     0.00,     0.00,     0.00
        1.0,       1.93,     1.28,     1.90,     2.27,     2.27
        2.0,       4.35,     3.39,     4.34,     4.82,     4.85
        3.0,       7.07,     6.04,     7.07,     7.53,     7.66
        4.0,      10.16,     9.29,    10.13,    10.43,    10.79
        5.0,      13.72,    13.30,    13.61,    13.64,    14.34
        6.0,      17.88,    18.20,    17.64,    17.26,    18.40
        7.0,      22.66,    24.06,    22.27,    21.37,    22.95
        8.0,      28.03,    30.82,    27.47,    25.92,    27.89
        9.0,      33.79,    38.25,    33.10,    30.81,    33.02
       10.0,      39.71,    45.99,    38.91,    35.82,    38.12
       11.0,      45.45,    53.61,    44.60,    40.70,    42.89
       12.0,      50.69,    60.65,    49.84,    45.17,    47.09
       13.0,      55.14,    66.70,    54.36,    48.98,    50.51
       14.0,      58.59,    71.45,    57.93,    51.94,    53.03
       15.0,      60.94,    74.74,    60.43,    53.97,    54.63
       16.0,      62.21,    76.56,    61.85,    55.05,    55.36
       17.0,      62.50,    77.06,    62.31,    55.29,    55.37
       18.0,      62.03,    76.49,    61.97,    54.84,    54.83
       19.0,      61.02,    75.17,    61.07,    53.90,    53.94
       20.0,      59.70,    73.42,    59.84,    52.68,    52.88
       21.0,      58.27,    71.51,    58.47,    51.35,    51.77
       22.0,      56.86,    69.62,    57.12,    50.02,    50.69
       23.0,      55.53,    67.84,    55.83,    48.78,    49.66
       24.0,      54.28,    66.17,    54.63,    47.61,    48.68
       25.0,      53.08,    64.59,    53.49,    46.51,    47.74
       26.0,      51.94,    63.06,    52.40,    45.46,    46.83
       27.0,      50.83,    61.59,    51.34,    44.45,    45.94
       28.0,      49.76,    60.16,    50.32,    43.47,    45.08
       29.0,      48.72,    58.79,    49.33,    42.53,    44.25
       30.0,      47.72,    57.46,    48.37,    41.63,    43.44
       31.0,      46.76,    56.17,    47.44,    40.76,    42.65
       32.0,      45.82,    54.93,    46.54,    39.92,    41.89
       33.0,      44.92,    53.73,    45.68,    39.11,    41.15
       34.0,      44.05,    52.57,    44.84,    38.34,    40.44
       35.0,      43.20,    51.45,    44.03,    37.59,    39.74
       36.0,      42.39,    50.37,    43.24,    36.87,    39.07
       37.0,      41.60,    49.33,    42.48,    36.17,    38.41
       38.0,      40.83,    48.31,    41.75,    35.50,    37.78
       39.0,      40.10,    47.34,    41.03,    34.86,    37.16
       40.0,      39.38,    46.39,    40.35,    34.23,    36.56
       41.0,      38.69,    45.48,    39.68,    33.63,    35.99
       42.0,      38.03,    44.60,    39.03,    33.06,    35.42
       43.0,      37.38,    43.75,    38.41,    32.50,    34.88
       44.0,      36.76,    42.92,    37.80,    31.96,    34.35
       45.0,      36.15,    42.12,    37.22,    31.44,    33.83
       46.0,      35.57,    41.35,    36.65,    30.94,    33.34
       47.0,      35.00,    40.61,    36.10,    30.46,    32.85
       48.0,      34.46,    39.89,    35.57,    30.00,    32.38
       49.0,      33.93,    39.19,    35.05,    29.55,    31.93
       50.0,      33.42,    38.52,    34.55,    29.11,    31.48
       51.0,      32.92,    37.86,    34.06,    28.70,    31.06
       52.0,      32.44,    37.23,    33.59,    28.29,    30.64
       53.0,      31.97,    36.62,    33.14,    27.90,    30.23
       54.0,      31.52,    36.03,    32.70,    27.53,    29.84
       55.0,      31.09,    35.46,    32.27,    27.16,    29.46
       56.0,      30.67,    34.91,    31.86,    26.81,    29.09
       57.0,      30.26,    34.38,    31.45,    26.47,    28.73
       58.0,      29.86,    33.86,    31.06,    26.15,    28.38
       59.0,      29.48,    33.36,    30.68,    25.83,    28.04
       60.0,      29.11,    32.87,    30.32,    25.53,    27.71
       61.0,      28.75,    32.40,    29.96,    25.23,    27.39
       62.0,      28.40,    31.95,    29.61,    24.94,    27.08
       63.0,      28.06,    31.51,    29.28,    24.67,    26.78
       64.0,      27.73,    31.08,    28.95,    24.40,    26.49
       65.0,      27.41,    30.67,    28.64,    24.14,    26.21
       66.0,      27.10,    30.27,    28.33,    23.89,    25.93
       67.0,      26.81,    29.88,    28.03,    23.65,    25.66
       68.0,      26.52,    29.51,    27.74,    23.41,    25.40
       69.0,      26.23,    29.14,    27.46,    23.19,    25.15
       70.0,      25.96,    28.79,    27.19,    22.97,    24.90
       71.0,      25.70,    28.45,    26.92,    22.75,    24.66
       72.0,      25.44,    28.12,    26.66,    22.55,    24.43
       73.0,      25.19,    27.80,    26.41,    22.35,    24.20
       74.0,      24.95,    27.49,    26.16,    22.15,    23.98
       75.0,      24.71,    27.19,    25.93,    21.96,    23.77
       76.0,      24.48,    26.90,    25.70,    21.78,    23.56
       77.0,      24.26,    26.61,    25.47,    21.61,    23.36
       78.0,      24.05,    26.34,    25.25,    21.43,    23.16
       79.0,      23.84,    26.07,    25.04,    21.27,    22.97
       80.0,      23.63,    25.81,    24.83,    21.10,    22.79
       81.0,      23.44,    25.56,    24.63,    20.95,    22.61
       82.0,      23.24,    25.32,    24.43,    20.79,    22.43
       83.0,      23.06,    25.08,    24.24,    20.64,    22.26
       84.0,      22.87,    24.85,    24.05,    20.50,    22.09
       85.0,      22.70,    24.63,    23.87,    20.36,    21.93
       86.0,      22.52,    24.41,    23.69,    20.22,    21.78
       87.0,      22.36,    24.20,    23.52,    20.09,    21.62
       88.0,      22.19,    23.99,    23.35,    19.96,    21.47
       89.0,      22.04,    23.80,    23.19,    19.83,    21.33
       90.0,      21.88,    23.60,    23.02,    19.71,    21.19
       91.0,      21.73,    23.41,    22.87,    19.59,    21.05
       92.0,      21.58,    23.23,    22.71,    19.47,    20.92
       93.0,      21.44,    23.05,    22.56,    19.36,    20.78
       94.0,      21.30,    22.88,    22.42,    19.25,    20.66
       95.0,      21.17,    22.71,    22.27,    19.14,    20.53
       96.0,      21.03,    22.55,    22.13,    19.03,    20.41
       97.0,      20.90,    22.39,    22.00,    18.93,    20.30
       98.0,      20.78,    22.23,    21.86,    18.83,    20.18
       99.0,      20.65,    22.08,    21.73,    18.73,    20.07
      100.0,      20.53,    21.94,    21.61,    18.63,    19.96
      101.0,      20.42,    21.79,    21.48,    18.54,    19.85
      102.0,      20.30,    21.65,    21.36,    18.45,    19.75
      103.0,      20.19,    21.52,    21.24,    18.36,    19.65
      104.0,      20.08,    21.38,    21.12,    18.27,    19.55
      105.0,      19.97,    21.25,    21.01,    18.18,    19.46
      106.0,      19.87,    21.13,    20.89,    18.10,    19.36
      107.0,      19.77,    21.00,    20.78,    18.01,    19.27
      108.0,      19.67,    20.88,    20.68,    17.93,    19.18
      109.0,      19.57,    20.77,    20.57,    17.85,    19.09
      110.0,      19.48,    20.65,    20.47,    17.78,    19.01
      111.0,      19.38,    20.54,    20.36,    17.70,    18.93
      112.0,      19.29,    20.43,    20.26,    17.62,    18.85
      113.0,      19.20,    20.32,    20.16,    17.55,    18.77
      114.0,      19.11,    20.22,    20.07,    17.48,    18.69
      115.0,      19.03,    20.12,    19.97,    17.41,    18.61
      116.0,      18.94,    20.02,    19.88,    17.34,    18.54
      117.0,      18.86,    19.92,    19.79,    17.27,    18.47
      118.0,      18.78,    19.82,    19.70,    17.20,    18.40
      119.0,      18.70,    19.73,    19.61,    17.13,    18.33
      120.0,      18.62,    19.64,    19.52,    17.07,    18.26
      121.0,      18.54,    19.55,    19.44,    17.00,    18.19
      122.0,      18.47,    19.46,    19.35,    16.94,    18.13
      123.0,      18.40,    19.37,    19.27,    16.87,    18.07
      124.0,      18.32,    19.29,    19.19,    16.81,    18.00
      125.0,      18.25,    19.20,    19.11,    16.75,    17.94
      126.0,      18.18,    19.12,    19.03,    16.69,    17.88
      127.0,      18.11,    19.04,    18.95,    16.63,    17.82
      128.0,      18.04,    18.97,    18.87,    16.57,    17.77
      129.0,      17.98,    18.89,    18.80,    16.52,    17.71
      130.0,      17.91,    18.81,    18.72,    16.46,    17.66
      131.0,      17.85,    18.74,    18.65,    16.40,    17.60
      132.0,      17.78,    18.67,    18.57,    16.35,    17.55
      133.0,      17.72,    18.59,    18.50,    16.29,    17.50
      134.0,      17.66,    18.52,    18.43,    16.24,    17.45
      135.0,      17.60,    18.46,    18.36,    16.18,    17.40
      136.0,      17.54,    18.39,    18.29,    16.13,    17.35
      137.0,      17.48,    18.32,    18.22,    16.08,    17.30
      138.0,      17.42,    18.26,    18.16,    16.03,    17.26
      139.0,      17.37,    18.19,    18.09,    15.98,    17.21
      140.0,      17.31,    18.13,    18.02,    15.93,    17.16
      141.0,      17.25,    18.06,    17.96,    15.88,    17.12
      142.0,      17.20,    18.00,    17.89,    15.83,    17.08
      143.0,      17.15,    17.94,    17.83,    15.78,    17.03
      144.0,      17.09,    17.88,    17.77,    15.73,    16.99
      145.0,      17.04,    17.82,    17.71,    15.68,    16.95
      146.0,      16.99,    17.76,    17.64,    15.63,    16.91
      147.0,      16.93,    17.71,    17.58,    15.58,    16.87
      148.0,      16.88,    17.65,    17.52,    15.54,    16.83
      149.0,      16.83,    17.59,    17.46,    15.49,    16.79
      150.0,      16.78,    17.54,    17.40,    15.44,    16.75
      151.0,      16.73,    17.48,    17.34,    15.40,    16.71
      152.0,      16.69,    17.43,    17.29,    15.35,    16.67
      153.0,      16.64,    17.38,    17.23,    15.31,    16.64
      154.0,      16.59,    17.32,    17.17,    15.26,    16.60
      155.0,      16.54,    17.27,    17.12,    15.22,    16.57
      156.0,      16.50,    17.22,    17.06,    15.17,    16.53
      157.0,      16.45,    17.17,    17.00,    15.13,    16.50
      158.0,      16.40,    17.12,    16.95,    15.09,    16.46
      159.0,      16.36,    17.07,    16.89,    15.04,    16.43
      160.0,      16.31,    17.02,    16.84,    15.00,    16.40
      161.0,      16.27,    16.97,    16.79,    14.96,    16.36
      162.0,      16.23,    16.92,    16.73,    14.91,    16.33
      163.0,      16.18,    16.88,    16.68,    14.87,    16.30
      164.0,      16.14,    16.83,    16.63,    14.83,    16.27
      165.0,      16.10,    16.78,    16.57,    14.79,    16.24
      166.0,      16.05,    16.74,    16.52,    14.75,    16.20
      167.0,      16.01,    16.69,    16.47,    14.71,    16.17
      168.0,      15.97,    16.64,    16.42,    14.66,    16.14
      169.0,      15.93,    16.60,    16.37,    14.62,    16.11
      170.0,      15.89,    16.56,    16.32,    14.58,    16.08
      171.0,      15.84,    16.51,    16.27,    14.54,    16.06
      172.0,      15.80,    16.47,    16.22,    14.50,    16.03
      173.0,      15.76,    16.42,    16.17,    14.46,    16.00
      174.0,      15.72,    16.38,    16.12,    14.42,    15.97
      175.0,      15.68,    16.34,    16.07,    14.38,    15.94
      176.0,      15.64,    16.29,    16.02,    14.34,    15.91
      177.0,      15.61,    16.25,    15.98,    14.31,    15.89
      178.0,      15.57,    16.21,    15.93,    14.27,    15.86
      179.0,      15.53,    16.17,    15.88,    14.23,    15.83
      180.0,      15.49,    16.13,    15.83,    14.19,    15.81
      181.0,      15.45,    16.09,    15.79,    14.15,    15.78
      182.0,      15.41,    16.05,    15.74,    14.11,    15.75
      183.0,      15.38,    16.01,    15.69,    14.07,    15.73
      184.0,      15.34,    15.97,    15.65,    14.04,    15.70
      185.0,      15.30,    15.93,    15.60,    14.00,    15.68
      186.0,      15.26,    15.89,    15.55,    13.96,    15.65
      187.0,      15.23,    15.85,    15.51,    13.92,    15.63
      188.0,      15.19,    15.81,    15.46,    13.89,    15.60
      189.0,      15.15,    15.77,    15.42,    13.85,    15.58
      190.0,      15.12,    15.73,    15.37,    13.81,    15.55
      191.0,      15.08,    15.69,    15.33,    13.78,    15.53
      192.0,      15.05,    15.65,    15.28,    13.74,    15.51
      193.0,      15.01,    15.62,    15.24,    13.70,    15.48
      194.0,      14.97,    15.58,    15.20,    13.67,    15.46
      195.0,      14.94,    15.54,    15.15,    13.63,    15.43
      196.0,      14.90,    15.50,    15.11,    13.60,    15.41
      197.0,      14.87,    15.47,    15.07,    13.56,    15.39
      198.0,      14.83,    15.43,    15.02,    13.52,    15.36
      199.0,      14.80,    15.39,    14.98,    13.49,    15.34
      200.0,      14.77,    15.36,    14.94,    13.45,    15.32
      201.0,      14.73,    15.32,    14.89,    13.42,    15.30
      202.0,      14.70,    15.28,    14.85,    13.38,    15.27
      203.0,      14.66,    15.25,    14.81,    13.35,    15.25
      204.0,      14.63,    15.21,    14.77,    13.31,    15.23
      205.0,      14.60,    15.17,    14.72,    13.28,    15.21
      206.0,      14.56,    15.14,    14.68,    13.24,    15.18
      207.0,      14.53,    15.10,    14.64,    13.21,    15.16
      208.0,      14.50,    15.07,    14.60,    13.17,    15.14
      209.0,      14.46,    15.03,    14.56,    13.14,    15.12
      210.0,      14.43,    15.00,    14.52,    13.10,    15.10
      211.0,      14.40,    14.96,    14.48,    13.07,    15.08
      212.0,      14.36,    14.93,    14.44,    13.04,    15.05
      213.0,      14.33,    14.89,    14.40,    13.00,    15.03
      214.0,      14.30,    14.86,    14.35,    12.97,    15.01
      215.0,      14.27,    14.82,    14.31,    12.93,    14.99
      216.0,      14.23,    14.79,    14.27,    12.90,    14.97
      217.0,      14.20,    14.76,    14.23,    12.87,    14.95
      218.0,      14.17,    14.72,    14.19,    12.83,    14.93
      219.0,      14.14,    14.69,    14.15,    12.80,    14.91
      220.0,      14.11,    14.66,    14.12,    12.77,    14.89
      221.0,      14.07,    14.62,    14.08,    12.73,    14.87
      222.0,      14.04,    14.59,    14.04,    12.70,    14.85
      223.0,      14.01,    14.55,    14.00,    12.67,    14.83
      224.0,      13.98,    14.52,    13.96,    12.63,    14.81
      225.0,      13.95,    14.49,    13.92,    12.60,    14.79
      226.0,      13.92,    14.46,    13.88,    12.57,    14.77
      227.0,      13.89,    14.42,    13.84,    12.54,    14.75
      228.0,      13.86,    14.39,    13.80,    12.50,    14.73
      229.0,      13.82,    14.36,    13.77,    12.47,    14.71
      230.0,      13.79,    14.32,    13.73,    12.44,    14.69
      231.0,      13.76,    14.29,    13.69,    12.41,    14.67
      232.0,      13.73,    14.26,    13.65,    12.37,    14.65
      233.0,      13.70,    14.23,    13.61,    12.34,    14.63
      234.0,      13.67,    14.20,    13.58,    12.31,    14.61
      235.0,      13.64,    14.16,    13.54,    12.28,    14.59
      236.0,      13.61,    14.13,    13.50,    12.25,    14.57
      237.0,      13.58,    14.10,    13.46,    12.22,    14.55
      238.0,      13.55,    14.07,    13.43,    12.18,    14.53
      239.0,      13.52,    14.04,    13.39,    12.15,    14.51
      240.0,      13.49,    14.00,    13.35,    12.12,    14.49
      241.0,      13.46,    13.97,    13.31,    12.09,    14.47
      242.0,      13.43,    13.94,    13.28,    12.06,    14.45
      243.0,      13.40,    13.91,    13.24,    12.03,    14.43
      244.0,      13.37,    13.88,    13.20,    12.00,    14.42
      245.0,      13.34,    13.85,    13.17,    11.97,    14.40
      246.0,      13.32,    13.82,    13.13,    11.93,    14.38
      247.0,      13.29,    13.79,    13.10,    11.90,    14.36
      248.0,      13.26,    13.76,    13.06,    11.87,    14.34
      249.0,      13.23,    13.72,    13.02,    11.84,    14.32
      250.0,      13.20,    13.69,    12.99,    11.81,    14.30
      251.0,      13.17,    13.66,    12.95,    11.78,    14.28
      252.0,      13.14,    13.63,    12.92,    11.75,    14.27
      253.0,      13.11,    13.60,    12.88,    11.72,    14.25
      254.0,      13.08,    13.57,    12.85,    11.69,    14.23
      255.0,      13.06,    13.54,    12.81,    11.66,    14.21
      256.0,      13.03,    13.51,    12.77,    11.63,    14.19
      257.0,      13.00,    13.48,    12.74,    11.60,    14.17
      258.0,      12.97,    13.45,    12.70,    11.57,    14.16
      259.0,      12.94,    13.42,    12.67,    11.54,    14.14
      260.0,      12.91,    13.39,    12.63,    11.51,    14.12
      261.0,      12.89,    13.36,    12.60,    11.48,    14.10
      262.0,      12.86,    13.33,    12.57,    11.45,    14.08
      263.0,      12.83,    13.30,    12.53,    11.42,    14.06
      264.0,      12.80,    13.27,    12.50,    11.39,    14.05
      265.0,      12.77,    13.24,    12.46,    11.36,    14.03
      266.0,      12.75,    13.21,    12.43,    11.33,    14.01
      267.0,      12.72,    13.19,    12.39,    11.31,    13.99
      268.0,      12.69,    13.16,    12.36,    11.28,    13.97
      269.0,      12.66,    13.13,    12.33,    11.25,    13.96
      270.0,      12.64,    13.10,    12.29,    11.22,    13.94
      271.0,      12.61,    13.07,    12.26,    11.19,    13.92
      272.0,      12.58,    13.04,    12.22,    11.16,    13.90
      273.0,      12.55,    13.01,    12.19,    11.13,    13.89
      274.0,      12.53,    12.98,    12.16,    11.10,    13.87
      275.0,      12.50,    12.95,    12.12,    11.07,    13.85
      276.0,      12.47,    12.92,    12.09,    11.05,    13.83
      277.0,      12.45,    12.90,    12.06,    11.02,    13.82
      278.0,      12.42,    12.87,    12.03,    10.99,    13.80
      279.0,      12.39,    12.84,    11.99,    10.96,    13.78
      280.0,      12.37,    12.81,    11.96,    10.93,    13.76
      281.0,      12.34,    12.78,    11.93,    10.90,    13.75
      282.0,      12.31,    12.75,    11.89,    10.88,    13.73
      283.0,      12.29,    12.73,    11.86,    10.85,    13.71
      284.0,      12.26,    12.70,    11.83,    10.82,    13.69
      285.0,      12.23,    12.67,    11.80,    10.79,    13.68
      286.0,      12.21,    12.64,    11.76,    10.77,    13.66
      287.0,      12.18,    12.61,    11.73,    10.74,    13.64
      288.0,      12.15,    12.59,    11.70,    10.71,    13.62
      289.0,      12.13,    12.56,    11.67,    10.68,    13.61
      290.0,      12.10,    12.53,    11.64,    10.66,    13.59
      291.0,      12.08,    12.50,    11.60,    10.63,    13.57
      292.0,      12.05,    12.47,    11.57,    10.60,    13.55
      293.0,      12.02,    12.45,    11.54,    10.57,    13.54
      294.0,      12.00,    12.42,    11.51,    10.55,    13.52
      295.0,      11.97,    12.39,    11.48,    10.52,    13.50
      296.0,      11.95,    12.36,    11.45,    10.49,    13.49
      297.0,      11.92,    12.34,    11.42,    10.46,    13.47
      298.0,      11.90,    12.31,    11.38,    10.44,    13.45
      299.0,      11.87,    12.28,    11.35,    10.41,    13.44
      300.0,      11.85,    12.26,    11.32,    10.38,    13.42
      301.0,      11.82,    12.23,    11.29,    10.36,    13.40
      302.0,      11.79,    12.20,    11.26,    10.33,    13.38
      303.0,      11.77,    12.18,    11.23,    10.30,    13.37
      304.0,      11.74,    12.15,    11.20,    10.28,    13.35
      305.0,      11.72,    12.12,    11.17,    10.25,    13.33
      306.0,      11.69,    12.09,    11.14,    10.23,    13.32
      307.0,      11.67,    12.07,    11.11,    10.20,    13.30
      308.0,      11.64,    12.04,    11.08,    10.17,    13.28
      309.0,      11.62,    12.01,    11.05,    10.15,    13.27
      310.0,      11.59,    11.99,    11.02,    10.12,    13.25
