Radius (km), Mean (m/s), NE (m/s), SE (m/s), SW (m/s), NW (m/s)
        0.0,       0.00,     0.00,     0.00,     0.00,     0.00
        1.0,       1.81,     1.78,     1.78,     1.84,     1.84
        2.0,       3.08,     3.05,     3.05,     3.11,     3.11
        3.0,       4.20,     4.17,     4.17,     4.23,     4.23
        4.0,       5.24,     5.22,     5.22,     5.25,     5.25
        5.0,       6.21,     6.20,     6.20,     6.22,     6.22
        6.0,       7.14,     7.14,     7.14,     7.14,     7.14
        7.0,       8.04,     8.05,     8.05,     8.03,     8.03
        8.0,       8.90,     8.92,     8.92,     8.88,     8.88
        9.0,       9.74,     9.78,     9.78,     9.71,     9.71
       10.0,      10.56,    10.61,    10.61,    10.51,    10.51
       11.0,      11.36,    11.42,    11.42,    11.30,    11.30
       12.0,      12.14,    12.22,    12.22,    12.07,    12.07
       13.0,      12.91,    13.00,    13.00,    12.82,    12.82
       14.0,      13.67,    13.77,    13.77,    13.56,    13.56
       15.0,      14.41,    14.52,    14.52,    14.29,    14.29
       16.0,      15.14,    15.27,    15.27,    15.01,    15.01
       17.0,      15.86,    16.00,    16.00,    15.71,    15.71
       18.0,      16.57,    16.73,    16.73,    16.41,    16.41
       19.0,      17.27,    17.44,    17.44,    17.09,    17.09
       20.0,      17.96,    18.15,    18.15,    17.77,    17.77
       21.0,      18.64,    18.85,    18.85,    18.44,    18.44
       22.0,      19.32,    19.54,    19.54,    19.10,    19.10
       23.0,      19.99,    20.22,    20.22,    19.75,    19.75
       24.0,      20.65,    20.90,    20.90,    20.40,    20.40
       25.0,      21.31,    21.57,    21.57,    21.04,    21.04
       26.0,      21.96,    22.24,    22.24,    21.67,    21.67
       27.0,      22.60,    22.90,    22.90,    22.30,    22.30
       28.0,      23.24,    23.55,    23.55,    22.92,    22.92
       29.0,      23.87,    24.20,    24.20,    23.54,    23.54
       30.0,      24.50,    24.85,    24.85,    24.15,    24.15
       31.0,      25.12,    25.49,    25.49,    24.76,    24.76
       32.0,      25.76,    26.14,    26.15,    25.37,    25.38
       33.0,      26.42,    26.81,    26.86,    25.99,    26.02
       34.0,      27.12,    27.52,    27.63,    26.64,    26.70
       35.0,      27.89,    28.30,    28.48,    27.34,    27.43
       36.0,      28.71,    29.14,    29.41,    28.09,    28.21
       37.0,      29.59,    30.02,    30.40,    28.88,    29.04
       38.0,      30.47,    30.93,    31.40,    29.69,    29.88
       39.0,      31.34,    31.82,    32.36,    30.50,    30.69
       40.0,      32.15,    32.64,    33.23,    31.26,    31.45
       41.0,      32.85,    33.37,    33.96,    31.95,    32.12
       42.0,      33.41,    33.95,    34.51,    32.52,    32.67
       43.0,      33.82,    34.39,    34.86,    32.97,    33.08
       44.0,      34.08,    34.66,    35.02,    33.28,    33.35
       45.0,      34.19,    34.79,    35.00,    33.47,    33.50
       46.0,      34.18,    34.79,    34.84,    33.54,    33.55
       47.0,      34.08,    34.71,    34.59,    33.52,    33.51
       48.0,      33.93,    34.56,    34.28,    33.45,    33.43
       49.0,      33.75,    34.39,    33.95,    33.34,    33.32
       50.0,      33.57,    34.21,    33.62,    33.23,    33.21
       51.0,      33.39,    34.04,    33.31,    33.12,    33.10
       52.0,      33.23,    33.89,    33.02,    33.01,    33.00
       53.0,      33.08,    33.74,    32.75,    32.92,    32.91
       54.0,      32.93,    33.60,    32.48,    32.83,    32.81
       55.0,      32.78,    33.46,    32.23,    32.73,    32.72
       56.0,      32.64,    33.32,    31.98,    32.64,    32.63
       57.0,      32.50,    33.19,    31.74,    32.55,    32.54
       58.0,      32.37,    33.06,    31.51,    32.46,    32.45
       59.0,      32.23,    32.93,    31.28,    32.37,    32.36
       60.0,      32.10,    32.80,    31.07,    32.28,    32.27
       61.0,      31.98,    32.68,    30.86,    32.19,    32.18
       62.0,      31.85,    32.55,    30.65,    32.10,    32.09
       63.0,      31.73,    32.44,    30.45,    32.01,    32.01
       64.0,      31.61,    32.32,    30.26,    31.92,    31.92
       65.0,      31.49,    32.20,    30.08,    31.83,    31.83
       66.0,      31.37,    32.09,    29.90,    31.74,    31.75
       67.0,      31.26,    31.98,    29.72,    31.65,    31.66
       68.0,      31.14,    31.87,    29.56,    31.57,    31.58
       69.0,      31.03,    31.76,    29.39,    31.48,    31.50
       70.0,      30.92,    31.65,    29.23,    31.39,    31.41
       71.0,      30.81,    31.55,    29.08,    31.30,    31.33
       72.0,      30.71,    31.45,    28.93,    31.22,    31.25
       73.0,      30.60,    31.34,    28.78,    31.13,    31.16
       74.0,      30.50,    31.24,    28.64,    31.04,    31.08
       75.0,      30.40,    31.15,    28.50,    30.96,    31.00
       76.0,      30.30,    31.05,    28.37,    30.87,    30.92
       77.0,      30.20,    30.95,    28.24,    30.78,    30.84
       78.0,      30.11,    30.86,    28.11,    30.70,    30.76
       79.0,      30.01,    30.76,    27.99,    30.61,    30.68
       80.0,      29.92,    30.67,    27.87,    30.53,    30.60
       81.0,      29.82,    30.58,    27.75,    30.44,    30.52
       82.0,      29.73,    30.49,    27.64,    30.36,    30.45
       83.0,      29.64,    30.40,    27.52,    30.27,    30.37
       84.0,      29.55,    30.31,    27.42,    30.19,    30.29
       85.0,      29.46,    30.23,    27.31,    30.10,    30.22
       86.0,      29.38,    30.14,    27.21,    30.02,    30.14
       87.0,      29.29,    30.05,    27.11,    29.94,    30.06
       88.0,      29.20,    29.97,    27.01,    29.85,    29.99
       89.0,      29.12,    29.89,    26.91,    29.77,    29.91
       90.0,      29.04,    29.80,    26.82,    29.69,    29.84
       91.0,      28.95,    29.72,    26.73,    29.60,    29.76
       92.0,      28.87,    29.64,    26.64,    29.52,    29.69
       93.0,      28.79,    29.56,    26.55,    29.44,    29.62
       94.0,      28.71,    29.48,    26.47,    29.36,    29.54
       95.0,      28.63,    29.40,    26.38,    29.28,    29.47
       96.0,      28.55,    29.32,    26.30,    29.19,    29.40
       97.0,      28.48,    29.25,    26.22,    29.11,    29.33
       98.0,      28.40,    29.17,    26.14,    29.03,    29.26
       99.0,      28.32,    29.09,    26.06,    28.95,    29.18
      100.0,      28.25,    29.02,    25.99,    28.87,    29.11
      101.0,      28.17,    28.94,    25.91,    28.79,    29.04
      102.0,      28.10,    28.87,    25.84,    28.71,    28.97
      103.0,      28.02,    28.79,    25.77,    28.63,    28.90
      104.0,      27.95,    28.72,    25.70,    28.55,    28.83
      105.0,      27.88,    28.65,    25.63,    28.47,    28.76
      106.0,      27.81,    28.57,    25.56,    28.39,    28.69
      107.0,      27.73,    28.50,    25.49,    28.31,    28.63
      108.0,      27.66,    28.43,    25.43,    28.24,    28.56
      109.0,      27.59,    28.36,    25.36,    28.16,    28.49
      110.0,      27.52,    28.29,    25.30,    28.08,    28.42
      111.0,      27.45,    28.22,    25.24,    28.00,    28.36
      112.0,      27.38,    28.15,    25.18,    27.92,    28.29
      113.0,      27.32,    28.08,    25.12,    27.85,    28.22
      114.0,      27.25,    28.01,    25.06,    27.77,    28.15
      115.0,      27.18,    27.94,    25.00,    27.69,    28.09
      116.0,      27.11,    27.87,    24.94,    27.61,    28.02
      117.0,      27.05,    27.81,    24.88,    27.54,    27.96
      118.0,      26.98,    27.74,    24.82,    27.46,    27.89
      119.0,      26.91,    27.67,    24.77,    27.38,    27.83
      120.0,      26.85,    27.61,    24.71,    27.31,    27.76
      121.0,      26.78,    27.54,    24.66,    27.23,    27.70
      122.0,      26.72,    27.47,    24.60,    27.16,    27.63
      123.0,      26.65,    27.41,    24.55,    27.08,    27.57
      124.0,      26.59,    27.34,    24.50,    27.01,    27.51
      125.0,      26.52,    27.28,    24.45,    26.93,    27.44
      126.0,      26.46,    27.21,    24.40,    26.86,    27.38
      127.0,      26.40,    27.15,    24.34,    26.78,    27.32
      128.0,      26.34,    27.08,    24.29,    26.71,    27.25
      129.0,      26.27,    27.02,    24.24,    26.63,    27.19
      130.0,      26.21,    26.96,    24.20,    26.56,    27.13
      131.0,      26.15,    26.89,    24.15,    26.49,    27.07
      132.0,      26.09,    26.83,    24.10,    26.41,    27.01
      133.0,      26.03,    26.77,    24.05,    26.34,    26.94
      134.0,      25.96,    26.70,    24.00,    26.27,    26.88
      135.0,      25.90,    26.64,    23.96,    26.19,    26.82
      136.0,      25.84,    26.58,    23.91,    26.12,    26.76
      137.0,      25.78,    26.52,    23.86,    26.05,    26.70
      138.0,      25.72,    26.46,    23.82,    25.98,    26.64
      139.0,      25.66,    26.39,    23.77,    25.91,    26.58
      140.0,      25.60,    26.33,    23.73,    25.83,    26.52
      141.0,      25.54,    26.27,    23.68,    25.76,    26.46
      142.0,      25.49,    26.21,    23.64,    25.69,    26.40
      143.0,      25.43,    26.15,    23.59,    25.62,    26.34
      144.0,      25.37,    26.09,    23.55,    25.55,    26.29
      145.0,      25.31,    26.03,    23.50,    25.48,    26.23
      146.0,      25.25,    25.97,    23.46,    25.41,    26.17
      147.0,      25.19,    25.91,    23.42,    25.34,    26.11
      148.0,      25.14,    25.85,    23.38,    25.27,    26.05
      149.0,      25.08,    25.79,    23.33,    25.20,    25.99
      150.0,      25.02,    25.73,    23.29,    25.13,    25.94
      151.0,      24.97,    25.67,    23.25,    25.06,    25.88
      152.0,      24.91,    25.62,    23.21,    24.99,    25.82
      153.0,      24.85,    25.56,    23.17,    24.92,    25.77
      154.0,      24.80,    25.50,    23.12,    24.85,    25.71
      155.0,      24.74,    25.44,    23.08,    24.78,    25.65
      156.0,      24.68,    25.38,    23.04,    24.71,    25.60
      157.0,      24.63,    25.32,    23.00,    24.64,    25.54
      158.0,      24.57,    25.27,    22.96,    24.58,    25.48
      159.0,      24.52,    25.21,    22.92,    24.51,    25.43
      160.0,      24.46,    25.15,    22.88,    24.44,    25.37
      161.0,      24.41,    25.09,    22.84,    24.37,    25.32
      162.0,      24.35,    25.04,    22.80,    24.31,    25.26
      163.0,      24.30,    24.98,    22.76,    24.24,    25.21
      164.0,      24.24,    24.92,    22.72,    24.17,    25.15
      165.0,      24.19,    24.87,    22.68,    24.10,    25.10
      166.0,      24.13,    24.81,    22.64,    24.04,    25.04
      167.0,      24.08,    24.75,    22.60,    23.97,    24.99
      168.0,      24.03,    24.70,    22.57,    23.91,    24.93
      169.0,      23.97,    24.64,    22.53,    23.84,    24.88
      170.0,      23.92,    24.59,    22.49,    23.77,    24.83
      171.0,      23.87,    24.53,    22.45,    23.71,    24.77
      172.0,      23.81,    24.48,    22.41,    23.64,    24.72
      173.0,      23.76,    24.42,    22.37,    23.58,    24.67
      174.0,      23.71,    24.37,    22.34,    23.51,    24.61
      175.0,      23.65,    24.31,    22.30,    23.45,    24.56
      176.0,      23.60,    24.26,    22.26,    23.38,    24.51
      177.0,      23.55,    24.20,    22.22,    23.32,    24.45
      178.0,      23.50,    24.15,    22.19,    23.25,    24.40
      179.0,      23.44,    24.09,    22.15,    23.19,    24.35
      180.0,      23.39,    24.04,    22.11,    23.13,    24.30
      181.0,      23.34,    23.98,    22.07,    23.06,    24.24
      182.0,      23.29,    23.93,    22.04,    23.00,    24.19
      183.0,      23.24,    23.87,    22.00,    22.93,    24.14
      184.0,      23.19,    23.82,    21.96,    22.87,    24.09
      185.0,      23.14,    23.77,    21.93,    22.81,    24.04
      186.0,      23.08,    23.71,    21.89,    22.75,    23.99
      187.0,      23.03,    23.66,    21.85,    22.68,    23.94
      188.0,      22.98,    23.61,    21.82,    22.62,    23.89
      189.0,      22.93,    23.55,    21.78,    22.56,    23.83
      190.0,      22.88,    23.50,    21.75,    22.50,    23.78
      191.0,      22.83,    23.45,    21.71,    22.43,    23.73
      192.0,      22.78,    23.40,    21.67,    22.37,    23.68
      193.0,      22.73,    23.34,    21.64,    22.31,    23.63
      194.0,      22.68,    23.29,    21.60,    22.25,    23.58
      195.0,      22.63,    23.24,    21.57,    22.19,    23.53
      196.0,      22.58,    23.19,    21.53,    22.13,    23.48
      197.0,      22.53,    23.13,    21.50,    22.06,    23.43
      198.0,      22.48,    23.08,    21.46,    22.00,    23.38
      199.0,      22.43,    23.03,    21.43,    21.94,    23.33
      200.0,      22.38,    22.98,    21.39,    21.88,    23.29
      201.0,      22.33,    22.93,    21.35,    21.82,    23.24
      202.0,      22.29,    22.88,    21.32,    21.76,    23.19
      203.0,      22.24,    22.82,    21.28,    21.70,    23.14
      204.0,      22.19,    22.77,    21.25,    21.64,    23.09
      205.0,      22.14,    22.72,    21.21,    21.58,    23.04
      206.0,      22.09,    22.67,    21.18,    21.52,    22.99
      207.0,      22.04,    22.62,    21.15,    21.46,    22.94
      208.0,      22.00,    22.57,    21.11,    21.40,    22.90
      209.0,      21.95,    22.52,    21.08,    21.35,    22.85
      210.0,      21.90,    22.47,    21.04,    21.29,    22.80
      211.0,      21.85,    22.42,    21.01,    21.23,    22.75
      212.0,      21.80,    22.37,    20.97,    21.17,    22.71
      213.0,      21.76,    22.32,    20.94,    21.11,    22.66
      214.0,      21.71,    22.27,    20.90,    21.05,    22.61
      215.0,      21.66,    22.22,    20.87,    21.00,    22.56
      216.0,      21.61,    22.17,    20.84,    20.94,    22.52
      217.0,      21.57,    22.12,    20.80,    20.88,    22.47
      218.0,      21.52,    22.07,    20.77,    20.82,    22.42
      219.0,      21.47,    22.02,    20.73,    20.77,    22.38
      220.0,      21.43,    21.97,    20.70,    20.71,    22.33
      221.0,      21.38,    21.92,    20.67,    20.65,    22.28
      222.0,      21.33,    21.87,    20.63,    20.59,    22.24
      223.0,      21.29,    21.82,    20.60,    20.54,    22.19
      224.0,      21.24,    21.77,    20.57,    20.48,    22.14
      225.0,      21.19,    21.72,    20.53,    20.43,    22.10
      226.0,      21.15,    21.68,    20.50,    20.37,    22.05
      227.0,      21.10,    21.63,    20.47,    20.31,    22.01
      228.0,      21.06,    21.58,    20.43,    20.26,    21.96
      229.0,      21.01,    21.53,    20.40,    20.20,    21.91
      230.0,      20.97,    21.48,    20.37,    20.15,    21.87
      231.0,      20.92,    21.43,    20.33,    20.09,    21.82
      232.0,      20.87,    21.39,    20.30,    20.04,    21.78
      233.0,      20.83,    21.34,    20.27,    19.98,    21.73
      234.0,      20.78,    21.29,    20.23,    19.93,    21.69
      235.0,      20.74,    21.24,    20.20,    19.87,    21.64
      236.0,      20.69,    21.19,    20.17,    19.82,    21.60
      237.0,      20.65,    21.15,    20.14,    19.76,    21.55
      238.0,      20.60,    21.10,    20.10,    19.71,    21.51
      239.0,      20.56,    21.05,    20.07,    19.65,    21.47
      240.0,      20.52,    21.01,    20.04,    19.60,    21.42
      241.0,      20.47,    20.96,    20.01,    19.55,    21.38
      242.0,      20.43,    20.91,    19.97,    19.49,    21.33
      243.0,      20.38,    20.86,    19.94,    19.44,    21.29
      244.0,      20.34,    20.82,    19.91,    19.38,    21.24
      245.0,      20.29,    20.77,    19.88,    19.33,    21.20
      246.0,      20.25,    20.72,    19.84,    19.28,    21.16
      247.0,      20.21,    20.68,    19.81,    19.23,    21.11
      248.0,      20.16,    20.63,    19.78,    19.17,    21.07
      249.0,      20.12,    20.59,    19.75,    19.12,    21.03
      250.0,      20.08,    20.54,    19.72,    19.07,    20.98
      251.0,      20.03,    20.49,    19.68,    19.02,    20.94
      252.0,      19.99,    20.45,    19.65,    18.96,    20.90
      253.0,      19.95,    20.40,    19.62,    18.91,    20.85
      254.0,      19.90,    20.36,    19.59,    18.86,    20.81
      255.0,      19.86,    20.31,    19.56,    18.81,    20.77
      256.0,      19.82,    20.27,    19.52,    18.76,    20.73
      257.0,      19.78,    20.22,    19.49,    18.70,    20.68
      258.0,      19.73,    20.17,    19.46,    18.65,    20.64
      259.0,      19.69,    20.13,    19.43,    18.60,    20.60
      260.0,      19.65,    20.08,    19.40,    18.55,    20.56
      261.0,      19.61,    20.04,    19.37,    18.50,    20.51
      262.0,      19.56,    19.99,    19.34,    18.45,    20.47
      263.0,      19.52,    19.95,    19.30,    18.40,    20.43
      264.0,      19.48,    19.91,    19.27,    18.35,    20.39
      265.0,      19.44,    19.86,    19.24,    18.30,    20.35
      266.0,      19.40,    19.82,    19.21,    18.25,    20.31
      267.0,      19.35,    19.77,    19.18,    18.20,    20.26
      268.0,      19.31,    19.73,    19.15,    18.15,    20.22
      269.0,      19.27,    19.68,    19.12,    18.10,    20.18
      270.0,      19.23,    19.64,    19.09,    18.05,    20.14
      271.0,      19.19,    19.60,    19.06,    18.00,    20.10
      272.0,      19.15,    19.55,    19.03,    17.95,    20.06
      273.0,      19.10,    19.51,    18.99,    17.90,    20.02
      274.0,      19.06,    19.46,    18.96,    17.85,    19.98
      275.0,      19.02,    19.42,    18.93,    17.80,    19.94
      276.0,      18.98,    19.38,    18.90,    17.75,    19.89
      277.0,      18.94,    19.33,    18.87,    17.70,    19.85
      278.0,      18.90,    19.29,    18.84,    17.66,    19.81
      279.0,      18.86,    19.25,    18.81,    17.61,    19.77
      280.0,      18.82,    19.20,    18.78,    17.56,    19.73
      281.0,      18.78,    19.16,    18.75,    17.51,    19.69
      282.0,      18.74,    19.12,    18.72,    17.46,    19.65
      283.0,      18.70,    19.08,    18.69,    17.42,    19.61
      284.0,      18.66,    19.03,    18.66,    17.37,    19.57
      285.0,      18.62,    18.99,    18.63,    17.32,    19.53
      286.0,      18.58,    18.95,    18.60,    17.27,    19.49
      287.0,      18.54,    18.91,    18.57,    17.23,    19.45
      288.0,      18.50,    18.86,    18.54,    17.18,    19.41
      289.0,      18.46,    18.82,    18.51,    17.13,    19.37
      290.0,      18.42,    18.78,    18.48,    17.08,    19.33
      291.0,      18.38,    18.74,    18.45,    17.04,    19.29
      292.0,      18.34,    18.69,    18.42,    16.99,    19.26
      293.0,      18.30,    18.65,    18.39,    16.94,    19.22
      294.0,      18.26,    18.61,    18.36,    16.90,    19.18
      295.0,      18.22,    18.57,    18.33,    16.85,    19.14
      296.0,      18.18,    18.53,    18.30,    16.81,    19.10
      297.0,      18.14,    18.49,    18.27,    16.76,    19.06
      298.0,      18.11,    18.45,    18.24,    16.71,    19.02
      299.0,      18.07,    18.40,    18.21,    16.67,    18.98
      300.0,      18.03,    18.36,    18.18,    16.62,    18.94
      301.0,      17.99,    18.32,    18.15,    16.58,    18.91
      302.0,      17.95,    18.28,    18.12,    16.53,    18.87
      303.0,      17.91,    18.24,    18.09,    16.49,    18.83
      304.0,      17.87,    18.20,    18.06,    16.44,    18.79
      305.0,      17.84,    18.16,    18.04,    16.40,    18.75
      306.0,      17.80,    18.12,    18.01,    16.35,    18.71
      307.0,      17.76,    18.08,    17.98,    16.31,    18.68
      308.0,      17.72,    18.04,    17.95,    16.26,    18.64
      309.0,      17.68,    18.00,    17.92,    16.22,    18.60
      310.0,      17.65,    17.96,    17.89,    16.17,    18.56
