Radius (km), Mean (m/s), NE (m/s), SE (m/s), SW (m/s), NW (m/s)
        0.0,       1.85,     1.95,     2.83,     0.60,     2.01
        1.0,       7.34,     7.52,     8.62,     5.65,     7.59
        2.0,      11.93,    12.44,    13.58,     9.41,    12.28
        3.0,      16.27,    17.18,    18.25,    12.94,    16.72
        4.0,      20.34,    21.66,    22.54,    16.28,    20.87
        5.0,      24.02,    25.74,    26.34,    19.40,    24.60
        6.0,      27.19,    29.26,    29.50,    22.20,    27.78
        7.0,      29.75,    32.11,    31.97,    24.58,    30.34
        8.0,      31.65,    34.22,    33.71,    26.48,    32.21
        9.0,      32.91,    35.59,    34.76,    27.87,    33.42
       10.0,      33.58,    36.31,    35.22,    28.75,    34.04
       11.0,      33.76,    36.47,    35.22,    29.17,    34.18
       12.0,      33.57,    36.22,    34.89,    29.22,    33.96
       13.0,      33.15,    35.72,    34.37,    29.00,    33.52
       14.0,      32.61,    35.09,    33.77,    28.62,    32.97
       15.0,      32.03,    34.43,    33.16,    28.16,    32.39
       16.0,      31.47,    33.79,    32.57,    27.69,    31.83
       17.0,      30.93,    33.19,    32.01,    27.24,    31.29
       18.0,      30.42,    32.63,    31.47,    26.82,    30.78
       19.0,      29.93,    32.09,    30.94,    26.42,    30.28
       20.0,      29.45,    31.56,    30.43,    26.03,    29.79
       21.0,      28.99,    31.06,    29.92,    25.66,    29.31
       22.0,      28.53,    30.57,    29.44,    25.28,    28.84
       23.0,      28.09,    30.10,    28.96,    24.92,    28.38
       24.0,      27.66,    29.65,    28.50,    24.56,    27.94
       25.0,      27.24,    29.21,    28.04,    24.21,    27.50
       26.0,      26.83,    28.78,    27.60,    23.87,    27.07
       27.0,      26.43,    28.37,    27.17,    23.53,    26.65
       28.0,      26.04,    27.97,    26.75,    23.20,    26.24
       29.0,      25.66,    27.59,    26.35,    22.87,    25.84
       30.0,      25.29,    27.22,    25.95,    22.55,    25.45
       31.0,      24.93,    26.86,    25.56,    22.24,    25.07
       32.0,      24.58,    26.51,    25.18,    21.93,    24.69
       33.0,      24.24,    26.18,    24.81,    21.63,    24.32
       34.0,      23.90,    25.85,    24.45,    21.34,    23.97
       35.0,      23.57,    25.54,    24.10,    21.04,    23.61
       36.0,      23.26,    25.23,    23.76,    20.76,    23.27
       37.0,      22.95,    24.94,    23.43,    20.48,    22.94
       38.0,      22.64,    24.65,    23.11,    20.20,    22.61
       39.0,      22.35,    24.38,    22.79,    19.93,    22.28
       40.0,      22.06,    24.11,    22.48,    19.67,    21.97
       41.0,      21.77,    23.85,    22.18,    19.41,    21.66
       42.0,      21.50,    23.60,    21.89,    19.15,    21.36
       43.0,      21.23,    23.35,    21.60,    18.90,    21.07
       44.0,      20.97,    23.12,    21.32,    18.65,    20.78
       45.0,      20.71,    22.89,    21.05,    18.41,    20.50
       46.0,      20.46,    22.67,    20.79,    18.17,    20.22
       47.0,      20.22,    22.45,    20.53,    17.94,    19.95
       48.0,      19.98,    22.24,    20.28,    17.71,    19.69
       49.0,      19.75,    22.04,    20.03,    17.48,    19.43
       50.0,      19.52,    21.84,    19.79,    17.26,    19.18
       51.0,      19.30,    21.65,    19.56,    17.04,    18.93
       52.0,      19.08,    21.47,    19.33,    16.83,    18.69
       53.0,      18.87,    21.29,    19.11,    16.62,    18.45
       54.0,      18.66,    21.11,    18.89,    16.42,    18.22
       55.0,      18.46,    20.94,    18.68,    16.21,    17.99
       56.0,      18.26,    20.78,    18.47,    16.02,    17.77
       57.0,      18.07,    20.61,    18.27,    15.82,    17.55
       58.0,      17.88,    20.46,    18.08,    15.63,    17.34
       59.0,      17.69,    20.31,    17.89,    15.44,    17.13
       60.0,      17.51,    20.16,    17.70,    15.26,    16.93
       61.0,      17.33,    20.01,    17.52,    15.07,    16.73
       62.0,      17.16,    19.87,    17.34,    14.90,    16.53
       63.0,      16.99,    19.74,    17.17,    14.72,    16.34
       64.0,      16.83,    19.60,    17.00,    14.55,    16.16
       65.0,      16.67,    19.47,    16.83,    14.38,    15.97
       66.0,      16.51,    19.35,    16.67,    14.21,    15.80
       67.0,      16.35,    19.22,    16.52,    14.05,    15.62
       68.0,      16.20,    19.10,    16.36,    13.89,    15.45
       69.0,      16.05,    18.99,    16.21,    13.73,    15.28
       70.0,      15.91,    18.87,    16.07,    13.58,    15.12
       71.0,      15.77,    18.76,    15.93,    13.43,    14.96
       72.0,      15.63,    18.65,    15.79,    13.28,    14.80
       73.0,      15.49,    18.55,    15.65,    13.13,    14.65
       74.0,      15.36,    18.44,    15.52,    12.99,    14.49
       75.0,      15.23,    18.34,    15.39,    12.84,    14.35
       76.0,      15.10,    18.24,    15.26,    12.70,    14.20
       77.0,      14.98,    18.14,    15.14,    12.57,    14.06
       78.0,      14.86,    18.05,    15.02,    12.43,    13.92
       79.0,      14.74,    17.96,    14.90,    12.30,    13.79
       80.0,      14.62,    17.86,    14.79,    12.17,    13.65
       81.0,      14.50,    17.78,    14.68,    12.04,    13.52
       82.0,      14.39,    17.69,    14.57,    11.92,    13.40
       83.0,      14.28,    17.60,    14.46,    11.79,    13.27
       84.0,      14.17,    17.52,    14.36,    11.67,    13.15
       85.0,      14.07,    17.44,    14.26,    11.55,    13.03
       86.0,      13.96,    17.36,    14.16,    11.43,    12.91
       87.0,      13.86,    17.28,    14.06,    11.32,    12.80
       88.0,      13.76,    17.20,    13.96,    11.20,    12.69
       89.0,      13.67,    17.12,    13.87,    11.09,    12.58
       90.0,      13.57,    17.05,    13.78,    10.98,    12.47
       91.0,      13.48,    16.97,    13.69,    10.87,    12.36
       92.0,      13.38,    16.90,    13.61,    10.77,    12.26
       93.0,      13.29,    16.83,    13.52,    10.66,    12.16
       94.0,      13.21,    16.76,    13.44,    10.56,    12.06
       95.0,      13.12,    16.69,    13.36,    10.46,    11.96
       96.0,      13.03,    16.63,    13.28,    10.36,    11.87
       97.0,      12.95,    16.56,    13.20,    10.26,    11.77
       98.0,      12.87,    16.49,    13.13,    10.17,    11.68
       99.0,      12.79,    16.43,    13.05,    10.07,    11.59
      100.0,      12.71,    16.37,    12.98,     9.98,    11.51
      101.0,      12.63,    16.30,    12.91,     9.89,    11.42
      102.0,      12.55,    16.24,    12.84,     9.80,    11.34
      103.0,      12.48,    16.18,    12.78,     9.71,    11.25
      104.0,      12.41,    16.12,    12.71,     9.62,    11.17
      105.0,      12.33,    16.06,    12.65,     9.54,    11.09
      106.0,      12.26,    16.00,    12.58,     9.45,    11.02
      107.0,      12.19,    15.95,    12.52,     9.37,    10.94
      108.0,      12.13,    15.89,    12.46,     9.29,    10.87
      109.0,      12.06,    15.83,    12.40,     9.21,    10.79
      110.0,      11.99,    15.78,    12.35,     9.13,    10.72
      111.0,      11.93,    15.72,    12.29,     9.05,    10.65
      112.0,      11.86,    15.67,    12.23,     8.97,    10.58
      113.0,      11.80,    15.62,    12.18,     8.90,    10.51
      114.0,      11.74,    15.56,    12.13,     8.82,    10.45
      115.0,      11.68,    15.51,    12.08,     8.75,    10.38
      116.0,      11.62,    15.46,    12.02,     8.68,    10.32
      117.0,      11.56,    15.41,    11.98,     8.60,    10.26
      118.0,      11.50,    15.36,    11.93,     8.53,    10.19
      119.0,      11.45,    15.31,    11.88,     8.47,    10.13
      120.0,      11.39,    15.26,    11.83,     8.40,    10.08
      121.0,      11.34,    15.21,    11.79,     8.33,    10.02
      122.0,      11.28,    15.16,    11.74,     8.27,     9.96
      123.0,      11.23,    15.11,    11.70,     8.20,     9.91
      124.0,      11.18,    15.06,    11.66,     8.14,     9.85
      125.0,      11.13,    15.02,    11.61,     8.07,     9.80
      126.0,      11.07,    14.97,    11.57,     8.01,     9.75
      127.0,      11.02,    14.92,    11.53,     7.95,     9.69
      128.0,      10.98,    14.88,    11.49,     7.89,     9.64
      129.0,      10.93,    14.83,    11.45,     7.83,     9.59
      130.0,      10.88,    14.79,    11.41,     7.77,     9.54
      131.0,      10.83,    14.74,    11.38,     7.72,     9.50
      132.0,      10.79,    14.70,    11.34,     7.66,     9.45
      133.0,      10.74,    14.65,    11.30,     7.60,     9.40
      134.0,      10.70,    14.61,    11.27,     7.55,     9.36
      135.0,      10.65,    14.57,    11.23,     7.49,     9.31
      136.0,      10.61,    14.52,    11.20,     7.44,     9.27
      137.0,      10.57,    14.48,    11.17,     7.39,     9.23
      138.0,      10.52,    14.44,    11.13,     7.34,     9.19
      139.0,      10.48,    14.39,    11.10,     7.28,     9.14
      140.0,      10.44,    14.35,    11.07,     7.23,     9.10
      141.0,      10.40,    14.31,    11.04,     7.18,     9.06
      142.0,      10.36,    14.27,    11.01,     7.13,     9.02
      143.0,      10.32,    14.23,    10.98,     7.09,     8.99
      144.0,      10.28,    14.19,    10.95,     7.04,     8.95
      145.0,      10.24,    14.15,    10.92,     6.99,     8.91
      146.0,      10.20,    14.11,    10.89,     6.94,     8.87
      147.0,      10.17,    14.07,    10.86,     6.90,     8.84
      148.0,      10.13,    14.03,    10.84,     6.85,     8.80
      149.0,      10.09,    13.99,    10.81,     6.81,     8.77
      150.0,      10.06,    13.95,    10.78,     6.77,     8.74
      151.0,      10.02,    13.91,    10.76,     6.72,     8.70
      152.0,       9.99,    13.87,    10.73,     6.68,     8.67
      153.0,       9.95,    13.83,    10.71,     6.64,     8.64
      154.0,       9.92,    13.79,    10.68,     6.59,     8.60
      155.0,       9.88,    13.75,    10.66,     6.55,     8.57
      156.0,       9.85,    13.71,    10.63,     6.51,     8.54
      157.0,       9.82,    13.68,    10.61,     6.47,     8.51
      158.0,       9.78,    13.64,    10.59,     6.43,     8.48
      159.0,       9.75,    13.60,    10.56,     6.39,     8.45
      160.0,       9.72,    13.56,    10.54,     6.36,     8.42
      161.0,       9.69,    13.52,    10.52,     6.32,     8.40
      162.0,       9.66,    13.49,    10.50,     6.28,     8.37
      163.0,       9.63,    13.45,    10.47,     6.24,     8.34
      164.0,       9.60,    13.41,    10.45,     6.21,     8.31
      165.0,       9.57,    13.38,    10.43,     6.17,     8.29
      166.0,       9.54,    13.34,    10.41,     6.13,     8.26
      167.0,       9.51,    13.30,    10.39,     6.10,     8.23
      168.0,       9.48,    13.27,    10.37,     6.06,     8.21
      169.0,       9.45,    13.23,    10.35,     6.03,     8.18
      170.0,       9.42,    13.20,    10.33,     5.99,     8.16
      171.0,       9.39,    13.16,    10.31,     5.96,     8.14
      172.0,       9.36,    13.12,    10.29,     5.93,     8.11
      173.0,       9.34,    13.09,    10.27,     5.89,     8.09
      174.0,       9.31,    13.05,    10.25,     5.86,     8.06
      175.0,       9.28,    13.02,    10.24,     5.83,     8.04
      176.0,       9.25,    12.98,    10.22,     5.80,     8.02
      177.0,       9.23,    12.95,    10.20,     5.77,     8.00
      178.0,       9.20,    12.91,    10.18,     5.74,     7.98
      179.0,       9.18,    12.88,    10.16,     5.71,     7.95
      180.0,       9.15,    12.84,    10.15,     5.67,     7.93
      181.0,       9.12,    12.81,    10.13,     5.64,     7.91
      182.0,       9.10,    12.77,    10.11,     5.62,     7.89
      183.0,       9.07,    12.74,    10.10,     5.59,     7.87
      184.0,       9.05,    12.71,    10.08,     5.56,     7.85
      185.0,       9.02,    12.67,    10.06,     5.53,     7.83
      186.0,       9.00,    12.64,    10.05,     5.50,     7.81
      187.0,       8.97,    12.60,    10.03,     5.47,     7.79
      188.0,       8.95,    12.57,    10.02,     5.44,     7.77
      189.0,       8.93,    12.54,    10.00,     5.42,     7.75
      190.0,       8.90,    12.50,     9.98,     5.39,     7.74
      191.0,       8.88,    12.47,     9.97,     5.36,     7.72
      192.0,       8.86,    12.44,     9.95,     5.34,     7.70
      193.0,       8.83,    12.40,     9.94,     5.31,     7.68
      194.0,       8.81,    12.37,     9.92,     5.28,     7.66
      195.0,       8.79,    12.34,     9.91,     5.26,     7.65
      196.0,       8.77,    12.31,     9.89,     5.23,     7.63
      197.0,       8.74,    12.27,     9.88,     5.21,     7.61
      198.0,       8.72,    12.24,     9.87,     5.18,     7.59
      199.0,       8.70,    12.21,     9.85,     5.16,     7.58
      200.0,       8.68,    12.18,     9.84,     5.13,     7.56
      201.0,       8.66,    12.14,     9.82,     5.11,     7.55
      202.0,       8.63,    12.11,     9.81,     5.08,     7.53
      203.0,       8.61,    12.08,     9.80,     5.06,     7.51
      204.0,       8.59,    12.05,     9.78,     5.04,     7.50
      205.0,       8.57,    12.02,     9.77,     5.01,     7.48
      206.0,       8.55,    11.98,     9.76,     4.99,     7.47
      207.0,       8.53,    11.95,     9.74,     4.97,     7.45
      208.0,       8.51,    11.92,     9.73,     4.95,     7.44
      209.0,       8.49,    11.89,     9.72,     4.92,     7.42
      210.0,       8.47,    11.86,     9.70,     4.90,     7.41
      211.0,       8.45,    11.83,     9.69,     4.88,     7.39
      212.0,       8.43,    11.80,     9.68,     4.86,     7.38
      213.0,       8.41,    11.76,     9.66,     4.84,     7.36
      214.0,       8.39,    11.73,     9.65,     4.81,     7.35
      215.0,       8.37,    11.70,     9.64,     4.79,     7.34
      216.0,       8.35,    11.67,     9.63,     4.77,     7.32
      217.0,       8.33,    11.64,     9.61,     4.75,     7.31
      218.0,       8.31,    11.61,     9.60,     4.73,     7.30
      219.0,       8.29,    11.58,     9.59,     4.71,     7.28
      220.0,       8.27,    11.55,     9.58,     4.69,     7.27
      221.0,       8.25,    11.52,     9.57,     4.67,     7.26
      222.0,       8.23,    11.49,     9.55,     4.65,     7.24
      223.0,       8.22,    11.46,     9.54,     4.63,     7.23
      224.0,       8.20,    11.43,     9.53,     4.61,     7.22
      225.0,       8.18,    11.40,     9.52,     4.59,     7.20
      226.0,       8.16,    11.37,     9.51,     4.57,     7.19
      227.0,       8.14,    11.34,     9.50,     4.55,     7.18
      228.0,       8.12,    11.31,     9.48,     4.53,     7.17
      229.0,       8.11,    11.28,     9.47,     4.51,     7.15
      230.0,       8.09,    11.25,     9.46,     4.50,     7.14
      231.0,       8.07,    11.22,     9.45,     4.48,     7.13
      232.0,       8.05,    11.19,     9.44,     4.46,     7.12
      233.0,       8.03,    11.16,     9.43,     4.44,     7.11
      234.0,       8.02,    11.13,     9.42,     4.42,     7.09
      235.0,       8.00,    11.10,     9.41,     4.40,     7.08
      236.0,       7.98,    11.07,     9.39,     4.39,     7.07
      237.0,       7.96,    11.05,     9.38,     4.37,     7.06
      238.0,       7.95,    11.02,     9.37,     4.35,     7.05
      239.0,       7.93,    10.99,     9.36,     4.33,     7.04
      240.0,       7.91,    10.96,     9.35,     4.32,     7.03
      241.0,       7.90,    10.93,     9.34,     4.30,     7.02
      242.0,       7.88,    10.90,     9.33,     4.28,     7.00
      243.0,       7.86,    10.87,     9.32,     4.27,     6.99
      244.0,       7.85,    10.84,     9.31,     4.25,     6.98
      245.0,       7.83,    10.82,     9.30,     4.23,     6.97
      246.0,       7.81,    10.79,     9.29,     4.22,     6.96
      247.0,       7.80,    10.76,     9.28,     4.20,     6.95
      248.0,       7.78,    10.73,     9.27,     4.18,     6.94
      249.0,       7.76,    10.70,     9.26,     4.17,     6.93
      250.0,       7.75,    10.68,     9.25,     4.15,     6.92
      251.0,       7.73,    10.65,     9.23,     4.13,     6.91
      252.0,       7.72,    10.62,     9.22,     4.12,     6.90
      253.0,       7.70,    10.59,     9.21,     4.10,     6.89
      254.0,       7.68,    10.56,     9.20,     4.09,     6.88
      255.0,       7.67,    10.54,     9.19,     4.07,     6.87
      256.0,       7.65,    10.51,     9.18,     4.06,     6.86
      257.0,       7.64,    10.48,     9.17,     4.04,     6.85
      258.0,       7.62,    10.45,     9.16,     4.03,     6.84
      259.0,       7.60,    10.43,     9.15,     4.01,     6.83
      260.0,       7.59,    10.40,     9.14,     4.00,     6.82
      261.0,       7.57,    10.37,     9.13,     3.98,     6.81
      262.0,       7.56,    10.34,     9.12,     3.97,     6.80
      263.0,       7.54,    10.32,     9.11,     3.95,     6.79
      264.0,       7.53,    10.29,     9.10,     3.94,     6.78
      265.0,       7.51,    10.26,     9.09,     3.92,     6.77
      266.0,       7.50,    10.24,     9.08,     3.91,     6.76
      267.0,       7.48,    10.21,     9.07,     3.89,     6.75
      268.0,       7.47,    10.18,     9.06,     3.88,     6.74
      269.0,       7.45,    10.16,     9.05,     3.86,     6.73
      270.0,       7.44,    10.13,     9.04,     3.85,     6.72
      271.0,       7.42,    10.10,     9.04,     3.84,     6.71
      272.0,       7.41,    10.08,     9.03,     3.82,     6.70
      273.0,       7.39,    10.05,     9.02,     3.81,     6.70
      274.0,       7.38,    10.02,     9.01,     3.79,     6.69
      275.0,       7.36,    10.00,     9.00,     3.78,     6.68
      276.0,       7.35,     9.97,     8.99,     3.77,     6.67
      277.0,       7.33,     9.95,     8.98,     3.75,     6.66
      278.0,       7.32,     9.92,     8.97,     3.74,     6.65
      279.0,       7.31,     9.89,     8.96,     3.73,     6.64
      280.0,       7.29,     9.87,     8.95,     3.71,     6.63
      281.0,       7.28,     9.84,     8.94,     3.70,     6.62
      282.0,       7.26,     9.82,     8.93,     3.69,     6.61
      283.0,       7.25,     9.79,     8.92,     3.67,     6.61
      284.0,       7.23,     9.77,     8.91,     3.66,     6.60
      285.0,       7.22,     9.74,     8.90,     3.65,     6.59
      286.0,       7.21,     9.71,     8.89,     3.64,     6.58
      287.0,       7.19,     9.69,     8.88,     3.62,     6.57
      288.0,       7.18,     9.66,     8.87,     3.61,     6.56
      289.0,       7.16,     9.64,     8.86,     3.60,     6.55
      290.0,       7.15,     9.61,     8.86,     3.58,     6.55
      291.0,       7.14,     9.59,     8.85,     3.57,     6.54
      292.0,       7.12,     9.56,     8.84,     3.56,     6.53
      293.0,       7.11,     9.54,     8.83,     3.55,     6.52
      294.0,       7.09,     9.51,     8.82,     3.53,     6.51
      295.0,       7.08,     9.49,     8.81,     3.52,     6.50
      296.0,       7.07,     9.46,     8.80,     3.51,     6.50
      297.0,       7.05,     9.44,     8.79,     3.50,     6.49
      298.0,       7.04,     9.41,     8.78,     3.49,     6.48
      299.0,       7.03,     9.39,     8.77,     3.47,     6.47
      300.0,       7.01,     9.37,     8.76,     3.46,     6.46
      301.0,       7.00,     9.34,     8.75,     3.45,     6.45
      302.0,       6.99,     9.32,     8.75,     3.44,     6.45
      303.0,       6.97,     9.29,     8.74,     3.43,     6.44
      304.0,       6.96,     9.27,     8.73,     3.42,     6.43
      305.0,       6.95,     9.24,     8.72,     3.40,     6.42
      306.0,       6.93,     9.22,     8.71,     3.39,     6.41
      307.0,       6.92,     9.20,     8.70,     3.38,     6.41
      308.0,       6.91,     9.17,     8.69,     3.37,     6.40
      309.0,       6.89,     9.15,     8.68,     3.36,     6.39
      310.0,       6.88,     9.12,     8.67,     3.35,     6.38
