Radius (km), Mean (m/s), NE (m/s), SE (m/s), SW (m/s), NW (m/s)
        0.0,       0.00,     0.00,     0.00,     0.00,     0.00
        1.0,       1.61,     1.65,     1.55,     1.57,     1.67
        2.0,       2.85,     2.89,     2.78,     2.80,     2.91
        3.0,       3.97,     4.02,     3.90,     3.93,     4.04
        4.0,       5.03,     5.07,     4.97,     4.99,     5.09
        5.0,       6.04,     6.07,     6.00,     6.02,     6.09
        6.0,       7.02,     7.04,     6.99,     7.01,     7.05
        7.0,       7.97,     7.98,     7.96,     7.97,     7.98
        8.0,       8.90,     8.89,     8.91,     8.91,     8.88
        9.0,       9.80,     9.78,     9.84,     9.83,     9.76
       10.0,      10.69,    10.65,    10.75,    10.73,    10.63
       11.0,      11.56,    11.50,    11.65,    11.62,    11.47
       12.0,      12.42,    12.34,    12.53,    12.50,    12.30
       13.0,      13.26,    13.17,    13.40,    13.36,    13.12
       14.0,      14.10,    13.99,    14.27,    14.21,    13.92
       15.0,      14.92,    14.79,    15.12,    15.06,    14.72
       16.0,      15.73,    15.58,    15.96,    15.89,    15.50
       17.0,      16.54,    16.37,    16.80,    16.72,    16.28
       18.0,      17.34,    17.14,    17.63,    17.53,    17.04
       19.0,      18.12,    17.91,    18.45,    18.34,    17.80
       20.0,      18.90,    18.67,    19.26,    19.14,    18.55
       21.0,      19.68,    19.42,    20.07,    19.94,    19.29
       22.0,      20.45,    20.17,    20.87,    20.73,    20.02
       23.0,      21.21,    20.91,    21.66,    21.51,    20.75
       24.0,      21.96,    21.64,    22.45,    22.29,    21.47
       25.0,      22.71,    22.37,    23.24,    23.07,    22.19
       26.0,      23.46,    23.09,    24.02,    23.83,    22.90
       27.0,      24.20,    23.81,    24.79,    24.60,    23.60
       28.0,      24.93,    24.52,    25.56,    25.36,    24.30
       29.0,      25.67,    25.22,    26.33,    26.11,    25.00
       30.0,      26.39,    25.93,    27.09,    26.86,    25.69
       31.0,      27.12,    26.64,    27.85,    27.60,    26.38
       32.0,      27.86,    27.37,    28.64,    28.35,    27.07
       33.0,      28.64,    28.18,    29.48,    29.11,    27.77
       34.0,      29.47,    29.08,    30.39,    29.91,    28.52
       35.0,      30.39,    30.09,    31.38,    30.77,    29.32
       36.0,      31.38,    31.20,    32.45,    31.69,    30.17
       37.0,      32.43,    32.38,    33.57,    32.69,    31.08
       38.0,      33.50,    33.57,    34.69,    33.72,    32.01
       39.0,      34.54,    34.70,    35.78,    34.76,    32.94
       40.0,      35.51,    35.69,    36.77,    35.75,    33.81
       41.0,      36.34,    36.50,    37.61,    36.65,    34.59
       42.0,      37.00,    37.07,    38.28,    37.41,    35.25
       43.0,      37.47,    37.38,    38.74,    37.99,    35.76
       44.0,      37.74,    37.45,    39.01,    38.38,    36.12
       45.0,      37.83,    37.29,    39.11,    38.57,    36.33
       46.0,      37.76,    36.97,    39.06,    38.61,    36.41
       47.0,      37.58,    36.52,    38.91,    38.51,    36.39
       48.0,      37.33,    36.02,    38.71,    38.31,    36.31
       49.0,      37.05,    35.48,    38.48,    38.06,    36.19
       50.0,      36.77,    34.96,    38.24,    37.80,    36.06
       51.0,      36.49,    34.46,    38.02,    37.54,    35.94
       52.0,      36.23,    33.99,    37.80,    37.29,    35.82
       53.0,      35.98,    33.53,    37.60,    37.06,    35.72
       54.0,      35.73,    33.09,    37.39,    36.84,    35.61
       55.0,      35.49,    32.66,    37.19,    36.62,    35.51
       56.0,      35.26,    32.24,    36.98,    36.40,    35.41
       57.0,      35.03,    31.83,    36.78,    36.18,    35.31
       58.0,      34.80,    31.44,    36.58,    35.97,    35.21
       59.0,      34.57,    31.05,    36.39,    35.75,    35.11
       60.0,      34.35,    30.68,    36.19,    35.54,    35.00
       61.0,      34.14,    30.31,    36.00,    35.33,    34.90
       62.0,      33.92,    29.96,    35.81,    35.12,    34.80
       63.0,      33.71,    29.61,    35.62,    34.91,    34.70
       64.0,      33.50,    29.28,    35.43,    34.71,    34.61
       65.0,      33.30,    28.95,    35.24,    34.50,    34.51
       66.0,      33.10,    28.63,    35.06,    34.30,    34.41
       67.0,      32.90,    28.32,    34.87,    34.10,    34.31
       68.0,      32.71,    28.02,    34.69,    33.90,    34.21
       69.0,      32.51,    27.73,    34.51,    33.70,    34.11
       70.0,      32.33,    27.45,    34.33,    33.50,    34.01
       71.0,      32.14,    27.17,    34.16,    33.31,    33.92
       72.0,      31.95,    26.90,    33.98,    33.12,    33.82
       73.0,      31.77,    26.64,    33.81,    32.92,    33.72
       74.0,      31.60,    26.39,    33.64,    32.73,    33.63
       75.0,      31.42,    26.14,    33.46,    32.54,    33.53
       76.0,      31.25,    25.90,    33.29,    32.36,    33.43
       77.0,      31.07,    25.66,    33.13,    32.17,    33.34
       78.0,      30.91,    25.43,    32.96,    31.98,    33.24
       79.0,      30.74,    25.21,    32.80,    31.80,    33.15
       80.0,      30.57,    24.99,    32.63,    31.62,    33.05
       81.0,      30.41,    24.78,    32.47,    31.44,    32.96
       82.0,      30.25,    24.58,    32.31,    31.26,    32.86
       83.0,      30.09,    24.38,    32.15,    31.08,    32.77
       84.0,      29.94,    24.18,    31.99,    30.90,    32.68
       85.0,      29.78,    23.99,    31.84,    30.73,    32.58
       86.0,      29.63,    23.81,    31.68,    30.55,    32.49
       87.0,      29.48,    23.63,    31.53,    30.38,    32.40
       88.0,      29.33,    23.45,    31.37,    30.21,    32.30
       89.0,      29.19,    23.28,    31.22,    30.04,    32.21
       90.0,      29.04,    23.12,    31.07,    29.87,    32.12
       91.0,      28.90,    22.96,    30.92,    29.70,    32.03
       92.0,      28.76,    22.80,    30.78,    29.53,    31.94
       93.0,      28.62,    22.64,    30.63,    29.37,    31.85
       94.0,      28.48,    22.50,    30.49,    29.20,    31.75
       95.0,      28.35,    22.35,    30.34,    29.04,    31.66
       96.0,      28.21,    22.21,    30.20,    28.88,    31.57
       97.0,      28.08,    22.07,    30.06,    28.71,    31.48
       98.0,      27.95,    21.93,    29.92,    28.56,    31.39
       99.0,      27.82,    21.80,    29.78,    28.40,    31.30
      100.0,      27.69,    21.67,    29.64,    28.24,    31.21
      101.0,      27.57,    21.55,    29.51,    28.08,    31.12
      102.0,      27.44,    21.43,    29.37,    27.93,    31.04
      103.0,      27.32,    21.31,    29.24,    27.77,    30.95
      104.0,      27.19,    21.19,    29.11,    27.62,    30.86
      105.0,      27.07,    21.08,    28.97,    27.47,    30.77
      106.0,      26.95,    20.97,    28.84,    27.32,    30.68
      107.0,      26.83,    20.86,    28.71,    27.17,    30.60
      108.0,      26.72,    20.75,    28.59,    27.02,    30.51
      109.0,      26.60,    20.65,    28.46,    26.87,    30.42
      110.0,      26.49,    20.55,    28.33,    26.73,    30.33
      111.0,      26.37,    20.45,    28.21,    26.58,    30.25
      112.0,      26.26,    20.36,    28.08,    26.44,    30.16
      113.0,      26.15,    20.27,    27.96,    26.30,    30.08
      114.0,      26.04,    20.17,    27.84,    26.15,    29.99
      115.0,      25.93,    20.09,    27.72,    26.01,    29.90
      116.0,      25.82,    20.00,    27.60,    25.87,    29.82
      117.0,      25.72,    19.91,    27.48,    25.74,    29.73
      118.0,      25.61,    19.83,    27.36,    25.60,    29.65
      119.0,      25.50,    19.75,    27.24,    25.46,    29.56
      120.0,      25.40,    19.67,    27.13,    25.33,    29.48
      121.0,      25.30,    19.59,    27.01,    25.19,    29.40
      122.0,      25.20,    19.52,    26.90,    25.06,    29.31
      123.0,      25.10,    19.44,    26.79,    24.92,    29.23
      124.0,      25.00,    19.37,    26.67,    24.79,    29.15
      125.0,      24.90,    19.30,    26.56,    24.66,    29.06
      126.0,      24.80,    19.23,    26.45,    24.53,    28.98
      127.0,      24.70,    19.16,    26.34,    24.40,    28.90
      128.0,      24.61,    19.10,    26.23,    24.27,    28.81
      129.0,      24.51,    19.03,    26.13,    24.15,    28.73
      130.0,      24.42,    18.97,    26.02,    24.02,    28.65
      131.0,      24.32,    18.91,    25.91,    23.89,    28.57
      132.0,      24.23,    18.85,    25.81,    23.77,    28.49
      133.0,      24.14,    18.79,    25.71,    23.65,    28.41
      134.0,      24.05,    18.73,    25.60,    23.52,    28.33
      135.0,      23.96,    18.67,    25.50,    23.40,    28.24
      136.0,      23.87,    18.62,    25.40,    23.28,    28.16
      137.0,      23.78,    18.56,    25.30,    23.16,    28.08
      138.0,      23.69,    18.51,    25.20,    23.04,    28.00
      139.0,      23.60,    18.46,    25.10,    22.92,    27.92
      140.0,      23.51,    18.40,    25.00,    22.81,    27.84
      141.0,      23.43,    18.35,    24.90,    22.69,    27.77
      142.0,      23.34,    18.30,    24.81,    22.57,    27.69
      143.0,      23.26,    18.26,    24.71,    22.46,    27.61
      144.0,      23.17,    18.21,    24.62,    22.34,    27.53
      145.0,      23.09,    18.16,    24.52,    22.23,    27.45
      146.0,      23.01,    18.12,    24.43,    22.12,    27.37
      147.0,      22.93,    18.07,    24.34,    22.01,    27.30
      148.0,      22.85,    18.03,    24.24,    21.90,    27.22
      149.0,      22.77,    17.98,    24.15,    21.79,    27.14
      150.0,      22.69,    17.94,    24.06,    21.68,    27.06
      151.0,      22.61,    17.90,    23.97,    21.57,    26.99
      152.0,      22.53,    17.86,    23.88,    21.46,    26.91
      153.0,      22.45,    17.82,    23.80,    21.35,    26.83
      154.0,      22.37,    17.78,    23.71,    21.25,    26.76
      155.0,      22.30,    17.74,    23.62,    21.14,    26.68
      156.0,      22.22,    17.70,    23.54,    21.04,    26.60
      157.0,      22.14,    17.66,    23.45,    20.93,    26.53
      158.0,      22.07,    17.62,    23.37,    20.83,    26.45
      159.0,      21.99,    17.59,    23.28,    20.73,    26.38
      160.0,      21.92,    17.55,    23.20,    20.62,    26.30
      161.0,      21.85,    17.52,    23.12,    20.52,    26.23
      162.0,      21.77,    17.48,    23.03,    20.42,    26.15
      163.0,      21.70,    17.45,    22.95,    20.32,    26.08
      164.0,      21.63,    17.41,    22.87,    20.22,    26.01
      165.0,      21.56,    17.38,    22.79,    20.13,    25.93
      166.0,      21.49,    17.35,    22.71,    20.03,    25.86
      167.0,      21.42,    17.32,    22.63,    19.93,    25.78
      168.0,      21.35,    17.28,    22.55,    19.84,    25.71
      169.0,      21.28,    17.25,    22.48,    19.74,    25.64
      170.0,      21.21,    17.22,    22.40,    19.64,    25.57
      171.0,      21.14,    17.19,    22.32,    19.55,    25.49
      172.0,      21.07,    17.16,    22.25,    19.46,    25.42
      173.0,      21.00,    17.13,    22.17,    19.36,    25.35
      174.0,      20.94,    17.10,    22.10,    19.27,    25.28
      175.0,      20.87,    17.07,    22.02,    19.18,    25.20
      176.0,      20.80,    17.04,    21.95,    19.09,    25.13
      177.0,      20.74,    17.02,    21.88,    19.00,    25.06
      178.0,      20.67,    16.99,    21.80,    18.91,    24.99
      179.0,      20.61,    16.96,    21.73,    18.82,    24.92
      180.0,      20.54,    16.93,    21.66,    18.73,    24.85
      181.0,      20.48,    16.91,    21.59,    18.64,    24.78
      182.0,      20.42,    16.88,    21.52,    18.56,    24.71
      183.0,      20.35,    16.85,    21.45,    18.47,    24.64
      184.0,      20.29,    16.83,    21.38,    18.38,    24.57
      185.0,      20.23,    16.80,    21.31,    18.30,    24.50
      186.0,      20.17,    16.78,    21.25,    18.21,    24.43
      187.0,      20.10,    16.75,    21.18,    18.13,    24.36
      188.0,      20.04,    16.73,    21.11,    18.04,    24.29
      189.0,      19.98,    16.70,    21.04,    17.96,    24.22
      190.0,      19.92,    16.68,    20.98,    17.88,    24.15
      191.0,      19.86,    16.65,    20.91,    17.80,    24.08
      192.0,      19.80,    16.63,    20.85,    17.72,    24.02
      193.0,      19.74,    16.61,    20.78,    17.63,    23.95
      194.0,      19.68,    16.58,    20.72,    17.55,    23.88
      195.0,      19.63,    16.56,    20.66,    17.47,    23.81
      196.0,      19.57,    16.54,    20.59,    17.40,    23.75
      197.0,      19.51,    16.51,    20.53,    17.32,    23.68
      198.0,      19.45,    16.49,    20.47,    17.24,    23.61
      199.0,      19.39,    16.47,    20.41,    17.16,    23.54
      200.0,      19.34,    16.45,    20.35,    17.08,    23.48
      201.0,      19.28,    16.42,    20.28,    17.01,    23.41
      202.0,      19.23,    16.40,    20.22,    16.93,    23.34
      203.0,      19.17,    16.38,    20.16,    16.86,    23.28
      204.0,      19.11,    16.36,    20.11,    16.78,    23.21
      205.0,      19.06,    16.34,    20.05,    16.71,    23.15
      206.0,      19.00,    16.32,    19.99,    16.63,    23.08
      207.0,      18.95,    16.30,    19.93,    16.56,    23.02
      208.0,      18.90,    16.28,    19.87,    16.49,    22.95
      209.0,      18.84,    16.25,    19.81,    16.41,    22.89
      210.0,      18.79,    16.23,    19.76,    16.34,    22.82
      211.0,      18.74,    16.21,    19.70,    16.27,    22.76
      212.0,      18.68,    16.19,    19.65,    16.20,    22.69
      213.0,      18.63,    16.17,    19.59,    16.13,    22.63
      214.0,      18.58,    16.15,    19.53,    16.06,    22.56
      215.0,      18.53,    16.13,    19.48,    15.99,    22.50
      216.0,      18.47,    16.11,    19.43,    15.92,    22.44
      217.0,      18.42,    16.09,    19.37,    15.85,    22.37
      218.0,      18.37,    16.07,    19.32,    15.78,    22.31
      219.0,      18.32,    16.06,    19.26,    15.71,    22.25
      220.0,      18.27,    16.04,    19.21,    15.65,    22.18
      221.0,      18.22,    16.02,    19.16,    15.58,    22.12
      222.0,      18.17,    16.00,    19.11,    15.51,    22.06
      223.0,      18.12,    15.98,    19.06,    15.45,    22.00
      224.0,      18.07,    15.96,    19.00,    15.38,    21.93
      225.0,      18.02,    15.94,    18.95,    15.32,    21.87
      226.0,      17.97,    15.92,    18.90,    15.25,    21.81
      227.0,      17.92,    15.90,    18.85,    15.19,    21.75
      228.0,      17.87,    15.89,    18.80,    15.12,    21.69
      229.0,      17.83,    15.87,    18.75,    15.06,    21.63
      230.0,      17.78,    15.85,    18.70,    15.00,    21.56
      231.0,      17.73,    15.83,    18.65,    14.93,    21.50
      232.0,      17.68,    15.81,    18.61,    14.87,    21.44
      233.0,      17.64,    15.80,    18.56,    14.81,    21.38
      234.0,      17.59,    15.78,    18.51,    14.75,    21.32
      235.0,      17.54,    15.76,    18.46,    14.69,    21.26
      236.0,      17.50,    15.74,    18.42,    14.63,    21.20
      237.0,      17.45,    15.72,    18.37,    14.57,    21.14
      238.0,      17.40,    15.71,    18.32,    14.51,    21.08
      239.0,      17.36,    15.69,    18.28,    14.45,    21.02
      240.0,      17.31,    15.67,    18.23,    14.39,    20.96
      241.0,      17.27,    15.65,    18.18,    14.33,    20.90
      242.0,      17.22,    15.64,    18.14,    14.27,    20.84
      243.0,      17.18,    15.62,    18.09,    14.21,    20.79
      244.0,      17.13,    15.60,    18.05,    14.16,    20.73
      245.0,      17.09,    15.59,    18.00,    14.10,    20.67
      246.0,      17.05,    15.57,    17.96,    14.04,    20.61
      247.0,      17.00,    15.55,    17.92,    13.99,    20.55
      248.0,      16.96,    15.53,    17.87,    13.93,    20.49
      249.0,      16.91,    15.52,    17.83,    13.87,    20.44
      250.0,      16.87,    15.50,    17.79,    13.82,    20.38
      251.0,      16.83,    15.48,    17.74,    13.76,    20.32
      252.0,      16.79,    15.47,    17.70,    13.71,    20.26
      253.0,      16.74,    15.45,    17.66,    13.65,    20.21
      254.0,      16.70,    15.43,    17.62,    13.60,    20.15
      255.0,      16.66,    15.42,    17.58,    13.55,    20.09
      256.0,      16.62,    15.40,    17.54,    13.49,    20.04
      257.0,      16.57,    15.38,    17.49,    13.44,    19.98
      258.0,      16.53,    15.37,    17.45,    13.39,    19.92
      259.0,      16.49,    15.35,    17.41,    13.34,    19.87
      260.0,      16.45,    15.34,    17.37,    13.28,    19.81
      261.0,      16.41,    15.32,    17.33,    13.23,    19.75
      262.0,      16.37,    15.30,    17.29,    13.18,    19.70
      263.0,      16.33,    15.29,    17.25,    13.13,    19.64
      264.0,      16.29,    15.27,    17.21,    13.08,    19.59
      265.0,      16.25,    15.25,    17.18,    13.03,    19.53
      266.0,      16.21,    15.24,    17.14,    12.98,    19.48
      267.0,      16.17,    15.22,    17.10,    12.93,    19.42
      268.0,      16.13,    15.21,    17.06,    12.88,    19.37
      269.0,      16.09,    15.19,    17.02,    12.83,    19.31
      270.0,      16.05,    15.17,    16.98,    12.78,    19.26
      271.0,      16.01,    15.16,    16.95,    12.73,    19.20
      272.0,      15.97,    15.14,    16.91,    12.69,    19.15
      273.0,      15.93,    15.13,    16.87,    12.64,    19.10
      274.0,      15.90,    15.11,    16.84,    12.59,    19.04
      275.0,      15.86,    15.10,    16.80,    12.54,    18.99
      276.0,      15.82,    15.08,    16.76,    12.50,    18.94
      277.0,      15.78,    15.06,    16.73,    12.45,    18.88
      278.0,      15.74,    15.05,    16.69,    12.40,    18.83
      279.0,      15.71,    15.03,    16.66,    12.36,    18.78
      280.0,      15.67,    15.02,    16.62,    12.31,    18.72
      281.0,      15.63,    15.00,    16.59,    12.27,    18.67
      282.0,      15.59,    14.99,    16.55,    12.22,    18.62
      283.0,      15.56,    14.97,    16.52,    12.18,    18.56
      284.0,      15.52,    14.96,    16.48,    12.13,    18.51
      285.0,      15.48,    14.94,    16.45,    12.09,    18.46
      286.0,      15.45,    14.92,    16.41,    12.04,    18.41
      287.0,      15.41,    14.91,    16.38,    12.00,    18.36
      288.0,      15.38,    14.89,    16.35,    11.96,    18.31
      289.0,      15.34,    14.88,    16.31,    11.91,    18.25
      290.0,      15.30,    14.86,    16.28,    11.87,    18.20
      291.0,      15.27,    14.85,    16.25,    11.83,    18.15
      292.0,      15.23,    14.83,    16.21,    11.78,    18.10
      293.0,      15.20,    14.82,    16.18,    11.74,    18.05
      294.0,      15.16,    14.80,    16.15,    11.70,    18.00
      295.0,      15.13,    14.79,    16.11,    11.66,    17.95
      296.0,      15.09,    14.77,    16.08,    11.62,    17.90
      297.0,      15.06,    14.76,    16.05,    11.58,    17.85
      298.0,      15.02,    14.74,    16.02,    11.53,    17.80
      299.0,      14.99,    14.73,    15.99,    11.49,    17.75
      300.0,      14.95,    14.71,    15.96,    11.45,    17.70
      301.0,      14.92,    14.70,    15.92,    11.41,    17.65
      302.0,      14.89,    14.68,    15.89,    11.37,    17.60
      303.0,      14.85,    14.67,    15.86,    11.33,    17.55
      304.0,      14.82,    14.65,    15.83,    11.29,    17.50
      305.0,      14.79,    14.64,    15.80,    11.25,    17.45
      306.0,      14.75,    14.62,    15.77,    11.22,    17.40
      307.0,      14.72,    14.61,    15.74,    11.18,    17.35
      308.0,      14.69,    14.59,    15.71,    11.14,    17.30
      309.0,      14.65,    14.58,    15.68,    11.10,    17.25
      310.0,      14.62,    14.56,    15.65,    11.06,    17.20
