Radius (km), Mean (m/s), NE (m/s), SE (m/s), SW (m/s), NW (m/s)
        0.0,       0.00,     0.00,     0.00,     0.00,     0.00
        1.0,       1.64,     0.98,     1.61,     2.03,     1.95
        2.0,       3.92,     2.84,     3.92,     4.51,     4.42
        3.0,       6.60,     5.36,     6.62,     7.22,     7.19
        4.0,       9.71,     8.65,     9.73,    10.15,    10.30
        5.0,      13.38,    12.90,    13.35,    13.40,    13.88
        6.0,      17.75,    18.30,    17.62,    17.07,    18.01
        7.0,      22.88,    24.94,    22.61,    21.25,    22.74
        8.0,      28.74,    32.73,    28.29,    25.93,    28.01
        9.0,      35.15,    41.40,    34.52,    31.04,    33.63
       10.0,      41.81,    50.52,    41.02,    36.36,    39.35
       11.0,      48.38,    59.53,    47.46,    41.65,    44.88
       12.0,      54.46,    67.87,    53.47,    46.62,    49.89
       13.0,      59.71,    75.02,    58.70,    50.98,    54.14
       14.0,      63.86,    80.59,    62.89,    54.53,    57.42
       15.0,      66.76,    84.38,    65.88,    57.11,    59.66
       16.0,      68.40,    86.38,    67.65,    58.70,    60.88
       17.0,      68.90,    86.75,    68.30,    59.36,    61.19
       18.0,      68.47,    85.81,    68.03,    59.24,    60.79
       19.0,      67.37,    83.96,    67.08,    58.54,    59.90
       20.0,      65.88,    81.59,    65.73,    57.47,    58.73
       21.0,      64.24,    79.04,    64.22,    56.24,    57.47
       22.0,      62.61,    76.54,    62.71,    54.99,    56.22
       23.0,      61.07,    74.18,    61.28,    53.81,    55.03
       24.0,      59.64,    71.98,    59.95,    52.71,    53.92
       25.0,      58.28,    69.89,    58.71,    51.68,    52.85
       26.0,      56.98,    67.90,    57.52,    50.71,    51.81
       27.0,      55.73,    65.97,    56.36,    49.76,    50.80
       28.0,      54.51,    64.13,    55.26,    48.85,    49.82
       29.0,      53.34,    62.35,    54.19,    47.97,    48.87
       30.0,      52.22,    60.64,    53.15,    47.12,    47.95
       31.0,      51.13,    59.00,    52.16,    46.30,    47.05
       32.0,      50.08,    57.42,    51.20,    45.51,    46.18
       33.0,      49.06,    55.90,    50.27,    44.74,    45.34
       34.0,      48.08,    54.44,    49.38,    44.00,    44.52
       35.0,      47.14,    53.03,    48.51,    43.28,    43.72
       36.0,      46.22,    51.68,    47.68,    42.59,    42.95
       37.0,      45.34,    50.38,    46.87,    41.92,    42.20
       38.0,      44.49,    49.13,    46.10,    41.27,    41.47
       39.0,      43.67,    47.93,    45.35,    40.65,    40.76
       40.0,      42.88,    46.77,    44.62,    40.04,    40.07
       41.0,      42.11,    45.66,    43.92,    39.45,    39.40
       42.0,      41.37,    44.59,    43.24,    38.89,    38.75
       43.0,      40.65,    43.56,    42.59,    38.33,    38.12
       44.0,      39.96,    42.57,    41.96,    37.80,    37.51
       45.0,      39.29,    41.61,    41.35,    37.29,    36.91
       46.0,      38.64,    40.70,    40.75,    36.78,    36.34
       47.0,      38.02,    39.81,    40.18,    36.30,    35.77
       48.0,      37.41,    38.96,    39.63,    35.83,    35.23
       49.0,      36.83,    38.15,    39.09,    35.37,    34.70
       50.0,      36.26,    37.36,    38.58,    34.93,    34.18
       51.0,      35.72,    36.60,    38.08,    34.50,    33.68
       52.0,      35.19,    35.87,    37.59,    34.09,    33.20
       53.0,      34.67,    35.17,    37.12,    33.68,    32.72
       54.0,      34.18,    34.50,    36.66,    33.29,    32.26
       55.0,      33.70,    33.85,    36.22,    32.91,    31.82
       56.0,      33.23,    33.22,    35.80,    32.54,    31.38
       57.0,      32.79,    32.62,    35.38,    32.18,    30.96
       58.0,      32.35,    32.04,    34.98,    31.83,    30.55
       59.0,      31.93,    31.48,    34.59,    31.49,    30.15
       60.0,      31.52,    30.94,    34.21,    31.16,    29.76
       61.0,      31.12,    30.42,    33.84,    30.84,    29.39
       62.0,      30.74,    29.92,    33.49,    30.53,    29.02
       63.0,      30.37,    29.44,    33.14,    30.22,    28.66
       64.0,      30.01,    28.97,    32.81,    29.93,    28.32
       65.0,      29.66,    28.53,    32.48,    29.64,    27.98
       66.0,      29.32,    28.10,    32.16,    29.36,    27.65
       67.0,      28.99,    27.68,    31.86,    29.09,    27.33
       68.0,      28.67,    27.28,    31.56,    28.82,    27.02
       69.0,      28.36,    26.89,    31.27,    28.56,    26.72
       70.0,      28.06,    26.52,    30.98,    28.30,    26.43
       71.0,      27.77,    26.16,    30.71,    28.06,    26.14
       72.0,      27.48,    25.82,    30.44,    27.82,    25.86
       73.0,      27.21,    25.48,    30.18,    27.58,    25.59
       74.0,      26.94,    25.16,    29.92,    27.35,    25.33
       75.0,      26.68,    24.85,    29.68,    27.12,    25.07
       76.0,      26.43,    24.55,    29.44,    26.90,    24.82
       77.0,      26.18,    24.26,    29.20,    26.69,    24.58
       78.0,      25.94,    23.98,    28.97,    26.48,    24.34
       79.0,      25.71,    23.71,    28.75,    26.27,    24.11
       80.0,      25.49,    23.45,    28.53,    26.07,    23.89
       81.0,      25.27,    23.20,    28.32,    25.88,    23.67
       82.0,      25.05,    22.96,    28.11,    25.68,    23.46
       83.0,      24.84,    22.73,    27.90,    25.49,    23.25
       84.0,      24.64,    22.50,    27.71,    25.31,    23.05
       85.0,      24.44,    22.28,    27.51,    25.13,    22.85
       86.0,      24.25,    22.07,    27.32,    24.95,    22.66
       87.0,      24.06,    21.86,    27.14,    24.78,    22.47
       88.0,      23.88,    21.67,    26.95,    24.60,    22.29
       89.0,      23.70,    21.47,    26.78,    24.44,    22.11
       90.0,      23.53,    21.29,    26.60,    24.27,    21.94
       91.0,      23.36,    21.11,    26.43,    24.11,    21.77
       92.0,      23.19,    20.94,    26.27,    23.95,    21.61
       93.0,      23.03,    20.77,    26.10,    23.80,    21.45
       94.0,      22.87,    20.61,    25.94,    23.64,    21.29
       95.0,      22.72,    20.45,    25.78,    23.49,    21.14
       96.0,      22.56,    20.30,    25.63,    23.34,    20.99
       97.0,      22.42,    20.15,    25.48,    23.20,    20.84
       98.0,      22.27,    20.01,    25.33,    23.06,    20.70
       99.0,      22.13,    19.87,    25.18,    22.91,    20.56
      100.0,      21.99,    19.73,    25.04,    22.78,    20.43
      101.0,      21.86,    19.60,    24.90,    22.64,    20.29
      102.0,      21.73,    19.48,    24.76,    22.50,    20.16
      103.0,      21.60,    19.36,    24.63,    22.37,    20.04
      104.0,      21.47,    19.24,    24.49,    22.24,    19.92
      105.0,      21.35,    19.12,    24.36,    22.11,    19.80
      106.0,      21.23,    19.01,    24.23,    21.99,    19.68
      107.0,      21.11,    18.90,    24.10,    21.86,    19.56
      108.0,      20.99,    18.79,    23.98,    21.74,    19.45
      109.0,      20.88,    18.69,    23.86,    21.62,    19.34
      110.0,      20.76,    18.59,    23.73,    21.49,    19.23
      111.0,      20.65,    18.49,    23.61,    21.38,    19.13
      112.0,      20.54,    18.40,    23.50,    21.26,    19.03
      113.0,      20.44,    18.30,    23.38,    21.14,    18.93
      114.0,      20.33,    18.21,    23.26,    21.03,    18.83
      115.0,      20.23,    18.13,    23.15,    20.92,    18.73
      116.0,      20.13,    18.04,    23.04,    20.80,    18.64
      117.0,      20.03,    17.96,    22.93,    20.69,    18.55
      118.0,      19.93,    17.88,    22.82,    20.58,    18.46
      119.0,      19.84,    17.80,    22.71,    20.48,    18.37
      120.0,      19.74,    17.72,    22.61,    20.37,    18.28
      121.0,      19.65,    17.65,    22.50,    20.26,    18.20
      122.0,      19.56,    17.57,    22.40,    20.16,    18.11
      123.0,      19.47,    17.50,    22.29,    20.06,    18.03
      124.0,      19.38,    17.43,    22.19,    19.95,    17.95
      125.0,      19.30,    17.36,    22.09,    19.85,    17.87
      126.0,      19.21,    17.29,    21.99,    19.75,    17.80
      127.0,      19.12,    17.23,    21.90,    19.65,    17.72
      128.0,      19.04,    17.16,    21.80,    19.56,    17.65
      129.0,      18.96,    17.10,    21.70,    19.46,    17.57
      130.0,      18.88,    17.04,    21.61,    19.36,    17.50
      131.0,      18.80,    16.98,    21.51,    19.27,    17.43
      132.0,      18.72,    16.92,    21.42,    19.17,    17.37
      133.0,      18.64,    16.86,    21.33,    19.08,    17.30
      134.0,      18.56,    16.81,    21.24,    18.98,    17.23
      135.0,      18.49,    16.75,    21.15,    18.89,    17.17
      136.0,      18.41,    16.70,    21.06,    18.80,    17.10
      137.0,      18.34,    16.64,    20.97,    18.71,    17.04
      138.0,      18.27,    16.59,    20.88,    18.62,    16.98
      139.0,      18.19,    16.54,    20.79,    18.53,    16.92
      140.0,      18.12,    16.49,    20.71,    18.44,    16.86
      141.0,      18.05,    16.44,    20.62,    18.35,    16.80
      142.0,      17.98,    16.39,    20.53,    18.27,    16.74
      143.0,      17.91,    16.34,    20.45,    18.18,    16.69
      144.0,      17.85,    16.29,    20.37,    18.09,    16.63
      145.0,      17.78,    16.24,    20.28,    18.01,    16.58
      146.0,      17.71,    16.20,    20.20,    17.92,    16.52
      147.0,      17.64,    16.15,    20.12,    17.84,    16.47
      148.0,      17.58,    16.11,    20.04,    17.76,    16.42
      149.0,      17.51,    16.06,    19.96,    17.67,    16.36
      150.0,      17.45,    16.02,    19.88,    17.59,    16.31
      151.0,      17.39,    15.98,    19.80,    17.51,    16.26
      152.0,      17.32,    15.94,    19.72,    17.43,    16.21
      153.0,      17.26,    15.89,    19.64,    17.35,    16.16
      154.0,      17.20,    15.85,    19.56,    17.27,    16.12
      155.0,      17.14,    15.81,    19.48,    17.19,    16.07
      156.0,      17.08,    15.77,    19.41,    17.11,    16.02
      157.0,      17.02,    15.73,    19.33,    17.03,    15.97
      158.0,      16.96,    15.69,    19.25,    16.95,    15.93
      159.0,      16.90,    15.65,    19.18,    16.88,    15.88
      160.0,      16.84,    15.61,    19.10,    16.80,    15.84
      161.0,      16.78,    15.58,    19.03,    16.72,    15.80
      162.0,      16.72,    15.54,    18.95,    16.65,    15.75
      163.0,      16.67,    15.50,    18.88,    16.57,    15.71
      164.0,      16.61,    15.46,    18.81,    16.50,    15.67
      165.0,      16.55,    15.43,    18.73,    16.42,    15.62
      166.0,      16.50,    15.39,    18.66,    16.35,    15.58
      167.0,      16.44,    15.36,    18.59,    16.27,    15.54
      168.0,      16.38,    15.32,    18.52,    16.20,    15.50
      169.0,      16.33,    15.29,    18.45,    16.13,    15.46
      170.0,      16.28,    15.25,    18.38,    16.05,    15.42
      171.0,      16.22,    15.22,    18.30,    15.98,    15.38
      172.0,      16.17,    15.18,    18.23,    15.91,    15.34
      173.0,      16.11,    15.15,    18.16,    15.84,    15.31
      174.0,      16.06,    15.11,    18.10,    15.77,    15.27
      175.0,      16.01,    15.08,    18.03,    15.70,    15.23
      176.0,      15.96,    15.05,    17.96,    15.63,    15.19
      177.0,      15.90,    15.01,    17.89,    15.56,    15.16
      178.0,      15.85,    14.98,    17.82,    15.49,    15.12
      179.0,      15.80,    14.95,    17.75,    15.42,    15.08
      180.0,      15.75,    14.92,    17.69,    15.35,    15.05
      181.0,      15.70,    14.88,    17.62,    15.28,    15.01
      182.0,      15.65,    14.85,    17.55,    15.21,    14.98
      183.0,      15.60,    14.82,    17.49,    15.14,    14.94
      184.0,      15.55,    14.79,    17.42,    15.08,    14.91
      185.0,      15.50,    14.76,    17.35,    15.01,    14.87
      186.0,      15.45,    14.73,    17.29,    14.94,    14.84
      187.0,      15.40,    14.70,    17.22,    14.88,    14.80
      188.0,      15.35,    14.67,    17.16,    14.81,    14.77
      189.0,      15.30,    14.64,    17.09,    14.75,    14.74
      190.0,      15.25,    14.60,    17.03,    14.68,    14.70
      191.0,      15.21,    14.57,    16.97,    14.62,    14.67
      192.0,      15.16,    14.54,    16.90,    14.55,    14.64
      193.0,      15.11,    14.51,    16.84,    14.49,    14.61
      194.0,      15.06,    14.48,    16.78,    14.42,    14.57
      195.0,      15.02,    14.46,    16.71,    14.36,    14.54
      196.0,      14.97,    14.43,    16.65,    14.30,    14.51
      197.0,      14.92,    14.40,    16.59,    14.23,    14.48
      198.0,      14.88,    14.37,    16.53,    14.17,    14.45
      199.0,      14.83,    14.34,    16.47,    14.11,    14.42
      200.0,      14.79,    14.31,    16.40,    14.05,    14.39
      201.0,      14.74,    14.28,    16.34,    13.98,    14.35
      202.0,      14.69,    14.25,    16.28,    13.92,    14.32
      203.0,      14.65,    14.22,    16.22,    13.86,    14.29
      204.0,      14.60,    14.19,    16.16,    13.80,    14.26
      205.0,      14.56,    14.17,    16.10,    13.74,    14.23
      206.0,      14.52,    14.14,    16.04,    13.68,    14.20
      207.0,      14.47,    14.11,    15.98,    13.62,    14.17
      208.0,      14.43,    14.08,    15.92,    13.56,    14.15
      209.0,      14.38,    14.05,    15.86,    13.50,    14.12
      210.0,      14.34,    14.03,    15.80,    13.44,    14.09
      211.0,      14.30,    14.00,    15.74,    13.38,    14.06
      212.0,      14.25,    13.97,    15.69,    13.32,    14.03
      213.0,      14.21,    13.94,    15.63,    13.26,    14.00
      214.0,      14.17,    13.92,    15.57,    13.21,    13.97
      215.0,      14.12,    13.89,    15.51,    13.15,    13.94
      216.0,      14.08,    13.86,    15.45,    13.09,    13.92
      217.0,      14.04,    13.83,    15.40,    13.03,    13.89
      218.0,      14.00,    13.81,    15.34,    12.98,    13.86
      219.0,      13.95,    13.78,    15.28,    12.92,    13.83
      220.0,      13.91,    13.75,    15.23,    12.86,    13.80
      221.0,      13.87,    13.73,    15.17,    12.81,    13.78
      222.0,      13.83,    13.70,    15.11,    12.75,    13.75
      223.0,      13.79,    13.67,    15.06,    12.69,    13.72
      224.0,      13.75,    13.65,    15.00,    12.64,    13.69
      225.0,      13.70,    13.62,    14.95,    12.58,    13.67
      226.0,      13.66,    13.59,    14.89,    12.53,    13.64
      227.0,      13.62,    13.57,    14.84,    12.47,    13.61
      228.0,      13.58,    13.54,    14.78,    12.42,    13.59
      229.0,      13.54,    13.51,    14.73,    12.36,    13.56
      230.0,      13.50,    13.49,    14.67,    12.31,    13.53
      231.0,      13.46,    13.46,    14.62,    12.26,    13.51
      232.0,      13.42,    13.44,    14.56,    12.20,    13.48
      233.0,      13.38,    13.41,    14.51,    12.15,    13.45
      234.0,      13.34,    13.38,    14.46,    12.10,    13.43
      235.0,      13.30,    13.36,    14.40,    12.04,    13.40
      236.0,      13.26,    13.33,    14.35,    11.99,    13.38
      237.0,      13.22,    13.31,    14.30,    11.94,    13.35
      238.0,      13.18,    13.28,    14.24,    11.89,    13.32
      239.0,      13.15,    13.26,    14.19,    11.83,    13.30
      240.0,      13.11,    13.23,    14.14,    11.78,    13.27
      241.0,      13.07,    13.20,    14.09,    11.73,    13.25
      242.0,      13.03,    13.18,    14.04,    11.68,    13.22
      243.0,      12.99,    13.15,    13.98,    11.63,    13.20
      244.0,      12.95,    13.13,    13.93,    11.58,    13.17
      245.0,      12.91,    13.10,    13.88,    11.53,    13.15
      246.0,      12.88,    13.08,    13.83,    11.48,    13.12
      247.0,      12.84,    13.05,    13.78,    11.43,    13.10
      248.0,      12.80,    13.03,    13.73,    11.38,    13.07
      249.0,      12.76,    13.00,    13.68,    11.33,    13.05
      250.0,      12.73,    12.98,    13.63,    11.28,    13.02
      251.0,      12.69,    12.95,    13.58,    11.23,    13.00
      252.0,      12.65,    12.93,    13.53,    11.18,    12.97
      253.0,      12.62,    12.90,    13.48,    11.13,    12.95
      254.0,      12.58,    12.88,    13.43,    11.08,    12.92
      255.0,      12.54,    12.85,    13.38,    11.03,    12.90
      256.0,      12.50,    12.83,    13.33,    10.99,    12.87
      257.0,      12.47,    12.81,    13.28,    10.94,    12.85
      258.0,      12.43,    12.78,    13.23,    10.89,    12.83
      259.0,      12.40,    12.76,    13.18,    10.84,    12.80
      260.0,      12.36,    12.73,    13.13,    10.80,    12.78
      261.0,      12.32,    12.71,    13.09,    10.75,    12.75
      262.0,      12.29,    12.68,    13.04,    10.70,    12.73
      263.0,      12.25,    12.66,    12.99,    10.65,    12.71
      264.0,      12.22,    12.64,    12.94,    10.61,    12.68
      265.0,      12.18,    12.61,    12.89,    10.56,    12.66
      266.0,      12.15,    12.59,    12.85,    10.52,    12.64
      267.0,      12.11,    12.56,    12.80,    10.47,    12.61
      268.0,      12.08,    12.54,    12.75,    10.42,    12.59
      269.0,      12.04,    12.52,    12.70,    10.38,    12.56
      270.0,      12.01,    12.49,    12.66,    10.33,    12.54
      271.0,      11.97,    12.47,    12.61,    10.29,    12.52
      272.0,      11.94,    12.44,    12.56,    10.24,    12.49
      273.0,      11.90,    12.42,    12.52,    10.20,    12.47
      274.0,      11.87,    12.40,    12.47,    10.15,    12.45
      275.0,      11.83,    12.37,    12.43,    10.11,    12.42
      276.0,      11.80,    12.35,    12.38,    10.07,    12.40
      277.0,      11.77,    12.33,    12.34,    10.02,    12.38
      278.0,      11.73,    12.30,    12.29,     9.98,    12.36
      279.0,      11.70,    12.28,    12.24,     9.94,    12.33
      280.0,      11.66,    12.26,    12.20,     9.89,    12.31
      281.0,      11.63,    12.23,    12.15,     9.85,    12.29
      282.0,      11.60,    12.21,    12.11,     9.81,    12.26
      283.0,      11.56,    12.19,    12.07,     9.76,    12.24
      284.0,      11.53,    12.16,    12.02,     9.72,    12.22
      285.0,      11.50,    12.14,    11.98,     9.68,    12.20
      286.0,      11.46,    12.12,    11.93,     9.64,    12.17
      287.0,      11.43,    12.09,    11.89,     9.59,    12.15
      288.0,      11.40,    12.07,    11.85,     9.55,    12.13
      289.0,      11.37,    12.05,    11.80,     9.51,    12.11
      290.0,      11.33,    12.03,    11.76,     9.47,    12.08
      291.0,      11.30,    12.00,    11.72,     9.43,    12.06
      292.0,      11.27,    11.98,    11.67,     9.39,    12.04
      293.0,      11.24,    11.96,    11.63,     9.35,    12.02
      294.0,      11.21,    11.93,    11.59,     9.31,    12.00
      295.0,      11.17,    11.91,    11.54,     9.26,    11.97
      296.0,      11.14,    11.89,    11.50,     9.22,    11.95
      297.0,      11.11,    11.87,    11.46,     9.18,    11.93
      298.0,      11.08,    11.84,    11.42,     9.14,    11.91
      299.0,      11.05,    11.82,    11.37,     9.10,    11.89
      300.0,      11.01,    11.80,    11.33,     9.06,    11.86
      301.0,      10.98,    11.78,    11.29,     9.03,    11.84
      302.0,      10.95,    11.75,    11.25,     8.99,    11.82
      303.0,      10.92,    11.73,    11.21,     8.95,    11.80
      304.0,      10.89,    11.71,    11.17,     8.91,    11.78
      305.0,      10.86,    11.69,    11.13,     8.87,    11.75
      306.0,      10.83,    11.66,    11.09,     8.83,    11.73
      307.0,      10.80,    11.64,    11.04,     8.79,    11.71
      308.0,      10.77,    11.62,    11.00,     8.75,    11.69
      309.0,      10.74,    11.60,    10.96,     8.72,    11.67
      310.0,      10.71,    11.58,    10.92,     8.68,    11.65
