Radius (km), Mean (m/s), NE (m/s), SE (m/s), SW (m/s), NW (m/s)
        0.0,       0.00,     0.00,     0.00,     0.00,     0.00
        1.0,       3.10,     2.80,     3.14,     3.31,     3.14
        2.0,       5.35,     5.29,     5.49,     5.12,     5.49
        3.0,       7.39,     7.69,     7.64,     6.62,     7.63
        4.0,       9.34,    10.06,     9.68,     7.94,     9.67
        5.0,      11.28,    12.52,    11.73,     9.18,    11.71
        6.0,      13.31,    15.15,    13.86,    10.41,    13.83
        7.0,      15.48,    18.02,    16.13,    11.66,    16.10
        8.0,      17.80,    21.14,    18.55,    12.97,    18.53
        9.0,      20.23,    24.46,    21.07,    14.32,    21.09
       10.0,      22.71,    27.86,    23.61,    15.69,    23.69
       11.0,      25.11,    31.17,    26.06,    17.01,    26.21
       12.0,      27.32,    34.23,    28.29,    18.23,    28.51
       13.0,      29.21,    36.86,    30.21,    19.28,    30.49
       14.0,      30.70,    38.93,    31.72,    20.12,    32.03
       15.0,      31.73,    40.37,    32.78,    20.69,    33.09
       16.0,      32.30,    41.17,    33.38,    21.01,    33.65
       17.0,      32.45,    41.37,    33.58,    21.09,    33.77
       18.0,      32.24,    41.08,    33.43,    20.95,    33.50
       19.0,      31.77,    40.43,    33.04,    20.66,    32.96
       20.0,      31.15,    39.56,    32.50,    20.27,    32.26
       21.0,      30.45,    38.59,    31.89,    19.83,    31.48
       22.0,      29.75,    37.61,    31.29,    19.39,    30.69
       23.0,      29.08,    36.69,    30.71,    18.96,    29.95
       24.0,      28.45,    35.83,    30.17,    18.56,    29.25
       25.0,      27.87,    35.02,    29.67,    18.18,    28.60
       26.0,      27.31,    34.25,    29.19,    17.83,    27.98
       27.0,      26.78,    33.51,    28.72,    17.49,    27.38
       28.0,      26.26,    32.80,    28.27,    17.16,    26.81
       29.0,      25.76,    32.11,    27.84,    16.84,    26.25
       30.0,      25.28,    31.45,    27.42,    16.54,    25.72
       31.0,      24.82,    30.81,    27.01,    16.25,    25.21
       32.0,      24.37,    30.19,    26.62,    15.96,    24.71
       33.0,      23.94,    29.60,    26.24,    15.69,    24.23
       34.0,      23.53,    29.03,    25.88,    15.43,    23.77
       35.0,      23.13,    28.48,    25.52,    15.17,    23.33
       36.0,      22.74,    27.95,    25.18,    14.93,    22.90
       37.0,      22.37,    27.44,    24.85,    14.69,    22.49
       38.0,      22.01,    26.95,    24.53,    14.46,    22.10
       39.0,      21.66,    26.47,    24.23,    14.24,    21.71
       40.0,      21.33,    26.02,    23.93,    14.03,    21.34
       41.0,      21.01,    25.57,    23.64,    13.82,    20.99
       42.0,      20.69,    25.15,    23.36,    13.62,    20.65
       43.0,      20.39,    24.74,    23.09,    13.43,    20.32
       44.0,      20.10,    24.34,    22.82,    13.25,    20.00
       45.0,      19.82,    23.96,    22.57,    13.07,    19.69
       46.0,      19.55,    23.59,    22.32,    12.90,    19.39
       47.0,      19.29,    23.23,    22.09,    12.73,    19.11
       48.0,      19.03,    22.89,    21.85,    12.57,    18.83
       49.0,      18.79,    22.56,    21.63,    12.41,    18.56
       50.0,      18.55,    22.23,    21.41,    12.26,    18.30
       51.0,      18.32,    21.92,    21.20,    12.11,    18.06
       52.0,      18.10,    21.63,    21.00,    11.97,    17.82
       53.0,      17.89,    21.34,    20.80,    11.84,    17.58
       54.0,      17.68,    21.06,    20.61,    11.70,    17.36
       55.0,      17.48,    20.79,    20.42,    11.58,    17.14
       56.0,      17.29,    20.53,    20.24,    11.45,    16.93
       57.0,      17.10,    20.27,    20.06,    11.33,    16.73
       58.0,      16.92,    20.03,    19.89,    11.22,    16.54
       59.0,      16.74,    19.79,    19.72,    11.10,    16.35
       60.0,      16.57,    19.56,    19.56,    10.99,    16.16
       61.0,      16.40,    19.34,    19.40,    10.89,    15.99
       62.0,      16.24,    19.13,    19.25,    10.79,    15.82
       63.0,      16.09,    18.92,    19.10,    10.69,    15.65
       64.0,      15.94,    18.72,    18.95,    10.59,    15.49
       65.0,      15.79,    18.53,    18.81,    10.50,    15.33
       66.0,      15.65,    18.34,    18.67,    10.41,    15.18
       67.0,      15.51,    18.16,    18.54,    10.32,    15.04
       68.0,      15.38,    17.98,    18.40,    10.23,    14.90
       69.0,      15.25,    17.81,    18.28,    10.15,    14.76
       70.0,      15.12,    17.64,    18.15,    10.07,    14.63
       71.0,      15.00,    17.48,    18.03,     9.99,    14.50
       72.0,      14.88,    17.33,    17.91,     9.91,    14.37
       73.0,      14.76,    17.17,    17.79,     9.84,    14.25
       74.0,      14.65,    17.03,    17.68,     9.76,    14.14
       75.0,      14.54,    16.88,    17.57,     9.69,    14.02
       76.0,      14.44,    16.74,    17.46,     9.63,    13.91
       77.0,      14.33,    16.61,    17.35,     9.56,    13.80
       78.0,      14.23,    16.48,    17.25,     9.49,    13.70
       79.0,      14.13,    16.35,    17.15,     9.43,    13.60
       80.0,      14.04,    16.23,    17.05,     9.37,    13.50
       81.0,      13.94,    16.11,    16.95,     9.31,    13.40
       82.0,      13.85,    15.99,    16.86,     9.25,    13.31
       83.0,      13.76,    15.88,    16.76,     9.19,    13.22
       84.0,      13.68,    15.76,    16.67,     9.14,    13.13
       85.0,      13.59,    15.66,    16.58,     9.08,    13.05
       86.0,      13.51,    15.55,    16.49,     9.03,    12.96
       87.0,      13.43,    15.45,    16.41,     8.98,    12.88
       88.0,      13.35,    15.35,    16.32,     8.92,    12.80
       89.0,      13.27,    15.25,    16.24,     8.87,    12.72
       90.0,      13.20,    15.15,    16.16,     8.83,    12.65
       91.0,      13.12,    15.06,    16.08,     8.78,    12.57
       92.0,      13.05,    14.97,    16.00,     8.73,    12.50
       93.0,      12.98,    14.88,    15.92,     8.69,    12.43
       94.0,      12.91,    14.79,    15.85,     8.64,    12.36
       95.0,      12.84,    14.71,    15.77,     8.60,    12.30
       96.0,      12.78,    14.63,    15.70,     8.55,    12.23
       97.0,      12.71,    14.55,    15.62,     8.51,    12.17
       98.0,      12.65,    14.47,    15.55,     8.47,    12.11
       99.0,      12.59,    14.39,    15.48,     8.43,    12.04
      100.0,      12.52,    14.31,    15.41,     8.39,    11.98
      101.0,      12.46,    14.24,    15.34,     8.35,    11.93
      102.0,      12.41,    14.17,    15.28,     8.31,    11.87
      103.0,      12.35,    14.09,    15.21,     8.27,    11.81
      104.0,      12.29,    14.02,    15.14,     8.24,    11.76
      105.0,      12.23,    13.96,    15.08,     8.20,    11.70
      106.0,      12.18,    13.89,    15.02,     8.16,    11.65
      107.0,      12.13,    13.82,    14.95,     8.13,    11.60
      108.0,      12.07,    13.76,    14.89,     8.09,    11.55
      109.0,      12.02,    13.69,    14.83,     8.06,    11.50
      110.0,      11.97,    13.63,    14.77,     8.03,    11.45
      111.0,      11.92,    13.57,    14.71,     7.99,    11.40
      112.0,      11.87,    13.51,    14.65,     7.96,    11.35
      113.0,      11.82,    13.45,    14.59,     7.93,    11.31
      114.0,      11.77,    13.39,    14.53,     7.90,    11.26
      115.0,      11.72,    13.33,    14.47,     7.87,    11.22
      116.0,      11.68,    13.28,    14.42,     7.83,    11.17
      117.0,      11.63,    13.22,    14.36,     7.80,    11.13
      118.0,      11.58,    13.17,    14.31,     7.77,    11.08
      119.0,      11.54,    13.11,    14.25,     7.74,    11.04
      120.0,      11.49,    13.06,    14.20,     7.71,    11.00
      121.0,      11.45,    13.01,    14.14,     7.69,    10.96
      122.0,      11.41,    12.96,    14.09,     7.66,    10.92
      123.0,      11.36,    12.91,    14.04,     7.63,    10.88
      124.0,      11.32,    12.86,    13.98,     7.60,    10.84
      125.0,      11.28,    12.81,    13.93,     7.57,    10.80
      126.0,      11.24,    12.76,    13.88,     7.55,    10.76
      127.0,      11.20,    12.71,    13.83,     7.52,    10.72
      128.0,      11.15,    12.66,    13.78,     7.49,    10.69
      129.0,      11.11,    12.61,    13.73,     7.47,    10.65
      130.0,      11.07,    12.57,    13.68,     7.44,    10.61
      131.0,      11.04,    12.52,    13.63,     7.41,    10.58
      132.0,      11.00,    12.48,    13.58,     7.39,    10.54
      133.0,      10.96,    12.43,    13.53,     7.36,    10.51
      134.0,      10.92,    12.39,    13.48,     7.34,    10.47
      135.0,      10.88,    12.34,    13.44,     7.31,    10.44
      136.0,      10.84,    12.30,    13.39,     7.29,    10.40
      137.0,      10.81,    12.26,    13.34,     7.26,    10.37
      138.0,      10.77,    12.21,    13.29,     7.24,    10.34
      139.0,      10.73,    12.17,    13.25,     7.21,    10.30
      140.0,      10.70,    12.13,    13.20,     7.19,    10.27
      141.0,      10.66,    12.09,    13.15,     7.17,    10.24
      142.0,      10.63,    12.05,    13.11,     7.14,    10.21
      143.0,      10.59,    12.01,    13.06,     7.12,    10.17
      144.0,      10.56,    11.97,    13.02,     7.10,    10.14
      145.0,      10.52,    11.92,    12.97,     7.07,    10.11
      146.0,      10.49,    11.89,    12.93,     7.05,    10.08
      147.0,      10.45,    11.85,    12.88,     7.03,    10.05
      148.0,      10.42,    11.81,    12.84,     7.01,    10.02
      149.0,      10.38,    11.77,    12.80,     6.98,     9.99
      150.0,      10.35,    11.73,    12.75,     6.96,     9.96
      151.0,      10.32,    11.69,    12.71,     6.94,     9.93
      152.0,      10.28,    11.65,    12.67,     6.92,     9.90
      153.0,      10.25,    11.62,    12.62,     6.89,     9.87
      154.0,      10.22,    11.58,    12.58,     6.87,     9.84
      155.0,      10.19,    11.54,    12.54,     6.85,     9.81
      156.0,      10.15,    11.51,    12.50,     6.83,     9.78
      157.0,      10.12,    11.47,    12.46,     6.81,     9.76
      158.0,      10.09,    11.43,    12.41,     6.79,     9.73
      159.0,      10.06,    11.40,    12.37,     6.77,     9.70
      160.0,      10.03,    11.36,    12.33,     6.75,     9.67
      161.0,      10.00,    11.33,    12.29,     6.72,     9.64
      162.0,       9.96,    11.29,    12.25,     6.70,     9.62
      163.0,       9.93,    11.25,    12.21,     6.68,     9.59
      164.0,       9.90,    11.22,    12.17,     6.66,     9.56
      165.0,       9.87,    11.18,    12.13,     6.64,     9.53
      166.0,       9.84,    11.15,    12.09,     6.62,     9.51
      167.0,       9.81,    11.12,    12.05,     6.60,     9.48
      168.0,       9.78,    11.08,    12.01,     6.58,     9.45
      169.0,       9.75,    11.05,    11.97,     6.56,     9.43
      170.0,       9.72,    11.01,    11.93,     6.54,     9.40
      171.0,       9.69,    10.98,    11.89,     6.52,     9.37
      172.0,       9.66,    10.95,    11.85,     6.50,     9.35
      173.0,       9.63,    10.91,    11.81,     6.48,     9.32
      174.0,       9.60,    10.88,    11.77,     6.46,     9.30
      175.0,       9.57,    10.85,    11.73,     6.44,     9.27
      176.0,       9.55,    10.82,    11.70,     6.43,     9.24
      177.0,       9.52,    10.78,    11.66,     6.41,     9.22
      178.0,       9.49,    10.75,    11.62,     6.39,     9.19
      179.0,       9.46,    10.72,    11.58,     6.37,     9.17
      180.0,       9.43,    10.69,    11.54,     6.35,     9.14
      181.0,       9.40,    10.65,    11.51,     6.33,     9.12
      182.0,       9.37,    10.62,    11.47,     6.31,     9.09
      183.0,       9.35,    10.59,    11.43,     6.29,     9.07
      184.0,       9.32,    10.56,    11.39,     6.27,     9.04
      185.0,       9.29,    10.53,    11.36,     6.25,     9.02
      186.0,       9.26,    10.50,    11.32,     6.24,     8.99
      187.0,       9.23,    10.46,    11.28,     6.22,     8.97
      188.0,       9.21,    10.43,    11.25,     6.20,     8.94
      189.0,       9.18,    10.40,    11.21,     6.18,     8.92
      190.0,       9.15,    10.37,    11.17,     6.16,     8.90
      191.0,       9.12,    10.34,    11.14,     6.14,     8.87
      192.0,       9.10,    10.31,    11.10,     6.13,     8.85
      193.0,       9.07,    10.28,    11.07,     6.11,     8.82
      194.0,       9.04,    10.25,    11.03,     6.09,     8.80
      195.0,       9.02,    10.22,    11.00,     6.07,     8.78
      196.0,       8.99,    10.19,    10.96,     6.05,     8.75
      197.0,       8.96,    10.16,    10.92,     6.04,     8.73
      198.0,       8.94,    10.13,    10.89,     6.02,     8.71
      199.0,       8.91,    10.10,    10.85,     6.00,     8.68
      200.0,       8.88,    10.07,    10.82,     5.98,     8.66
      201.0,       8.86,    10.04,    10.78,     5.97,     8.64
      202.0,       8.83,    10.01,    10.75,     5.95,     8.61
      203.0,       8.81,     9.98,    10.72,     5.93,     8.59
      204.0,       8.78,     9.95,    10.68,     5.91,     8.57
      205.0,       8.75,     9.92,    10.65,     5.90,     8.54
      206.0,       8.73,     9.90,    10.61,     5.88,     8.52
      207.0,       8.70,     9.87,    10.58,     5.86,     8.50
      208.0,       8.68,     9.84,    10.54,     5.85,     8.48
      209.0,       8.65,     9.81,    10.51,     5.83,     8.45
      210.0,       8.63,     9.78,    10.48,     5.81,     8.43
      211.0,       8.60,     9.75,    10.44,     5.79,     8.41
      212.0,       8.57,     9.72,    10.41,     5.78,     8.39
      213.0,       8.55,     9.70,    10.38,     5.76,     8.36
      214.0,       8.52,     9.67,    10.34,     5.74,     8.34
      215.0,       8.50,     9.64,    10.31,     5.73,     8.32
      216.0,       8.47,     9.61,    10.28,     5.71,     8.30
      217.0,       8.45,     9.58,    10.24,     5.69,     8.28
      218.0,       8.42,     9.56,    10.21,     5.68,     8.25
      219.0,       8.40,     9.53,    10.18,     5.66,     8.23
      220.0,       8.38,     9.50,    10.15,     5.64,     8.21
      221.0,       8.35,     9.47,    10.11,     5.63,     8.19
      222.0,       8.33,     9.45,    10.08,     5.61,     8.17
      223.0,       8.30,     9.42,    10.05,     5.60,     8.14
      224.0,       8.28,     9.39,    10.02,     5.58,     8.12
      225.0,       8.25,     9.36,     9.98,     5.56,     8.10
      226.0,       8.23,     9.34,     9.95,     5.55,     8.08
      227.0,       8.21,     9.31,     9.92,     5.53,     8.06
      228.0,       8.18,     9.28,     9.89,     5.52,     8.04
      229.0,       8.16,     9.26,     9.86,     5.50,     8.02
      230.0,       8.13,     9.23,     9.82,     5.48,     8.00
      231.0,       8.11,     9.20,     9.79,     5.47,     7.97
      232.0,       8.09,     9.18,     9.76,     5.45,     7.95
      233.0,       8.06,     9.15,     9.73,     5.44,     7.93
      234.0,       8.04,     9.12,     9.70,     5.42,     7.91
      235.0,       8.02,     9.10,     9.67,     5.40,     7.89
      236.0,       7.99,     9.07,     9.64,     5.39,     7.87
      237.0,       7.97,     9.05,     9.61,     5.37,     7.85
      238.0,       7.95,     9.02,     9.58,     5.36,     7.83
      239.0,       7.92,     8.99,     9.55,     5.34,     7.81
      240.0,       7.90,     8.97,     9.52,     5.33,     7.79
      241.0,       7.88,     8.94,     9.48,     5.31,     7.77
      242.0,       7.85,     8.92,     9.45,     5.30,     7.75
      243.0,       7.83,     8.89,     9.42,     5.28,     7.73
      244.0,       7.81,     8.86,     9.39,     5.27,     7.71
      245.0,       7.78,     8.84,     9.36,     5.25,     7.69
      246.0,       7.76,     8.81,     9.33,     5.23,     7.66
      247.0,       7.74,     8.79,     9.30,     5.22,     7.64
      248.0,       7.72,     8.76,     9.27,     5.20,     7.62
      249.0,       7.69,     8.74,     9.25,     5.19,     7.60
      250.0,       7.67,     8.71,     9.22,     5.17,     7.58
      251.0,       7.65,     8.69,     9.19,     5.16,     7.56
      252.0,       7.63,     8.66,     9.16,     5.14,     7.54
      253.0,       7.60,     8.64,     9.13,     5.13,     7.52
      254.0,       7.58,     8.61,     9.10,     5.11,     7.50
      255.0,       7.56,     8.59,     9.07,     5.10,     7.49
      256.0,       7.54,     8.56,     9.04,     5.09,     7.47
      257.0,       7.52,     8.54,     9.01,     5.07,     7.45
      258.0,       7.49,     8.51,     8.98,     5.06,     7.43
      259.0,       7.47,     8.49,     8.95,     5.04,     7.41
      260.0,       7.45,     8.47,     8.93,     5.03,     7.39
      261.0,       7.43,     8.44,     8.90,     5.01,     7.37
      262.0,       7.41,     8.42,     8.87,     5.00,     7.35
      263.0,       7.39,     8.39,     8.84,     4.98,     7.33
      264.0,       7.36,     8.37,     8.81,     4.97,     7.31
      265.0,       7.34,     8.34,     8.78,     4.95,     7.29
      266.0,       7.32,     8.32,     8.76,     4.94,     7.27
      267.0,       7.30,     8.30,     8.73,     4.93,     7.25
      268.0,       7.28,     8.27,     8.70,     4.91,     7.23
      269.0,       7.26,     8.25,     8.67,     4.90,     7.21
      270.0,       7.24,     8.23,     8.64,     4.88,     7.20
      271.0,       7.22,     8.20,     8.62,     4.87,     7.18
      272.0,       7.20,     8.18,     8.59,     4.86,     7.16
      273.0,       7.17,     8.16,     8.56,     4.84,     7.14
      274.0,       7.15,     8.13,     8.53,     4.83,     7.12
      275.0,       7.13,     8.11,     8.51,     4.81,     7.10
      276.0,       7.11,     8.09,     8.48,     4.80,     7.08
      277.0,       7.09,     8.06,     8.45,     4.79,     7.06
      278.0,       7.07,     8.04,     8.43,     4.77,     7.05
      279.0,       7.05,     8.02,     8.40,     4.76,     7.03
      280.0,       7.03,     7.99,     8.37,     4.74,     7.01
      281.0,       7.01,     7.97,     8.35,     4.73,     6.99
      282.0,       6.99,     7.95,     8.32,     4.72,     6.97
      283.0,       6.97,     7.92,     8.29,     4.70,     6.95
      284.0,       6.95,     7.90,     8.27,     4.69,     6.94
      285.0,       6.93,     7.88,     8.24,     4.68,     6.92
      286.0,       6.91,     7.86,     8.21,     4.66,     6.90
      287.0,       6.89,     7.83,     8.19,     4.65,     6.88
      288.0,       6.87,     7.81,     8.16,     4.64,     6.86
      289.0,       6.85,     7.79,     8.14,     4.62,     6.85
      290.0,       6.83,     7.77,     8.11,     4.61,     6.83
      291.0,       6.81,     7.74,     8.08,     4.60,     6.81
      292.0,       6.79,     7.72,     8.06,     4.58,     6.79
      293.0,       6.77,     7.70,     8.03,     4.57,     6.77
      294.0,       6.75,     7.68,     8.01,     4.56,     6.76
      295.0,       6.73,     7.66,     7.98,     4.54,     6.74
      296.0,       6.71,     7.63,     7.96,     4.53,     6.72
      297.0,       6.69,     7.61,     7.93,     4.52,     6.70
      298.0,       6.67,     7.59,     7.91,     4.50,     6.69
      299.0,       6.65,     7.57,     7.88,     4.49,     6.67
      300.0,       6.63,     7.55,     7.85,     4.48,     6.65
      301.0,       6.61,     7.52,     7.83,     4.47,     6.63
      302.0,       6.59,     7.50,     7.80,     4.45,     6.62
      303.0,       6.57,     7.48,     7.78,     4.44,     6.60
      304.0,       6.56,     7.46,     7.75,     4.43,     6.58
      305.0,       6.54,     7.44,     7.73,     4.41,     6.56
      306.0,       6.52,     7.42,     7.71,     4.40,     6.55
      307.0,       6.50,     7.40,     7.68,     4.39,     6.53
      308.0,       6.48,     7.38,     7.66,     4.38,     6.51
      309.0,       6.46,     7.35,     7.63,     4.36,     6.49
      310.0,       6.44,     7.33,     7.61,     4.35,     6.48
