Radius (km), Mean (m/s), NE (m/s), SE (m/s), SW (m/s), NW (m/s)
        0.0,       0.00,     0.00,     0.00,     0.00,     0.00
        1.0,       1.19,     0.66,     1.11,     1.57,     1.41
        2.0,       2.56,     1.72,     2.48,     3.13,     2.91
        3.0,       4.03,     3.00,     3.97,     4.69,     4.46
        4.0,       5.57,     4.46,     5.54,     6.25,     6.04
        5.0,       7.17,     6.06,     7.18,     7.81,     7.63
        6.0,       8.82,     7.80,     8.87,     9.37,     9.25
        7.0,      10.51,     9.64,    10.61,    10.93,    10.88
        8.0,      12.24,    11.59,    12.38,    12.49,    12.51
        9.0,      14.01,    13.63,    14.20,    14.04,    14.16
       10.0,      15.80,    15.75,    16.04,    15.60,    15.82
       11.0,      17.63,    17.96,    17.92,    17.15,    17.49
       12.0,      19.49,    20.25,    19.82,    18.71,    19.17
       13.0,      21.37,    22.61,    21.75,    20.26,    20.85
       14.0,      23.27,    25.04,    23.70,    21.82,    22.54
       15.0,      25.21,    27.54,    25.70,    23.37,    24.24
       16.0,      27.22,    30.15,    27.83,    24.94,    25.95
       17.0,      29.37,    33.00,    30.21,    26.55,    27.72
       18.0,      31.77,    36.24,    32.93,    28.29,    29.63
       19.0,      34.50,    39.97,    36.07,    30.21,    31.75
       20.0,      37.59,    44.26,    39.61,    32.36,    34.13
       21.0,      40.99,    49.04,    43.44,    34.73,    36.76
       22.0,      44.58,    54.13,    47.37,    37.24,    39.56
       23.0,      48.17,    59.28,    51.18,    39.79,    42.43
       24.0,      51.56,    64.16,    54.63,    42.24,    45.19
       25.0,      54.53,    68.47,    57.50,    44.44,    47.68
       26.0,      56.90,    71.95,    59.64,    46.26,    49.74
       27.0,      58.55,    74.40,    60.95,    47.59,    51.26
       28.0,      59.44,    75.76,    61.44,    48.39,    52.18
       29.0,      59.61,    76.07,    61.20,    48.66,    52.51
       30.0,      59.15,    75.46,    60.37,    48.47,    52.30
       31.0,      58.21,    74.16,    59.11,    47.90,    51.66
       32.0,      56.95,    72.40,    57.62,    47.08,    50.72
       33.0,      55.54,    70.41,    56.03,    46.11,    49.61
       34.0,      54.10,    68.37,    54.46,    45.10,    48.46
       35.0,      52.71,    66.42,    52.97,    44.12,    47.33
       36.0,      51.40,    64.58,    51.56,    43.19,    46.27
       37.0,      50.17,    62.86,    50.22,    42.32,    45.28
       38.0,      49.01,    61.23,    48.93,    41.50,    44.36
       39.0,      47.89,    59.67,    47.70,    40.72,    43.47
       40.0,      46.81,    58.16,    46.52,    39.96,    42.61
       41.0,      45.77,    56.71,    45.38,    39.22,    41.78
       42.0,      44.78,    55.32,    44.28,    38.52,    40.99
       43.0,      43.82,    53.98,    43.23,    37.83,    40.22
       44.0,      42.89,    52.69,    42.21,    37.17,    39.49
       45.0,      42.00,    51.45,    41.24,    36.53,    38.77
       46.0,      41.14,    50.26,    40.30,    35.91,    38.09
       47.0,      40.31,    49.11,    39.40,    35.32,    37.43
       48.0,      39.52,    48.01,    38.54,    34.74,    36.79
       49.0,      38.75,    46.94,    37.71,    34.18,    36.17
       50.0,      38.01,    45.92,    36.91,    33.65,    35.58
       51.0,      37.30,    44.94,    36.14,    33.12,    35.01
       52.0,      36.62,    43.99,    35.40,    32.62,    34.45
       53.0,      35.96,    43.08,    34.68,    32.13,    33.92
       54.0,      35.32,    42.20,    34.00,    31.66,    33.41
       55.0,      34.71,    41.36,    33.34,    31.21,    32.91
       56.0,      34.11,    40.55,    32.71,    30.77,    32.43
       57.0,      33.54,    39.76,    32.10,    30.34,    31.97
       58.0,      32.99,    39.01,    31.51,    29.93,    31.52
       59.0,      32.47,    38.29,    30.95,    29.53,    31.09
       60.0,      31.95,    37.59,    30.41,    29.15,    30.67
       61.0,      31.46,    36.92,    29.89,    28.77,    30.27
       62.0,      30.99,    36.27,    29.38,    28.41,    29.88
       63.0,      30.53,    35.65,    28.90,    28.06,    29.51
       64.0,      30.09,    35.05,    28.44,    27.72,    29.14
       65.0,      29.66,    34.47,    27.99,    27.40,    28.79
       66.0,      29.25,    33.91,    27.56,    27.08,    28.45
       67.0,      28.85,    33.37,    27.15,    26.77,    28.12
       68.0,      28.47,    32.86,    26.75,    26.47,    27.81
       69.0,      28.10,    32.36,    26.36,    26.18,    27.50
       70.0,      27.74,    31.88,    25.99,    25.90,    27.20
       71.0,      27.40,    31.41,    25.64,    25.63,    26.91
       72.0,      27.07,    30.97,    25.30,    25.37,    26.63
       73.0,      26.75,    30.54,    24.97,    25.11,    26.36
       74.0,      26.43,    30.12,    24.65,    24.86,    26.10
       75.0,      26.14,    29.72,    24.35,    24.62,    25.85
       76.0,      25.85,    29.34,    24.05,    24.39,    25.60
       77.0,      25.57,    28.96,    23.77,    24.16,    25.36
       78.0,      25.29,    28.61,    23.50,    23.94,    25.13
       79.0,      25.03,    28.26,    23.23,    23.73,    24.91
       80.0,      24.78,    27.92,    22.98,    23.52,    24.69
       81.0,      24.54,    27.60,    22.74,    23.32,    24.48
       82.0,      24.30,    27.29,    22.50,    23.13,    24.28
       83.0,      24.07,    26.99,    22.28,    22.94,    24.08
       84.0,      23.85,    26.70,    22.06,    22.75,    23.88
       85.0,      23.63,    26.42,    21.85,    22.57,    23.70
       86.0,      23.43,    26.15,    21.65,    22.40,    23.51
       87.0,      23.23,    25.89,    21.45,    22.23,    23.34
       88.0,      23.03,    25.63,    21.26,    22.06,    23.16
       89.0,      22.84,    25.39,    21.08,    21.90,    23.00
       90.0,      22.66,    25.15,    20.91,    21.75,    22.83
       91.0,      22.48,    24.93,    20.74,    21.59,    22.67
       92.0,      22.31,    24.71,    20.57,    21.45,    22.52
       93.0,      22.14,    24.49,    20.42,    21.30,    22.37
       94.0,      21.98,    24.28,    20.26,    21.16,    22.22
       95.0,      21.83,    24.09,    20.12,    21.02,    22.08
       96.0,      21.67,    23.89,    19.98,    20.89,    21.94
       97.0,      21.53,    23.70,    19.84,    20.76,    21.80
       98.0,      21.38,    23.52,    19.71,    20.63,    21.67
       99.0,      21.24,    23.35,    19.58,    20.51,    21.54
      100.0,      21.11,    23.18,    19.46,    20.39,    21.42
      101.0,      20.98,    23.01,    19.34,    20.27,    21.29
      102.0,      20.85,    22.85,    19.23,    20.15,    21.17
      103.0,      20.73,    22.70,    19.12,    20.04,    21.05
      104.0,      20.61,    22.55,    19.01,    19.93,    20.94
      105.0,      20.49,    22.40,    18.90,    19.82,    20.83
      106.0,      20.37,    22.26,    18.80,    19.72,    20.72
      107.0,      20.26,    22.12,    18.71,    19.61,    20.61
      108.0,      20.16,    21.99,    18.61,    19.51,    20.50
      109.0,      20.05,    21.86,    18.52,    19.41,    20.40
      110.0,      19.95,    21.74,    18.44,    19.32,    20.30
      111.0,      19.85,    21.61,    18.35,    19.22,    20.20
      112.0,      19.75,    21.50,    18.27,    19.13,    20.10
      113.0,      19.65,    21.38,    18.19,    19.04,    20.01
      114.0,      19.56,    21.27,    18.11,    18.95,    19.92
      115.0,      19.47,    21.16,    18.04,    18.86,    19.82
      116.0,      19.38,    21.05,    17.96,    18.78,    19.73
      117.0,      19.30,    20.95,    17.89,    18.69,    19.65
      118.0,      19.21,    20.85,    17.83,    18.61,    19.56
      119.0,      19.13,    20.75,    17.76,    18.53,    19.47
      120.0,      19.05,    20.65,    17.70,    18.45,    19.39
      121.0,      18.97,    20.56,    17.63,    18.37,    19.31
      122.0,      18.89,    20.47,    17.57,    18.29,    19.23
      123.0,      18.82,    20.38,    17.51,    18.22,    19.15
      124.0,      18.74,    20.30,    17.46,    18.14,    19.07
      125.0,      18.67,    20.21,    17.40,    18.07,    18.99
      126.0,      18.60,    20.13,    17.35,    18.00,    18.91
      127.0,      18.53,    20.05,    17.30,    17.93,    18.84
      128.0,      18.46,    19.97,    17.25,    17.86,    18.77
      129.0,      18.39,    19.89,    17.20,    17.79,    18.69
      130.0,      18.33,    19.82,    17.15,    17.73,    18.62
      131.0,      18.26,    19.74,    17.10,    17.66,    18.55
      132.0,      18.20,    19.67,    17.05,    17.59,    18.48
      133.0,      18.14,    19.60,    17.01,    17.53,    18.41
      134.0,      18.08,    19.53,    16.97,    17.47,    18.34
      135.0,      18.02,    19.46,    16.92,    17.40,    18.28
      136.0,      17.96,    19.40,    16.88,    17.34,    18.21
      137.0,      17.90,    19.33,    16.84,    17.28,    18.15
      138.0,      17.84,    19.27,    16.80,    17.22,    18.08
      139.0,      17.79,    19.21,    16.76,    17.16,    18.02
      140.0,      17.73,    19.15,    16.73,    17.10,    17.95
      141.0,      17.68,    19.09,    16.69,    17.05,    17.89
      142.0,      17.62,    19.03,    16.65,    16.99,    17.83
      143.0,      17.57,    18.97,    16.62,    16.93,    17.77
      144.0,      17.52,    18.91,    16.58,    16.88,    17.71
      145.0,      17.47,    18.85,    16.55,    16.82,    17.65
      146.0,      17.42,    18.80,    16.52,    16.77,    17.59
      147.0,      17.37,    18.74,    16.49,    16.71,    17.53
      148.0,      17.32,    18.69,    16.45,    16.66,    17.47
      149.0,      17.27,    18.64,    16.42,    16.61,    17.41
      150.0,      17.22,    18.59,    16.39,    16.55,    17.36
      151.0,      17.18,    18.54,    16.36,    16.50,    17.30
      152.0,      17.13,    18.49,    16.33,    16.45,    17.24
      153.0,      17.08,    18.44,    16.31,    16.40,    17.19
      154.0,      17.04,    18.39,    16.28,    16.35,    17.13
      155.0,      16.99,    18.34,    16.25,    16.30,    17.08
      156.0,      16.95,    18.29,    16.22,    16.25,    17.02
      157.0,      16.90,    18.24,    16.20,    16.20,    16.97
      158.0,      16.86,    18.20,    16.17,    16.15,    16.92
      159.0,      16.82,    18.15,    16.14,    16.11,    16.86
      160.0,      16.77,    18.11,    16.12,    16.06,    16.81
      161.0,      16.73,    18.06,    16.09,    16.01,    16.76
      162.0,      16.69,    18.02,    16.07,    15.96,    16.71
      163.0,      16.65,    17.97,    16.04,    15.92,    16.66
      164.0,      16.61,    17.93,    16.02,    15.87,    16.60
      165.0,      16.57,    17.89,    16.00,    15.83,    16.55
      166.0,      16.52,    17.84,    15.97,    15.78,    16.50
      167.0,      16.48,    17.80,    15.95,    15.74,    16.45
      168.0,      16.45,    17.76,    15.93,    15.69,    16.40
      169.0,      16.41,    17.72,    15.90,    15.65,    16.35
      170.0,      16.37,    17.68,    15.88,    15.60,    16.30
      171.0,      16.33,    17.64,    15.86,    15.56,    16.26
      172.0,      16.29,    17.60,    15.84,    15.51,    16.21
      173.0,      16.25,    17.56,    15.82,    15.47,    16.16
      174.0,      16.21,    17.52,    15.80,    15.43,    16.11
      175.0,      16.18,    17.48,    15.77,    15.39,    16.06
      176.0,      16.14,    17.44,    15.75,    15.34,    16.02
      177.0,      16.10,    17.40,    15.73,    15.30,    15.97
      178.0,      16.06,    17.36,    15.71,    15.26,    15.92
      179.0,      16.03,    17.33,    15.69,    15.22,    15.87
      180.0,      15.99,    17.29,    15.67,    15.18,    15.83
      181.0,      15.96,    17.25,    15.65,    15.13,    15.78
      182.0,      15.92,    17.22,    15.63,    15.09,    15.74
      183.0,      15.88,    17.18,    15.61,    15.05,    15.69
      184.0,      15.85,    17.14,    15.60,    15.01,    15.64
      185.0,      15.81,    17.11,    15.58,    14.97,    15.60
      186.0,      15.78,    17.07,    15.56,    14.93,    15.55
      187.0,      15.74,    17.03,    15.54,    14.89,    15.51
      188.0,      15.71,    17.00,    15.52,    14.85,    15.46
      189.0,      15.67,    16.96,    15.50,    14.81,    15.42
      190.0,      15.64,    16.93,    15.48,    14.77,    15.37
      191.0,      15.61,    16.89,    15.47,    14.73,    15.33
      192.0,      15.57,    16.86,    15.45,    14.70,    15.29
      193.0,      15.54,    16.82,    15.43,    14.66,    15.24
      194.0,      15.50,    16.79,    15.41,    14.62,    15.20
      195.0,      15.47,    16.76,    15.39,    14.58,    15.16
      196.0,      15.44,    16.72,    15.38,    14.54,    15.11
      197.0,      15.40,    16.69,    15.36,    14.50,    15.07
      198.0,      15.37,    16.65,    15.34,    14.47,    15.03
      199.0,      15.34,    16.62,    15.32,    14.43,    14.98
      200.0,      15.31,    16.59,    15.31,    14.39,    14.94
      201.0,      15.27,    16.55,    15.29,    14.35,    14.90
      202.0,      15.24,    16.52,    15.27,    14.32,    14.86
      203.0,      15.21,    16.49,    15.26,    14.28,    14.81
      204.0,      15.18,    16.46,    15.24,    14.24,    14.77
      205.0,      15.14,    16.42,    15.22,    14.20,    14.73
      206.0,      15.11,    16.39,    15.21,    14.17,    14.69
      207.0,      15.08,    16.36,    15.19,    14.13,    14.65
      208.0,      15.05,    16.33,    15.17,    14.09,    14.61
      209.0,      15.02,    16.29,    15.16,    14.06,    14.56
      210.0,      14.99,    16.26,    15.14,    14.02,    14.52
      211.0,      14.96,    16.23,    15.12,    13.99,    14.48
      212.0,      14.92,    16.20,    15.11,    13.95,    14.44
      213.0,      14.89,    16.17,    15.09,    13.91,    14.40
      214.0,      14.86,    16.14,    15.07,    13.88,    14.36
      215.0,      14.83,    16.10,    15.06,    13.84,    14.32
      216.0,      14.80,    16.07,    15.04,    13.81,    14.28
      217.0,      14.77,    16.04,    15.03,    13.77,    14.24
      218.0,      14.74,    16.01,    15.01,    13.74,    14.20
      219.0,      14.71,    15.98,    14.99,    13.70,    14.16
      220.0,      14.68,    15.95,    14.98,    13.67,    14.12
      221.0,      14.65,    15.92,    14.96,    13.63,    14.08
      222.0,      14.62,    15.89,    14.95,    13.60,    14.04
      223.0,      14.59,    15.86,    14.93,    13.56,    14.00
      224.0,      14.56,    15.83,    14.92,    13.53,    13.96
      225.0,      14.53,    15.80,    14.90,    13.49,    13.92
      226.0,      14.50,    15.77,    14.88,    13.46,    13.89
      227.0,      14.47,    15.73,    14.87,    13.43,    13.85
      228.0,      14.44,    15.70,    14.85,    13.39,    13.81
      229.0,      14.41,    15.67,    14.84,    13.36,    13.77
      230.0,      14.38,    15.64,    14.82,    13.32,    13.73
      231.0,      14.35,    15.61,    14.81,    13.29,    13.69
      232.0,      14.32,    15.59,    14.79,    13.26,    13.65
      233.0,      14.29,    15.56,    14.78,    13.22,    13.62
      234.0,      14.26,    15.53,    14.76,    13.19,    13.58
      235.0,      14.24,    15.50,    14.75,    13.16,    13.54
      236.0,      14.21,    15.47,    14.73,    13.12,    13.50
      237.0,      14.18,    15.44,    14.72,    13.09,    13.47
      238.0,      14.15,    15.41,    14.70,    13.06,    13.43
      239.0,      14.12,    15.38,    14.69,    13.02,    13.39
      240.0,      14.09,    15.35,    14.67,    12.99,    13.35
      241.0,      14.06,    15.32,    14.66,    12.96,    13.32
      242.0,      14.03,    15.29,    14.64,    12.93,    13.28
      243.0,      14.01,    15.26,    14.63,    12.89,    13.24
      244.0,      13.98,    15.23,    14.61,    12.86,    13.21
      245.0,      13.95,    15.20,    14.60,    12.83,    13.17
      246.0,      13.92,    15.18,    14.58,    12.80,    13.13
      247.0,      13.89,    15.15,    14.57,    12.76,    13.10
      248.0,      13.87,    15.12,    14.55,    12.73,    13.06
      249.0,      13.84,    15.09,    14.54,    12.70,    13.02
      250.0,      13.81,    15.06,    14.52,    12.67,    12.99
      251.0,      13.78,    15.03,    14.51,    12.64,    12.95
      252.0,      13.75,    15.00,    14.49,    12.60,    12.92
      253.0,      13.73,    14.98,    14.48,    12.57,    12.88
      254.0,      13.70,    14.95,    14.46,    12.54,    12.84
      255.0,      13.67,    14.92,    14.45,    12.51,    12.81
      256.0,      13.64,    14.89,    14.43,    12.48,    12.77
      257.0,      13.62,    14.86,    14.42,    12.45,    12.74
      258.0,      13.59,    14.84,    14.40,    12.42,    12.70
      259.0,      13.56,    14.81,    14.39,    12.39,    12.67
      260.0,      13.54,    14.78,    14.37,    12.35,    12.63
      261.0,      13.51,    14.75,    14.36,    12.32,    12.60
      262.0,      13.48,    14.72,    14.35,    12.29,    12.56
      263.0,      13.45,    14.70,    14.33,    12.26,    12.53
      264.0,      13.43,    14.67,    14.32,    12.23,    12.49
      265.0,      13.40,    14.64,    14.30,    12.20,    12.46
      266.0,      13.37,    14.61,    14.29,    12.17,    12.42
      267.0,      13.35,    14.59,    14.27,    12.14,    12.39
      268.0,      13.32,    14.56,    14.26,    12.11,    12.36
      269.0,      13.29,    14.53,    14.24,    12.08,    12.32
      270.0,      13.27,    14.51,    14.23,    12.05,    12.29
      271.0,      13.24,    14.48,    14.22,    12.02,    12.25
      272.0,      13.22,    14.45,    14.20,    11.99,    12.22
      273.0,      13.19,    14.42,    14.19,    11.96,    12.19
      274.0,      13.16,    14.40,    14.17,    11.93,    12.15
      275.0,      13.14,    14.37,    14.16,    11.90,    12.12
      276.0,      13.11,    14.34,    14.14,    11.87,    12.08
      277.0,      13.08,    14.32,    14.13,    11.84,    12.05
      278.0,      13.06,    14.29,    14.12,    11.81,    12.02
      279.0,      13.03,    14.26,    14.10,    11.78,    11.98
      280.0,      13.01,    14.24,    14.09,    11.75,    11.95
      281.0,      12.98,    14.21,    14.07,    11.72,    11.92
      282.0,      12.95,    14.18,    14.06,    11.69,    11.89
      283.0,      12.93,    14.16,    14.05,    11.66,    11.85
      284.0,      12.90,    14.13,    14.03,    11.63,    11.82
      285.0,      12.88,    14.10,    14.02,    11.60,    11.79
      286.0,      12.85,    14.08,    14.00,    11.58,    11.75
      287.0,      12.83,    14.05,    13.99,    11.55,    11.72
      288.0,      12.80,    14.02,    13.98,    11.52,    11.69
      289.0,      12.78,    14.00,    13.96,    11.49,    11.66
      290.0,      12.75,    13.97,    13.95,    11.46,    11.63
      291.0,      12.73,    13.95,    13.93,    11.43,    11.59
      292.0,      12.70,    13.92,    13.92,    11.40,    11.56
      293.0,      12.68,    13.89,    13.91,    11.38,    11.53
      294.0,      12.65,    13.87,    13.89,    11.35,    11.50
      295.0,      12.63,    13.84,    13.88,    11.32,    11.47
      296.0,      12.60,    13.82,    13.86,    11.29,    11.43
      297.0,      12.58,    13.79,    13.85,    11.26,    11.40
      298.0,      12.55,    13.76,    13.84,    11.23,    11.37
      299.0,      12.53,    13.74,    13.82,    11.21,    11.34
      300.0,      12.50,    13.71,    13.81,    11.18,    11.31
      301.0,      12.48,    13.69,    13.79,    11.15,    11.28
      302.0,      12.45,    13.66,    13.78,    11.12,    11.25
      303.0,      12.43,    13.64,    13.77,    11.09,    11.21
      304.0,      12.40,    13.61,    13.75,    11.07,    11.18
      305.0,      12.38,    13.58,    13.74,    11.04,    11.15
      306.0,      12.35,    13.56,    13.73,    11.01,    11.12
      307.0,      12.33,    13.53,    13.71,    10.98,    11.09
      308.0,      12.31,    13.51,    13.70,    10.96,    11.06
      309.0,      12.28,    13.48,    13.68,    10.93,    11.03
      310.0,      12.26,    13.46,    13.67,    10.90,    11.00
