Radius (km), Mean (m/s), NE (m/s), SE (m/s), SW (m/s), NW (m/s)
        0.0,       0.00,     0.00,     0.00,     0.00,     0.00
        1.0,       3.09,     2.80,     3.13,     3.31,     3.13
        2.0,       5.34,     5.29,     5.49,     5.12,     5.49
        3.0,       7.38,     7.68,     7.63,     6.61,     7.62
        4.0,       9.33,    10.06,     9.68,     7.93,     9.66
        5.0,      11.29,    12.52,    11.75,     9.18,    11.70
        6.0,      13.33,    15.17,    13.90,    10.41,    13.82
        7.0,      15.51,    18.05,    16.21,    11.67,    16.10
        8.0,      17.84,    21.19,    18.66,    12.99,    18.53
        9.0,      20.29,    24.52,    21.21,    14.35,    21.09
       10.0,      22.78,    27.93,    23.78,    15.73,    23.70
       11.0,      25.19,    31.25,    26.25,    17.06,    26.22
       12.0,      27.40,    34.30,    28.49,    18.29,    28.53
       13.0,      29.29,    36.92,    30.40,    19.35,    30.51
       14.0,      30.77,    38.98,    31.89,    20.18,    32.05
       15.0,      31.79,    40.40,    32.92,    20.75,    33.11
       16.0,      32.35,    41.18,    33.48,    21.06,    33.67
       17.0,      32.48,    41.38,    33.64,    21.11,    33.78
       18.0,      32.25,    41.08,    33.45,    20.96,    33.51
       19.0,      31.77,    40.43,    33.02,    20.65,    32.96
       20.0,      31.12,    39.56,    32.45,    20.24,    32.24
       21.0,      30.41,    38.60,    31.81,    19.78,    31.45
       22.0,      29.70,    37.64,    31.18,    19.32,    30.66
       23.0,      29.02,    36.73,    30.58,    18.87,    29.91
       24.0,      28.39,    35.87,    30.02,    18.45,    29.20
       25.0,      27.79,    35.08,    29.49,    18.06,    28.54
       26.0,      27.23,    34.31,    28.99,    17.69,    27.91
       27.0,      26.68,    33.58,    28.50,    17.34,    27.31
       28.0,      26.16,    32.87,    28.03,    17.00,    26.72
       29.0,      25.65,    32.19,    27.58,    16.67,    26.16
       30.0,      25.16,    31.54,    27.14,    16.35,    25.62
       31.0,      24.69,    30.90,    26.72,    16.05,    25.10
       32.0,      24.24,    30.29,    26.31,    15.75,    24.60
       33.0,      23.80,    29.71,    25.92,    15.47,    24.12
       34.0,      23.38,    29.14,    25.54,    15.19,    23.65
       35.0,      22.98,    28.60,    25.18,    14.93,    23.20
       36.0,      22.59,    28.07,    24.82,    14.67,    22.77
       37.0,      22.21,    27.57,    24.48,    14.43,    22.36
       38.0,      21.84,    27.08,    24.15,    14.19,    21.96
       39.0,      21.49,    26.61,    23.83,    13.96,    21.57
       40.0,      21.15,    26.15,    23.52,    13.74,    21.20
       41.0,      20.83,    25.72,    23.22,    13.53,    20.84
       42.0,      20.51,    25.29,    22.94,    13.33,    20.49
       43.0,      20.21,    24.89,    22.66,    13.13,    20.16
       44.0,      19.91,    24.49,    22.39,    12.94,    19.83
       45.0,      19.63,    24.12,    22.13,    12.75,    19.52
       46.0,      19.36,    23.75,    21.87,    12.58,    19.22
       47.0,      19.09,    23.40,    21.63,    12.40,    18.93
       48.0,      18.84,    23.06,    21.39,    12.24,    18.66
       49.0,      18.59,    22.73,    21.16,    12.08,    18.39
       50.0,      18.35,    22.41,    20.94,    11.92,    18.13
       51.0,      18.12,    22.10,    20.73,    11.77,    17.88
       52.0,      17.90,    21.80,    20.52,    11.63,    17.63
       53.0,      17.68,    21.52,    20.32,    11.49,    17.40
       54.0,      17.47,    21.24,    20.12,    11.35,    17.17
       55.0,      17.27,    20.97,    19.93,    11.22,    16.96
       56.0,      17.08,    20.71,    19.75,    11.10,    16.74
       57.0,      16.89,    20.46,    19.57,    10.97,    16.54
       58.0,      16.70,    20.22,    19.40,    10.86,    16.34
       59.0,      16.53,    19.99,    19.23,    10.74,    16.15
       60.0,      16.36,    19.76,    19.07,    10.63,    15.97
       61.0,      16.19,    19.54,    18.91,    10.52,    15.79
       62.0,      16.03,    19.33,    18.75,    10.42,    15.62
       63.0,      15.87,    19.12,    18.60,    10.32,    15.45
       64.0,      15.72,    18.93,    18.46,    10.22,    15.29
       65.0,      15.58,    18.73,    18.32,    10.12,    15.14
       66.0,      15.44,    18.55,    18.18,    10.03,    14.98
       67.0,      15.30,    18.37,    18.05,     9.94,    14.84
       68.0,      15.16,    18.19,    17.92,     9.86,    14.70
       69.0,      15.04,    18.02,    17.79,     9.77,    14.56
       70.0,      14.91,    17.85,    17.67,     9.69,    14.43
       71.0,      14.79,    17.69,    17.54,     9.61,    14.30
       72.0,      14.67,    17.54,    17.43,     9.54,    14.17
       73.0,      14.55,    17.39,    17.31,     9.46,    14.05
       74.0,      14.44,    17.24,    17.20,     9.39,    13.93
       75.0,      14.33,    17.10,    17.09,     9.32,    13.82
       76.0,      14.23,    16.96,    16.99,     9.25,    13.71
       77.0,      14.12,    16.83,    16.88,     9.19,    13.60
       78.0,      14.02,    16.70,    16.78,     9.12,    13.50
       79.0,      13.93,    16.57,    16.68,     9.06,    13.40
       80.0,      13.83,    16.45,    16.59,     9.00,    13.30
       81.0,      13.74,    16.33,    16.49,     8.94,    13.20
       82.0,      13.65,    16.21,    16.40,     8.88,    13.11
       83.0,      13.56,    16.10,    16.31,     8.82,    13.02
       84.0,      13.48,    15.99,    16.22,     8.77,    12.93
       85.0,      13.39,    15.88,    16.14,     8.71,    12.84
       86.0,      13.31,    15.78,    16.05,     8.66,    12.76
       87.0,      13.23,    15.67,    15.97,     8.61,    12.68
       88.0,      13.16,    15.57,    15.89,     8.56,    12.60
       89.0,      13.08,    15.48,    15.81,     8.51,    12.52
       90.0,      13.01,    15.38,    15.73,     8.46,    12.45
       91.0,      12.93,    15.29,    15.65,     8.42,    12.37
       92.0,      12.86,    15.20,    15.58,     8.37,    12.30
       93.0,      12.79,    15.11,    15.50,     8.33,    12.23
       94.0,      12.73,    15.02,    15.43,     8.28,    12.16
       95.0,      12.66,    14.94,    15.36,     8.24,    12.10
       96.0,      12.60,    14.86,    15.29,     8.20,    12.03
       97.0,      12.53,    14.78,    15.22,     8.16,    11.97
       98.0,      12.47,    14.70,    15.15,     8.12,    11.91
       99.0,      12.41,    14.62,    15.09,     8.08,    11.85
      100.0,      12.35,    14.55,    15.02,     8.04,    11.79
      101.0,      12.29,    14.47,    14.96,     8.00,    11.73
      102.0,      12.23,    14.40,    14.89,     7.97,    11.67
      103.0,      12.18,    14.33,    14.83,     7.93,    11.62
      104.0,      12.12,    14.26,    14.77,     7.90,    11.56
      105.0,      12.07,    14.19,    14.71,     7.86,    11.51
      106.0,      12.01,    14.12,    14.65,     7.83,    11.46
      107.0,      11.96,    14.06,    14.59,     7.79,    11.41
      108.0,      11.91,    13.99,    14.53,     7.76,    11.36
      109.0,      11.86,    13.93,    14.48,     7.73,    11.31
      110.0,      11.81,    13.87,    14.42,     7.70,    11.26
      111.0,      11.76,    13.81,    14.37,     7.67,    11.21
      112.0,      11.71,    13.75,    14.31,     7.63,    11.16
      113.0,      11.67,    13.69,    14.26,     7.60,    11.12
      114.0,      11.62,    13.63,    14.20,     7.57,    11.07
      115.0,      11.57,    13.57,    14.15,     7.54,    11.03
      116.0,      11.53,    13.52,    14.10,     7.52,    10.99
      117.0,      11.48,    13.46,    14.05,     7.49,    10.94
      118.0,      11.44,    13.41,    13.99,     7.46,    10.90
      119.0,      11.40,    13.35,    13.94,     7.43,    10.86
      120.0,      11.35,    13.30,    13.89,     7.40,    10.82
      121.0,      11.31,    13.25,    13.84,     7.38,    10.78
      122.0,      11.27,    13.19,    13.80,     7.35,    10.74
      123.0,      11.23,    13.14,    13.75,     7.32,    10.70
      124.0,      11.19,    13.09,    13.70,     7.30,    10.66
      125.0,      11.15,    13.04,    13.65,     7.27,    10.62
      126.0,      11.11,    12.99,    13.60,     7.25,    10.58
      127.0,      11.07,    12.95,    13.56,     7.22,    10.55
      128.0,      11.03,    12.90,    13.51,     7.20,    10.51
      129.0,      10.99,    12.85,    13.47,     7.17,    10.48
      130.0,      10.95,    12.81,    13.42,     7.15,    10.44
      131.0,      10.92,    12.76,    13.38,     7.12,    10.40
      132.0,      10.88,    12.71,    13.33,     7.10,    10.37
      133.0,      10.84,    12.67,    13.29,     7.08,    10.34
      134.0,      10.81,    12.62,    13.24,     7.05,    10.30
      135.0,      10.77,    12.58,    13.20,     7.03,    10.27
      136.0,      10.73,    12.54,    13.16,     7.01,    10.23
      137.0,      10.70,    12.49,    13.11,     6.98,    10.20
      138.0,      10.66,    12.45,    13.07,     6.96,    10.17
      139.0,      10.63,    12.41,    13.03,     6.94,    10.14
      140.0,      10.59,    12.37,    12.99,     6.92,    10.10
      141.0,      10.56,    12.33,    12.94,     6.90,    10.07
      142.0,      10.53,    12.28,    12.90,     6.87,    10.04
      143.0,      10.49,    12.24,    12.86,     6.85,    10.01
      144.0,      10.46,    12.20,    12.82,     6.83,     9.98
      145.0,      10.43,    12.16,    12.78,     6.81,     9.95
      146.0,      10.39,    12.12,    12.74,     6.79,     9.92
      147.0,      10.36,    12.08,    12.70,     6.77,     9.89
      148.0,      10.33,    12.04,    12.66,     6.75,     9.86
      149.0,      10.30,    12.01,    12.62,     6.73,     9.83
      150.0,      10.26,    11.97,    12.58,     6.71,     9.80
      151.0,      10.23,    11.93,    12.54,     6.69,     9.77
      152.0,      10.20,    11.89,    12.50,     6.67,     9.74
      153.0,      10.17,    11.85,    12.46,     6.65,     9.71
      154.0,      10.14,    11.82,    12.43,     6.63,     9.69
      155.0,      10.11,    11.78,    12.39,     6.61,     9.66
      156.0,      10.08,    11.74,    12.35,     6.59,     9.63
      157.0,      10.05,    11.71,    12.31,     6.57,     9.60
      158.0,      10.02,    11.67,    12.27,     6.55,     9.57
      159.0,       9.99,    11.63,    12.24,     6.53,     9.55
      160.0,       9.96,    11.60,    12.20,     6.51,     9.52
      161.0,       9.93,    11.56,    12.16,     6.49,     9.49
      162.0,       9.90,    11.53,    12.12,     6.47,     9.47
      163.0,       9.87,    11.49,    12.09,     6.46,     9.44
      164.0,       9.84,    11.46,    12.05,     6.44,     9.41
      165.0,       9.81,    11.42,    12.01,     6.42,     9.39
      166.0,       9.78,    11.39,    11.98,     6.40,     9.36
      167.0,       9.75,    11.35,    11.94,     6.38,     9.33
      168.0,       9.72,    11.32,    11.91,     6.36,     9.31
      169.0,       9.70,    11.28,    11.87,     6.34,     9.28
      170.0,       9.67,    11.25,    11.84,     6.33,     9.26
      171.0,       9.64,    11.22,    11.80,     6.31,     9.23
      172.0,       9.61,    11.18,    11.76,     6.29,     9.21
      173.0,       9.58,    11.15,    11.73,     6.27,     9.18
      174.0,       9.56,    11.12,    11.69,     6.26,     9.16
      175.0,       9.53,    11.08,    11.66,     6.24,     9.13
      176.0,       9.50,    11.05,    11.62,     6.22,     9.11
      177.0,       9.47,    11.02,    11.59,     6.20,     9.08
      178.0,       9.45,    10.99,    11.56,     6.19,     9.06
      179.0,       9.42,    10.95,    11.52,     6.17,     9.03
      180.0,       9.39,    10.92,    11.49,     6.15,     9.01
      181.0,       9.36,    10.89,    11.45,     6.13,     8.98
      182.0,       9.34,    10.86,    11.42,     6.12,     8.96
      183.0,       9.31,    10.83,    11.39,     6.10,     8.93
      184.0,       9.28,    10.79,    11.35,     6.08,     8.91
      185.0,       9.26,    10.76,    11.32,     6.07,     8.89
      186.0,       9.23,    10.73,    11.29,     6.05,     8.86
      187.0,       9.21,    10.70,    11.25,     6.03,     8.84
      188.0,       9.18,    10.67,    11.22,     6.02,     8.82
      189.0,       9.15,    10.64,    11.19,     6.00,     8.79
      190.0,       9.13,    10.61,    11.15,     5.98,     8.77
      191.0,       9.10,    10.58,    11.12,     5.97,     8.75
      192.0,       9.08,    10.54,    11.09,     5.95,     8.72
      193.0,       9.05,    10.51,    11.06,     5.93,     8.70
      194.0,       9.02,    10.48,    11.02,     5.92,     8.68
      195.0,       9.00,    10.45,    10.99,     5.90,     8.65
      196.0,       8.97,    10.42,    10.96,     5.88,     8.63
      197.0,       8.95,    10.39,    10.93,     5.87,     8.61
      198.0,       8.92,    10.36,    10.89,     5.85,     8.58
      199.0,       8.90,    10.33,    10.86,     5.84,     8.56
      200.0,       8.87,    10.30,    10.83,     5.82,     8.54
      201.0,       8.85,    10.27,    10.80,     5.80,     8.52
      202.0,       8.82,    10.24,    10.77,     5.79,     8.49
      203.0,       8.80,    10.22,    10.74,     5.77,     8.47
      204.0,       8.77,    10.19,    10.70,     5.76,     8.45
      205.0,       8.75,    10.16,    10.67,     5.74,     8.43
      206.0,       8.73,    10.13,    10.64,     5.73,     8.41
      207.0,       8.70,    10.10,    10.61,     5.71,     8.38
      208.0,       8.68,    10.07,    10.58,     5.69,     8.36
      209.0,       8.65,    10.04,    10.55,     5.68,     8.34
      210.0,       8.63,    10.01,    10.52,     5.66,     8.32
      211.0,       8.60,     9.98,    10.49,     5.65,     8.30
      212.0,       8.58,     9.96,    10.46,     5.63,     8.27
      213.0,       8.56,     9.93,    10.43,     5.62,     8.25
      214.0,       8.53,     9.90,    10.40,     5.60,     8.23
      215.0,       8.51,     9.87,    10.37,     5.59,     8.21
      216.0,       8.48,     9.84,    10.34,     5.57,     8.19
      217.0,       8.46,     9.81,    10.31,     5.56,     8.17
      218.0,       8.44,     9.79,    10.28,     5.54,     8.15
      219.0,       8.41,     9.76,    10.25,     5.53,     8.12
      220.0,       8.39,     9.73,    10.22,     5.51,     8.10
      221.0,       8.37,     9.70,    10.19,     5.50,     8.08
      222.0,       8.34,     9.68,    10.16,     5.48,     8.06
      223.0,       8.32,     9.65,    10.13,     5.47,     8.04
      224.0,       8.30,     9.62,    10.10,     5.45,     8.02
      225.0,       8.27,     9.59,    10.07,     5.44,     8.00
      226.0,       8.25,     9.57,    10.04,     5.42,     7.98
      227.0,       8.23,     9.54,    10.01,     5.41,     7.96
      228.0,       8.21,     9.51,     9.98,     5.39,     7.94
      229.0,       8.18,     9.48,     9.95,     5.38,     7.92
      230.0,       8.16,     9.46,     9.92,     5.36,     7.90
      231.0,       8.14,     9.43,     9.90,     5.35,     7.87
      232.0,       8.11,     9.40,     9.87,     5.33,     7.85
      233.0,       8.09,     9.38,     9.84,     5.32,     7.83
      234.0,       8.07,     9.35,     9.81,     5.31,     7.81
      235.0,       8.05,     9.32,     9.78,     5.29,     7.79
      236.0,       8.03,     9.30,     9.75,     5.28,     7.77
      237.0,       8.00,     9.27,     9.72,     5.26,     7.75
      238.0,       7.98,     9.25,     9.70,     5.25,     7.73
      239.0,       7.96,     9.22,     9.67,     5.23,     7.71
      240.0,       7.94,     9.19,     9.64,     5.22,     7.69
      241.0,       7.91,     9.17,     9.61,     5.21,     7.67
      242.0,       7.89,     9.14,     9.58,     5.19,     7.65
      243.0,       7.87,     9.12,     9.56,     5.18,     7.63
      244.0,       7.85,     9.09,     9.53,     5.16,     7.61
      245.0,       7.83,     9.06,     9.50,     5.15,     7.59
      246.0,       7.81,     9.04,     9.47,     5.14,     7.57
      247.0,       7.78,     9.01,     9.45,     5.12,     7.55
      248.0,       7.76,     8.99,     9.42,     5.11,     7.53
      249.0,       7.74,     8.96,     9.39,     5.10,     7.52
      250.0,       7.72,     8.94,     9.36,     5.08,     7.50
      251.0,       7.70,     8.91,     9.34,     5.07,     7.48
      252.0,       7.68,     8.89,     9.31,     5.05,     7.46
      253.0,       7.66,     8.86,     9.28,     5.04,     7.44
      254.0,       7.63,     8.84,     9.26,     5.03,     7.42
      255.0,       7.61,     8.81,     9.23,     5.01,     7.40
      256.0,       7.59,     8.79,     9.20,     5.00,     7.38
      257.0,       7.57,     8.76,     9.18,     4.99,     7.36
      258.0,       7.55,     8.74,     9.15,     4.97,     7.34
      259.0,       7.53,     8.71,     9.12,     4.96,     7.32
      260.0,       7.51,     8.69,     9.10,     4.95,     7.30
      261.0,       7.49,     8.66,     9.07,     4.93,     7.29
      262.0,       7.47,     8.64,     9.05,     4.92,     7.27
      263.0,       7.45,     8.61,     9.02,     4.91,     7.25
      264.0,       7.43,     8.59,     8.99,     4.89,     7.23
      265.0,       7.41,     8.57,     8.97,     4.88,     7.21
      266.0,       7.39,     8.54,     8.94,     4.87,     7.19
      267.0,       7.36,     8.52,     8.92,     4.85,     7.17
      268.0,       7.34,     8.49,     8.89,     4.84,     7.16
      269.0,       7.32,     8.47,     8.86,     4.83,     7.14
      270.0,       7.30,     8.45,     8.84,     4.81,     7.12
      271.0,       7.28,     8.42,     8.81,     4.80,     7.10
      272.0,       7.26,     8.40,     8.79,     4.79,     7.08
      273.0,       7.24,     8.37,     8.76,     4.78,     7.06
      274.0,       7.22,     8.35,     8.74,     4.76,     7.05
      275.0,       7.20,     8.33,     8.71,     4.75,     7.03
      276.0,       7.18,     8.30,     8.69,     4.74,     7.01
      277.0,       7.16,     8.28,     8.66,     4.72,     6.99
      278.0,       7.14,     8.26,     8.64,     4.71,     6.97
      279.0,       7.12,     8.23,     8.61,     4.70,     6.95
      280.0,       7.10,     8.21,     8.59,     4.69,     6.94
      281.0,       7.09,     8.19,     8.56,     4.67,     6.92
      282.0,       7.07,     8.16,     8.54,     4.66,     6.90
      283.0,       7.05,     8.14,     8.51,     4.65,     6.88
      284.0,       7.03,     8.12,     8.49,     4.64,     6.87
      285.0,       7.01,     8.10,     8.46,     4.62,     6.85
      286.0,       6.99,     8.07,     8.44,     4.61,     6.83
      287.0,       6.97,     8.05,     8.41,     4.60,     6.81
      288.0,       6.95,     8.03,     8.39,     4.59,     6.80
      289.0,       6.93,     8.00,     8.37,     4.57,     6.78
      290.0,       6.91,     7.98,     8.34,     4.56,     6.76
      291.0,       6.89,     7.96,     8.32,     4.55,     6.74
      292.0,       6.87,     7.94,     8.29,     4.54,     6.73
      293.0,       6.85,     7.91,     8.27,     4.53,     6.71
      294.0,       6.84,     7.89,     8.25,     4.51,     6.69
      295.0,       6.82,     7.87,     8.22,     4.50,     6.67
      296.0,       6.80,     7.85,     8.20,     4.49,     6.66
      297.0,       6.78,     7.83,     8.17,     4.48,     6.64
      298.0,       6.76,     7.80,     8.15,     4.46,     6.62
      299.0,       6.74,     7.78,     8.13,     4.45,     6.60
      300.0,       6.72,     7.76,     8.10,     4.44,     6.59
      301.0,       6.70,     7.74,     8.08,     4.43,     6.57
      302.0,       6.69,     7.72,     8.06,     4.42,     6.55
      303.0,       6.67,     7.69,     8.03,     4.41,     6.54
      304.0,       6.65,     7.67,     8.01,     4.39,     6.52
      305.0,       6.63,     7.65,     7.99,     4.38,     6.50
      306.0,       6.61,     7.63,     7.96,     4.37,     6.49
      307.0,       6.59,     7.61,     7.94,     4.36,     6.47
      308.0,       6.58,     7.59,     7.92,     4.35,     6.45
      309.0,       6.56,     7.57,     7.90,     4.33,     6.44
      310.0,       6.54,     7.54,     7.87,     4.32,     6.42
