Radius (km), Mean (m/s), NE (m/s), SE (m/s), SW (m/s), NW (m/s)
        0.0,       0.00,     0.00,     0.00,     0.00,     0.00
        1.0,       1.91,     1.71,     2.02,     2.18,     1.71
        2.0,       3.67,     3.45,     3.81,     3.98,     3.45
        3.0,       5.39,     5.19,     5.53,     5.66,     5.19
        4.0,       7.08,     6.93,     7.20,     7.27,     6.93
        5.0,       8.75,     8.68,     8.83,     8.83,     8.68
        6.0,      10.41,    10.42,    10.43,    10.35,    10.42
        7.0,      12.05,    12.18,    12.01,    11.84,    12.18
        8.0,      13.68,    13.93,    13.58,    13.30,    13.93
        9.0,      15.30,    15.68,    15.12,    14.73,    15.68
       10.0,      16.92,    17.44,    16.65,    16.15,    17.44
       11.0,      18.53,    19.20,    18.18,    17.54,    19.20
       12.0,      20.14,    20.96,    19.71,    18.94,    20.96
       13.0,      21.80,    22.75,    21.29,    20.39,    22.76
       14.0,      23.55,    24.62,    22.98,    21.93,    24.66
       15.0,      25.45,    26.63,    24.82,    23.60,    26.73
       16.0,      27.53,    28.84,    26.83,    25.43,    29.03
       17.0,      29.80,    31.27,    28.99,    27.40,    31.56
       18.0,      32.22,    33.88,    31.24,    29.46,    34.29
       19.0,      34.69,    36.60,    33.51,    31.53,    37.12
       20.0,      37.11,    39.30,    35.69,    33.52,    39.92
       21.0,      39.35,    41.87,    37.68,    35.31,    42.55
       22.0,      41.31,    44.15,    39.38,    36.84,    44.86
       23.0,      42.89,    46.05,    40.73,    38.04,    46.73
       24.0,      44.04,    47.49,    41.70,    38.87,    48.08
       25.0,      44.75,    48.43,    42.30,    39.36,    48.91
       26.0,      45.06,    48.91,    42.57,    39.53,    49.23
       27.0,      45.03,    48.97,    42.58,    39.46,    49.12
       28.0,      44.76,    48.73,    42.40,    39.21,    48.69
       29.0,      44.32,    48.27,    42.11,    38.86,    48.04
       30.0,      43.81,    47.70,    41.77,    38.46,    47.30
       31.0,      43.28,    47.10,    41.43,    38.05,    46.53
       32.0,      42.77,    46.52,    41.09,    37.66,    45.79
       33.0,      42.28,    45.97,    40.77,    37.29,    45.10
       34.0,      41.82,    45.45,    40.46,    36.93,    44.44
       35.0,      41.37,    44.94,    40.15,    36.57,    43.81
       36.0,      40.93,    44.45,    39.85,    36.22,    43.19
       37.0,      40.50,    43.97,    39.55,    35.88,    42.60
       38.0,      40.08,    43.49,    39.25,    35.54,    42.02
       39.0,      39.66,    43.03,    38.96,    35.20,    41.45
       40.0,      39.26,    42.58,    38.67,    34.87,    40.90
       41.0,      38.86,    42.13,    38.39,    34.55,    40.37
       42.0,      38.47,    41.69,    38.10,    34.23,    39.85
       43.0,      38.09,    41.26,    37.82,    33.92,    39.35
       44.0,      37.71,    40.84,    37.55,    33.61,    38.85
       45.0,      37.35,    40.43,    37.27,    33.30,    38.38
       46.0,      36.99,    40.02,    37.00,    33.00,    37.91
       47.0,      36.63,    39.63,    36.74,    32.71,    37.46
       48.0,      36.29,    39.24,    36.47,    32.42,    37.02
       49.0,      35.95,    38.85,    36.21,    32.13,    36.59
       50.0,      35.61,    38.48,    35.95,    31.85,    36.18
       51.0,      35.29,    38.11,    35.70,    31.57,    35.77
       52.0,      34.97,    37.75,    35.44,    31.30,    35.38
       53.0,      34.65,    37.39,    35.20,    31.03,    34.99
       54.0,      34.35,    37.05,    34.95,    30.77,    34.62
       55.0,      34.04,    36.70,    34.70,    30.51,    34.25
       56.0,      33.75,    36.37,    34.46,    30.25,    33.90
       57.0,      33.46,    36.04,    34.23,    30.00,    33.55
       58.0,      33.17,    35.72,    33.99,    29.75,    33.22
       59.0,      32.89,    35.40,    33.76,    29.51,    32.89
       60.0,      32.61,    35.09,    33.53,    29.27,    32.57
       61.0,      32.34,    34.78,    33.30,    29.03,    32.26
       62.0,      32.08,    34.48,    33.07,    28.80,    31.96
       63.0,      31.82,    34.19,    32.85,    28.57,    31.66
       64.0,      31.56,    33.90,    32.63,    28.34,    31.37
       65.0,      31.31,    33.62,    32.41,    28.12,    31.09
       66.0,      31.06,    33.34,    32.20,    27.90,    30.82
       67.0,      30.82,    33.06,    31.99,    27.68,    30.55
       68.0,      30.58,    32.80,    31.78,    27.47,    30.29
       69.0,      30.35,    32.53,    31.57,    27.26,    30.04
       70.0,      30.12,    32.27,    31.36,    27.06,    29.79
       71.0,      29.89,    32.02,    31.16,    26.85,    29.55
       72.0,      29.67,    31.77,    30.96,    26.65,    29.31
       73.0,      29.45,    31.52,    30.76,    26.46,    29.08
       74.0,      29.24,    31.28,    30.56,    26.26,    28.86
       75.0,      29.03,    31.04,    30.37,    26.07,    28.64
       76.0,      28.82,    30.81,    30.18,    25.88,    28.42
       77.0,      28.62,    30.58,    29.99,    25.70,    28.21
       78.0,      28.42,    30.35,    29.80,    25.52,    28.01
       79.0,      28.22,    30.13,    29.61,    25.34,    27.81
       80.0,      28.03,    29.91,    29.43,    25.16,    27.61
       81.0,      27.84,    29.70,    29.25,    24.99,    27.42
       82.0,      27.65,    29.49,    29.07,    24.81,    27.24
       83.0,      27.47,    29.28,    28.89,    24.64,    27.06
       84.0,      27.29,    29.07,    28.72,    24.48,    26.88
       85.0,      27.11,    28.87,    28.54,    24.31,    26.70
       86.0,      26.93,    28.68,    28.37,    24.15,    26.53
       87.0,      26.76,    28.48,    28.20,    23.99,    26.37
       88.0,      26.59,    28.29,    28.03,    23.84,    26.20
       89.0,      26.42,    28.10,    27.87,    23.68,    26.04
       90.0,      26.26,    27.92,    27.70,    23.53,    25.89
       91.0,      26.10,    27.74,    27.54,    23.38,    25.73
       92.0,      25.94,    27.56,    27.38,    23.23,    25.58
       93.0,      25.78,    27.38,    27.22,    23.09,    25.44
       94.0,      25.63,    27.21,    27.06,    22.94,    25.29
       95.0,      25.48,    27.04,    26.91,    22.80,    25.15
       96.0,      25.33,    26.87,    26.75,    22.66,    25.02
       97.0,      25.18,    26.71,    26.60,    22.53,    24.88
       98.0,      25.03,    26.54,    26.45,    22.39,    24.75
       99.0,      24.89,    26.38,    26.30,    22.26,    24.62
      100.0,      24.75,    26.22,    26.16,    22.13,    24.49
      101.0,      24.61,    26.07,    26.01,    22.00,    24.37
      102.0,      24.47,    25.92,    25.87,    21.87,    24.24
      103.0,      24.34,    25.77,    25.73,    21.75,    24.12
      104.0,      24.21,    25.62,    25.58,    21.62,    24.00
      105.0,      24.08,    25.47,    25.45,    21.50,    23.89
      106.0,      23.95,    25.33,    25.31,    21.38,    23.77
      107.0,      23.82,    25.18,    25.17,    21.26,    23.66
      108.0,      23.69,    25.04,    25.04,    21.15,    23.55
      109.0,      23.57,    24.91,    24.90,    21.03,    23.44
      110.0,      23.45,    24.77,    24.77,    20.92,    23.34
      111.0,      23.33,    24.64,    24.64,    20.81,    23.23
      112.0,      23.21,    24.50,    24.51,    20.70,    23.13
      113.0,      23.09,    24.37,    24.38,    20.59,    23.03
      114.0,      22.98,    24.24,    24.26,    20.48,    22.93
      115.0,      22.87,    24.12,    24.13,    20.37,    22.83
      116.0,      22.75,    23.99,    24.01,    20.27,    22.74
      117.0,      22.64,    23.87,    23.89,    20.17,    22.64
      118.0,      22.53,    23.75,    23.77,    20.07,    22.55
      119.0,      22.43,    23.63,    23.65,    19.97,    22.46
      120.0,      22.32,    23.51,    23.53,    19.87,    22.37
      121.0,      22.21,    23.39,    23.41,    19.77,    22.28
      122.0,      22.11,    23.28,    23.30,    19.68,    22.19
      123.0,      22.01,    23.16,    23.18,    19.58,    22.11
      124.0,      21.91,    23.05,    23.07,    19.49,    22.02
      125.0,      21.81,    22.94,    22.96,    19.40,    21.94
      126.0,      21.71,    22.83,    22.85,    19.31,    21.86
      127.0,      21.61,    22.72,    22.74,    19.22,    21.77
      128.0,      21.52,    22.62,    22.63,    19.13,    21.69
      129.0,      21.42,    22.51,    22.52,    19.05,    21.61
      130.0,      21.33,    22.41,    22.41,    18.96,    21.54
      131.0,      21.24,    22.30,    22.31,    18.88,    21.46
      132.0,      21.15,    22.20,    22.20,    18.79,    21.38
      133.0,      21.06,    22.10,    22.10,    18.71,    21.31
      134.0,      20.97,    22.00,    22.00,    18.63,    21.23
      135.0,      20.88,    21.91,    21.90,    18.55,    21.16
      136.0,      20.79,    21.81,    21.80,    18.47,    21.09
      137.0,      20.71,    21.71,    21.70,    18.40,    21.02
      138.0,      20.62,    21.62,    21.60,    18.32,    20.95
      139.0,      20.54,    21.53,    21.51,    18.24,    20.88
      140.0,      20.45,    21.43,    21.41,    18.17,    20.81
      141.0,      20.37,    21.34,    21.32,    18.10,    20.74
      142.0,      20.29,    21.25,    21.22,    18.02,    20.67
      143.0,      20.21,    21.16,    21.13,    17.95,    20.60
      144.0,      20.13,    21.07,    21.04,    17.88,    20.54
      145.0,      20.05,    20.99,    20.95,    17.81,    20.47
      146.0,      19.98,    20.90,    20.86,    17.74,    20.41
      147.0,      19.90,    20.81,    20.77,    17.68,    20.34
      148.0,      19.82,    20.73,    20.68,    17.61,    20.28
      149.0,      19.75,    20.65,    20.59,    17.54,    20.22
      150.0,      19.68,    20.56,    20.51,    17.48,    20.15
      151.0,      19.60,    20.48,    20.42,    17.41,    20.09
      152.0,      19.53,    20.40,    20.34,    17.35,    20.03
      153.0,      19.46,    20.32,    20.25,    17.29,    19.97
      154.0,      19.39,    20.24,    20.17,    17.23,    19.91
      155.0,      19.32,    20.16,    20.09,    17.17,    19.85
      156.0,      19.25,    20.08,    20.01,    17.10,    19.79
      157.0,      19.18,    20.01,    19.93,    17.05,    19.74
      158.0,      19.11,    19.93,    19.85,    16.99,    19.68
      159.0,      19.04,    19.86,    19.77,    16.93,    19.62
      160.0,      18.98,    19.78,    19.69,    16.87,    19.56
      161.0,      18.91,    19.71,    19.61,    16.82,    19.51
      162.0,      18.85,    19.63,    19.54,    16.76,    19.45
      163.0,      18.78,    19.56,    19.46,    16.70,    19.39
      164.0,      18.72,    19.49,    19.39,    16.65,    19.34
      165.0,      18.65,    19.42,    19.31,    16.60,    19.29
      166.0,      18.59,    19.35,    19.24,    16.54,    19.23
      167.0,      18.53,    19.28,    19.17,    16.49,    19.18
      168.0,      18.47,    19.21,    19.09,    16.44,    19.12
      169.0,      18.40,    19.14,    19.02,    16.39,    19.07
      170.0,      18.34,    19.07,    18.95,    16.34,    19.02
      171.0,      18.28,    19.00,    18.88,    16.29,    18.97
      172.0,      18.22,    18.93,    18.81,    16.24,    18.91
      173.0,      18.17,    18.87,    18.75,    16.19,    18.86
      174.0,      18.11,    18.80,    18.68,    16.14,    18.81
      175.0,      18.05,    18.74,    18.61,    16.09,    18.76
      176.0,      17.99,    18.67,    18.54,    16.05,    18.71
      177.0,      17.94,    18.61,    18.48,    16.00,    18.66
      178.0,      17.88,    18.54,    18.41,    15.95,    18.61
      179.0,      17.82,    18.48,    18.35,    15.91,    18.56
      180.0,      17.77,    18.42,    18.28,    15.86,    18.51
      181.0,      17.71,    18.35,    18.22,    15.82,    18.46
      182.0,      17.66,    18.29,    18.16,    15.78,    18.41
      183.0,      17.61,    18.23,    18.10,    15.73,    18.36
      184.0,      17.55,    18.17,    18.04,    15.69,    18.31
      185.0,      17.50,    18.11,    17.97,    15.65,    18.27
      186.0,      17.45,    18.05,    17.91,    15.61,    18.22
      187.0,      17.39,    17.99,    17.85,    15.56,    18.17
      188.0,      17.34,    17.93,    17.79,    15.52,    18.12
      189.0,      17.29,    17.87,    17.74,    15.48,    18.08
      190.0,      17.24,    17.81,    17.68,    15.44,    18.03
      191.0,      17.19,    17.76,    17.62,    15.40,    17.98
      192.0,      17.14,    17.70,    17.56,    15.36,    17.94
      193.0,      17.09,    17.64,    17.51,    15.33,    17.89
      194.0,      17.04,    17.58,    17.45,    15.29,    17.84
      195.0,      16.99,    17.53,    17.40,    15.25,    17.80
      196.0,      16.94,    17.47,    17.34,    15.21,    17.75
      197.0,      16.90,    17.42,    17.29,    15.17,    17.71
      198.0,      16.85,    17.36,    17.23,    15.14,    17.66
      199.0,      16.80,    17.31,    17.18,    15.10,    17.62
      200.0,      16.75,    17.25,    17.13,    15.07,    17.57
      201.0,      16.71,    17.20,    17.07,    15.03,    17.53
      202.0,      16.66,    17.14,    17.02,    15.00,    17.49
      203.0,      16.62,    17.09,    16.97,    14.96,    17.44
      204.0,      16.57,    17.04,    16.92,    14.93,    17.40
      205.0,      16.52,    16.98,    16.87,    14.89,    17.35
      206.0,      16.48,    16.93,    16.82,    14.86,    17.31
      207.0,      16.44,    16.88,    16.77,    14.82,    17.27
      208.0,      16.39,    16.83,    16.72,    14.79,    17.22
      209.0,      16.35,    16.78,    16.67,    14.76,    17.18
      210.0,      16.30,    16.73,    16.62,    14.73,    17.14
      211.0,      16.26,    16.67,    16.58,    14.69,    17.10
      212.0,      16.22,    16.62,    16.53,    14.66,    17.05
      213.0,      16.17,    16.57,    16.48,    14.63,    17.01
      214.0,      16.13,    16.52,    16.43,    14.60,    16.97
      215.0,      16.09,    16.47,    16.39,    14.57,    16.93
      216.0,      16.05,    16.42,    16.34,    14.54,    16.89
      217.0,      16.01,    16.37,    16.30,    14.51,    16.84
      218.0,      15.96,    16.33,    16.25,    14.48,    16.80
      219.0,      15.92,    16.28,    16.21,    14.45,    16.76
      220.0,      15.88,    16.23,    16.16,    14.42,    16.72
      221.0,      15.84,    16.18,    16.12,    14.39,    16.68
      222.0,      15.80,    16.13,    16.08,    14.36,    16.64
      223.0,      15.76,    16.09,    16.03,    14.33,    16.60
      224.0,      15.72,    16.04,    15.99,    14.31,    16.56
      225.0,      15.68,    15.99,    15.95,    14.28,    16.52
      226.0,      15.64,    15.94,    15.91,    14.25,    16.48
      227.0,      15.60,    15.90,    15.86,    14.22,    16.44
      228.0,      15.57,    15.85,    15.82,    14.19,    16.40
      229.0,      15.53,    15.80,    15.78,    14.17,    16.36
      230.0,      15.49,    15.76,    15.74,    14.14,    16.32
      231.0,      15.45,    15.71,    15.70,    14.11,    16.28
      232.0,      15.41,    15.67,    15.66,    14.09,    16.24
      233.0,      15.38,    15.62,    15.62,    14.06,    16.20
      234.0,      15.34,    15.58,    15.58,    14.04,    16.16
      235.0,      15.30,    15.53,    15.54,    14.01,    16.12
      236.0,      15.26,    15.49,    15.51,    13.98,    16.08
      237.0,      15.23,    15.44,    15.47,    13.96,    16.04
      238.0,      15.19,    15.40,    15.43,    13.93,    16.00
      239.0,      15.15,    15.35,    15.39,    13.91,    15.96
      240.0,      15.12,    15.31,    15.35,    13.89,    15.93
      241.0,      15.08,    15.27,    15.32,    13.86,    15.89
      242.0,      15.05,    15.22,    15.28,    13.84,    15.85
      243.0,      15.01,    15.18,    15.24,    13.81,    15.81
      244.0,      14.98,    15.14,    15.21,    13.79,    15.77
      245.0,      14.94,    15.09,    15.17,    13.76,    15.74
      246.0,      14.91,    15.05,    15.14,    13.74,    15.70
      247.0,      14.87,    15.01,    15.10,    13.72,    15.66
      248.0,      14.84,    14.97,    15.07,    13.70,    15.62
      249.0,      14.80,    14.93,    15.03,    13.67,    15.58
      250.0,      14.77,    14.88,    15.00,    13.65,    15.55
      251.0,      14.74,    14.84,    14.96,    13.63,    15.51
      252.0,      14.70,    14.80,    14.93,    13.60,    15.47
      253.0,      14.67,    14.76,    14.89,    13.58,    15.44
      254.0,      14.63,    14.72,    14.86,    13.56,    15.40
      255.0,      14.60,    14.68,    14.83,    13.54,    15.36
      256.0,      14.57,    14.64,    14.80,    13.52,    15.33
      257.0,      14.54,    14.59,    14.76,    13.49,    15.29
      258.0,      14.50,    14.55,    14.73,    13.47,    15.25
      259.0,      14.47,    14.51,    14.70,    13.45,    15.22
      260.0,      14.44,    14.47,    14.67,    13.43,    15.18
      261.0,      14.41,    14.43,    14.63,    13.41,    15.14
      262.0,      14.37,    14.39,    14.60,    13.39,    15.11
      263.0,      14.34,    14.35,    14.57,    13.37,    15.07
      264.0,      14.31,    14.31,    14.54,    13.35,    15.03
      265.0,      14.28,    14.27,    14.51,    13.33,    15.00
      266.0,      14.25,    14.24,    14.48,    13.31,    14.96
      267.0,      14.22,    14.20,    14.45,    13.29,    14.93
      268.0,      14.18,    14.16,    14.42,    13.27,    14.89
      269.0,      14.15,    14.12,    14.39,    13.25,    14.86
      270.0,      14.12,    14.08,    14.36,    13.23,    14.82
      271.0,      14.09,    14.04,    14.33,    13.21,    14.79
      272.0,      14.06,    14.00,    14.30,    13.19,    14.75
      273.0,      14.03,    13.96,    14.27,    13.17,    14.72
      274.0,      14.00,    13.93,    14.24,    13.15,    14.68
      275.0,      13.97,    13.89,    14.22,    13.13,    14.65
      276.0,      13.94,    13.85,    14.19,    13.11,    14.61
      277.0,      13.91,    13.81,    14.16,    13.09,    14.58
      278.0,      13.88,    13.77,    14.13,    13.07,    14.54
      279.0,      13.85,    13.74,    14.10,    13.05,    14.51
      280.0,      13.82,    13.70,    14.08,    13.04,    14.47
      281.0,      13.79,    13.66,    14.05,    13.02,    14.44
      282.0,      13.76,    13.63,    14.02,    13.00,    14.40
      283.0,      13.73,    13.59,    13.99,    12.98,    14.37
      284.0,      13.70,    13.55,    13.97,    12.96,    14.34
      285.0,      13.68,    13.52,    13.94,    12.95,    14.30
      286.0,      13.65,    13.48,    13.91,    12.93,    14.27
      287.0,      13.62,    13.44,    13.89,    12.91,    14.23
      288.0,      13.59,    13.41,    13.86,    12.89,    14.20
      289.0,      13.56,    13.37,    13.84,    12.87,    14.17
      290.0,      13.53,    13.33,    13.81,    12.86,    14.13
      291.0,      13.51,    13.30,    13.78,    12.84,    14.10
      292.0,      13.48,    13.26,    13.76,    12.82,    14.07
      293.0,      13.45,    13.23,    13.73,    12.80,    14.03
      294.0,      13.42,    13.19,    13.71,    12.79,    14.00
      295.0,      13.39,    13.16,    13.68,    12.77,    13.97
      296.0,      13.37,    13.12,    13.66,    12.75,    13.93
      297.0,      13.34,    13.08,    13.63,    12.74,    13.90
      298.0,      13.31,    13.05,    13.61,    12.72,    13.87
      299.0,      13.28,    13.01,    13.59,    12.70,    13.84
      300.0,      13.26,    12.98,    13.56,    12.69,    13.80
      301.0,      13.23,    12.94,    13.54,    12.67,    13.77
      302.0,      13.20,    12.91,    13.51,    12.65,    13.74
      303.0,      13.18,    12.88,    13.49,    12.64,    13.70
      304.0,      13.15,    12.84,    13.47,    12.62,    13.67
      305.0,      13.12,    12.81,    13.44,    12.60,    13.64
      306.0,      13.10,    12.77,    13.42,    12.59,    13.61
      307.0,      13.07,    12.74,    13.40,    12.57,    13.58
      308.0,      13.04,    12.70,    13.37,    12.56,    13.54
      309.0,      13.02,    12.67,    13.35,    12.54,    13.51
      310.0,      12.99,    12.64,    13.33,    12.52,    13.48
