Radius (km), Mean (m/s), NE (m/s), SE (m/s), SW (m/s), NW (m/s)
        0.0,       0.00,     0.00,     0.00,     0.00,     0.00
        1.0,       1.80,     1.77,     1.77,     1.83,     1.83
        2.0,       3.06,     3.03,     3.03,     3.09,     3.09
        3.0,       4.18,     4.15,     4.15,     4.20,     4.20
        4.0,       5.21,     5.19,     5.19,     5.23,     5.23
        5.0,       6.18,     6.17,     6.17,     6.20,     6.20
        6.0,       7.11,     7.11,     7.11,     7.11,     7.11
        7.0,       8.01,     8.02,     8.02,     8.00,     8.00
        8.0,       8.87,     8.89,     8.89,     8.85,     8.85
        9.0,       9.71,     9.75,     9.75,     9.68,     9.68
       10.0,      10.53,    10.58,    10.58,    10.48,    10.48
       11.0,      11.33,    11.39,    11.39,    11.27,    11.27
       12.0,      12.11,    12.19,    12.19,    12.04,    12.04
       13.0,      12.88,    12.97,    12.97,    12.79,    12.79
       14.0,      13.63,    13.74,    13.74,    13.53,    13.53
       15.0,      14.38,    14.49,    14.49,    14.26,    14.26
       16.0,      15.11,    15.24,    15.24,    14.98,    14.98
       17.0,      15.83,    15.97,    15.97,    15.68,    15.68
       18.0,      16.54,    16.70,    16.70,    16.38,    16.38
       19.0,      17.24,    17.41,    17.41,    17.06,    17.06
       20.0,      17.93,    18.12,    18.12,    17.74,    17.74
       21.0,      18.61,    18.82,    18.82,    18.41,    18.41
       22.0,      19.29,    19.51,    19.51,    19.07,    19.07
       23.0,      19.96,    20.20,    20.20,    19.72,    19.72
       24.0,      20.62,    20.88,    20.88,    20.37,    20.37
       25.0,      21.28,    21.55,    21.55,    21.01,    21.01
       26.0,      21.93,    22.22,    22.22,    21.65,    21.65
       27.0,      22.58,    22.88,    22.88,    22.28,    22.28
       28.0,      23.22,    23.53,    23.53,    22.90,    22.90
       29.0,      23.85,    24.18,    24.18,    23.52,    23.52
       30.0,      24.48,    24.83,    24.83,    24.13,    24.13
       31.0,      25.10,    25.47,    25.47,    24.74,    24.74
       32.0,      25.74,    26.11,    26.13,    25.35,    25.35
       33.0,      26.40,    26.78,    26.84,    25.98,    25.99
       34.0,      27.10,    27.49,    27.60,    26.65,    26.66
       35.0,      27.87,    28.26,    28.45,    27.39,    27.38
       36.0,      28.70,    29.10,    29.36,    28.19,    28.16
       37.0,      29.59,    29.99,    30.33,    29.06,    28.97
       38.0,      30.50,    30.91,    31.31,    29.97,    29.80
       39.0,      31.39,    31.82,    32.25,    30.86,    30.62
       40.0,      32.21,    32.67,    33.11,    31.70,    31.38
       41.0,      32.93,    33.42,    33.83,    32.44,    32.05
       42.0,      33.51,    34.02,    34.38,    33.02,    32.61
       43.0,      33.92,    34.46,    34.74,    33.43,    33.03
       44.0,      34.16,    34.73,    34.92,    33.65,    33.32
       45.0,      34.24,    34.84,    34.94,    33.70,    33.49
       46.0,      34.19,    34.81,    34.83,    33.60,    33.54
       47.0,      34.05,    34.67,    34.62,    33.38,    33.52
       48.0,      33.84,    34.47,    34.36,    33.09,    33.44
       49.0,      33.60,    34.24,    34.09,    32.76,    33.34
       50.0,      33.36,    34.00,    33.81,    32.42,    33.23
       51.0,      33.13,    33.77,    33.55,    32.10,    33.13
       52.0,      32.92,    33.55,    33.30,    31.80,    33.03
       53.0,      32.72,    33.35,    33.07,    31.52,    32.94
       54.0,      32.53,    33.16,    32.84,    31.25,    32.85
       55.0,      32.34,    32.97,    32.63,    30.99,    32.76
       56.0,      32.15,    32.79,    32.42,    30.74,    32.68
       57.0,      31.98,    32.61,    32.21,    30.50,    32.59
       58.0,      31.80,    32.43,    32.01,    30.26,    32.50
       59.0,      31.63,    32.26,    31.82,    30.03,    32.41
       60.0,      31.47,    32.10,    31.64,    29.81,    32.33
       61.0,      31.31,    31.94,    31.46,    29.59,    32.24
       62.0,      31.15,    31.78,    31.28,    29.38,    32.16
       63.0,      31.00,    31.62,    31.11,    29.18,    32.07
       64.0,      30.85,    31.47,    30.94,    28.98,    31.99
       65.0,      30.70,    31.32,    30.78,    28.79,    31.90
       66.0,      30.56,    31.18,    30.63,    28.60,    31.82
       67.0,      30.42,    31.04,    30.48,    28.42,    31.74
       68.0,      30.28,    30.90,    30.33,    28.24,    31.65
       69.0,      30.15,    30.76,    30.19,    28.07,    31.57
       70.0,      30.02,    30.63,    30.05,    27.90,    31.49
       71.0,      29.89,    30.50,    29.91,    27.74,    31.40
       72.0,      29.76,    30.37,    29.78,    27.58,    31.32
       73.0,      29.64,    30.24,    29.65,    27.42,    31.24
       74.0,      29.52,    30.12,    29.52,    27.27,    31.16
       75.0,      29.40,    30.00,    29.40,    27.12,    31.08
       76.0,      29.28,    29.88,    29.28,    26.98,    31.00
       77.0,      29.17,    29.76,    29.17,    26.84,    30.92
       78.0,      29.06,    29.65,    29.05,    26.70,    30.84
       79.0,      28.95,    29.53,    28.94,    26.56,    30.76
       80.0,      28.84,    29.42,    28.83,    26.43,    30.68
       81.0,      28.74,    29.31,    28.73,    26.31,    30.60
       82.0,      28.63,    29.21,    28.63,    26.18,    30.52
       83.0,      28.53,    29.10,    28.52,    26.06,    30.44
       84.0,      28.43,    28.99,    28.43,    25.94,    30.36
       85.0,      28.33,    28.89,    28.33,    25.82,    30.28
       86.0,      28.23,    28.79,    28.24,    25.70,    30.21
       87.0,      28.14,    28.69,    28.14,    25.59,    30.13
       88.0,      28.04,    28.59,    28.05,    25.48,    30.05
       89.0,      27.95,    28.50,    27.96,    25.37,    29.97
       90.0,      27.86,    28.40,    27.88,    25.27,    29.90
       91.0,      27.77,    28.30,    27.79,    25.16,    29.82
       92.0,      27.68,    28.21,    27.71,    25.06,    29.74
       93.0,      27.59,    28.12,    27.63,    24.96,    29.67
       94.0,      27.51,    28.03,    27.55,    24.86,    29.59
       95.0,      27.42,    27.94,    27.47,    24.77,    29.52
       96.0,      27.34,    27.85,    27.39,    24.67,    29.44
       97.0,      27.26,    27.76,    27.32,    24.58,    29.37
       98.0,      27.17,    27.67,    27.24,    24.48,    29.29
       99.0,      27.09,    27.59,    27.17,    24.39,    29.22
      100.0,      27.01,    27.50,    27.10,    24.31,    29.15
      101.0,      26.93,    27.42,    27.03,    24.22,    29.07
      102.0,      26.86,    27.34,    26.96,    24.13,    29.00
      103.0,      26.78,    27.25,    26.89,    24.05,    28.93
      104.0,      26.70,    27.17,    26.82,    23.96,    28.85
      105.0,      26.63,    27.09,    26.75,    23.88,    28.78
      106.0,      26.55,    27.01,    26.69,    23.80,    28.71
      107.0,      26.48,    26.93,    26.62,    23.72,    28.64
      108.0,      26.41,    26.85,    26.56,    23.64,    28.57
      109.0,      26.33,    26.78,    26.50,    23.56,    28.49
      110.0,      26.26,    26.70,    26.43,    23.49,    28.42
      111.0,      26.19,    26.62,    26.37,    23.41,    28.35
      112.0,      26.12,    26.55,    26.31,    23.34,    28.28
      113.0,      26.05,    26.47,    26.25,    23.26,    28.21
      114.0,      25.98,    26.40,    26.19,    23.19,    28.14
      115.0,      25.91,    26.32,    26.13,    23.12,    28.07
      116.0,      25.84,    26.25,    26.08,    23.05,    28.00
      117.0,      25.78,    26.18,    26.02,    22.98,    27.93
      118.0,      25.71,    26.10,    25.96,    22.91,    27.86
      119.0,      25.64,    26.03,    25.91,    22.84,    27.79
      120.0,      25.58,    25.96,    25.85,    22.77,    27.73
      121.0,      25.51,    25.89,    25.80,    22.70,    27.66
      122.0,      25.45,    25.82,    25.74,    22.63,    27.59
      123.0,      25.38,    25.75,    25.69,    22.57,    27.52
      124.0,      25.32,    25.68,    25.64,    22.50,    27.45
      125.0,      25.25,    25.61,    25.58,    22.44,    27.39
      126.0,      25.19,    25.54,    25.53,    22.37,    27.32
      127.0,      25.13,    25.47,    25.48,    22.31,    27.25
      128.0,      25.07,    25.41,    25.43,    22.24,    27.18
      129.0,      25.00,    25.34,    25.38,    22.18,    27.12
      130.0,      24.94,    25.27,    25.33,    22.12,    27.05
      131.0,      24.88,    25.20,    25.28,    22.06,    26.99
      132.0,      24.82,    25.14,    25.23,    22.00,    26.92
      133.0,      24.76,    25.07,    25.18,    21.94,    26.85
      134.0,      24.70,    25.01,    25.13,    21.87,    26.79
      135.0,      24.64,    24.94,    25.08,    21.82,    26.72
      136.0,      24.58,    24.88,    25.04,    21.76,    26.66
      137.0,      24.52,    24.81,    24.99,    21.70,    26.59
      138.0,      24.46,    24.75,    24.94,    21.64,    26.53
      139.0,      24.40,    24.68,    24.89,    21.58,    26.46
      140.0,      24.35,    24.62,    24.85,    21.52,    26.40
      141.0,      24.29,    24.56,    24.80,    21.46,    26.34
      142.0,      24.23,    24.49,    24.75,    21.41,    26.27
      143.0,      24.17,    24.43,    24.71,    21.35,    26.21
      144.0,      24.12,    24.37,    24.66,    21.29,    26.14
      145.0,      24.06,    24.30,    24.62,    21.24,    26.08
      146.0,      24.00,    24.24,    24.57,    21.18,    26.02
      147.0,      23.95,    24.18,    24.53,    21.13,    25.96
      148.0,      23.89,    24.12,    24.48,    21.07,    25.89
      149.0,      23.84,    24.06,    24.44,    21.02,    25.83
      150.0,      23.78,    24.00,    24.39,    20.96,    25.77
      151.0,      23.72,    23.94,    24.35,    20.91,    25.71
      152.0,      23.67,    23.87,    24.30,    20.85,    25.64
      153.0,      23.61,    23.81,    24.26,    20.80,    25.58
      154.0,      23.56,    23.75,    24.22,    20.75,    25.52
      155.0,      23.51,    23.69,    24.17,    20.69,    25.46
      156.0,      23.45,    23.63,    24.13,    20.64,    25.40
      157.0,      23.40,    23.57,    24.09,    20.59,    25.34
      158.0,      23.34,    23.52,    24.05,    20.54,    25.28
      159.0,      23.29,    23.46,    24.00,    20.49,    25.22
      160.0,      23.24,    23.40,    23.96,    20.43,    25.16
      161.0,      23.18,    23.34,    23.92,    20.38,    25.10
      162.0,      23.13,    23.28,    23.88,    20.33,    25.04
      163.0,      23.08,    23.22,    23.83,    20.28,    24.98
      164.0,      23.03,    23.16,    23.79,    20.23,    24.92
      165.0,      22.97,    23.11,    23.75,    20.18,    24.86
      166.0,      22.92,    23.05,    23.71,    20.13,    24.80
      167.0,      22.87,    22.99,    23.67,    20.08,    24.74
      168.0,      22.82,    22.93,    23.63,    20.03,    24.68
      169.0,      22.77,    22.88,    23.59,    19.98,    24.62
      170.0,      22.71,    22.82,    23.55,    19.93,    24.56
      171.0,      22.66,    22.76,    23.51,    19.88,    24.51
      172.0,      22.61,    22.71,    23.46,    19.83,    24.45
      173.0,      22.56,    22.65,    23.42,    19.78,    24.39
      174.0,      22.51,    22.59,    23.38,    19.73,    24.33
      175.0,      22.46,    22.54,    23.34,    19.68,    24.28
      176.0,      22.41,    22.48,    23.30,    19.63,    24.22
      177.0,      22.36,    22.43,    23.26,    19.58,    24.16
      178.0,      22.31,    22.37,    23.22,    19.54,    24.10
      179.0,      22.26,    22.32,    23.18,    19.49,    24.05
      180.0,      22.21,    22.26,    23.14,    19.44,    23.99
      181.0,      22.16,    22.21,    23.10,    19.39,    23.93
      182.0,      22.11,    22.15,    23.07,    19.34,    23.88
      183.0,      22.06,    22.10,    23.03,    19.30,    23.82
      184.0,      22.01,    22.04,    22.99,    19.25,    23.77
      185.0,      21.96,    21.99,    22.95,    19.20,    23.71
      186.0,      21.91,    21.93,    22.91,    19.16,    23.65
      187.0,      21.86,    21.88,    22.87,    19.11,    23.60
      188.0,      21.82,    21.83,    22.83,    19.06,    23.54
      189.0,      21.77,    21.77,    22.79,    19.02,    23.49
      190.0,      21.72,    21.72,    22.75,    18.97,    23.43
      191.0,      21.67,    21.66,    22.71,    18.92,    23.38
      192.0,      21.62,    21.61,    22.68,    18.88,    23.32
      193.0,      21.57,    21.56,    22.64,    18.83,    23.27
      194.0,      21.53,    21.50,    22.60,    18.79,    23.21
      195.0,      21.48,    21.45,    22.56,    18.74,    23.16
      196.0,      21.43,    21.40,    22.52,    18.69,    23.11
      197.0,      21.38,    21.35,    22.49,    18.65,    23.05
      198.0,      21.34,    21.29,    22.45,    18.60,    23.00
      199.0,      21.29,    21.24,    22.41,    18.56,    22.94
      200.0,      21.24,    21.19,    22.37,    18.51,    22.89
      201.0,      21.19,    21.14,    22.33,    18.47,    22.84
      202.0,      21.15,    21.09,    22.30,    18.42,    22.78
      203.0,      21.10,    21.03,    22.26,    18.38,    22.73
      204.0,      21.05,    20.98,    22.22,    18.33,    22.68
      205.0,      21.01,    20.93,    22.18,    18.29,    22.63
      206.0,      20.96,    20.88,    22.15,    18.25,    22.57
      207.0,      20.92,    20.83,    22.11,    18.20,    22.52
      208.0,      20.87,    20.78,    22.07,    18.16,    22.47
      209.0,      20.82,    20.73,    22.04,    18.11,    22.42
      210.0,      20.78,    20.68,    22.00,    18.07,    22.36
      211.0,      20.73,    20.62,    21.96,    18.03,    22.31
      212.0,      20.69,    20.57,    21.93,    17.98,    22.26
      213.0,      20.64,    20.52,    21.89,    17.94,    22.21
      214.0,      20.59,    20.47,    21.85,    17.90,    22.16
      215.0,      20.55,    20.42,    21.82,    17.85,    22.11
      216.0,      20.50,    20.37,    21.78,    17.81,    22.06
      217.0,      20.46,    20.32,    21.74,    17.77,    22.01
      218.0,      20.41,    20.27,    21.71,    17.72,    21.95
      219.0,      20.37,    20.22,    21.67,    17.68,    21.90
      220.0,      20.32,    20.17,    21.63,    17.64,    21.85
      221.0,      20.28,    20.13,    21.60,    17.60,    21.80
      222.0,      20.24,    20.08,    21.56,    17.55,    21.75
      223.0,      20.19,    20.03,    21.52,    17.51,    21.70
      224.0,      20.15,    19.98,    21.49,    17.47,    21.65
      225.0,      20.10,    19.93,    21.45,    17.43,    21.60
      226.0,      20.06,    19.88,    21.42,    17.39,    21.55
      227.0,      20.02,    19.83,    21.38,    17.34,    21.50
      228.0,      19.97,    19.78,    21.35,    17.30,    21.45
      229.0,      19.93,    19.73,    21.31,    17.26,    21.40
      230.0,      19.88,    19.69,    21.27,    17.22,    21.36
      231.0,      19.84,    19.64,    21.24,    17.18,    21.31
      232.0,      19.80,    19.59,    21.20,    17.14,    21.26
      233.0,      19.75,    19.54,    21.17,    17.10,    21.21
      234.0,      19.71,    19.49,    21.13,    17.05,    21.16
      235.0,      19.67,    19.45,    21.10,    17.01,    21.11
      236.0,      19.62,    19.40,    21.06,    16.97,    21.06
      237.0,      19.58,    19.35,    21.03,    16.93,    21.01
      238.0,      19.54,    19.30,    20.99,    16.89,    20.97
      239.0,      19.50,    19.26,    20.96,    16.85,    20.92
      240.0,      19.45,    19.21,    20.92,    16.81,    20.87
      241.0,      19.41,    19.16,    20.89,    16.77,    20.82
      242.0,      19.37,    19.12,    20.85,    16.73,    20.78
      243.0,      19.33,    19.07,    20.82,    16.69,    20.73
      244.0,      19.28,    19.02,    20.78,    16.65,    20.68
      245.0,      19.24,    18.98,    20.75,    16.61,    20.63
      246.0,      19.20,    18.93,    20.71,    16.57,    20.59
      247.0,      19.16,    18.88,    20.68,    16.53,    20.54
      248.0,      19.12,    18.84,    20.64,    16.49,    20.49
      249.0,      19.07,    18.79,    20.61,    16.45,    20.45
      250.0,      19.03,    18.75,    20.58,    16.41,    20.40
      251.0,      18.99,    18.70,    20.54,    16.37,    20.35
      252.0,      18.95,    18.65,    20.51,    16.33,    20.31
      253.0,      18.91,    18.61,    20.47,    16.29,    20.26
      254.0,      18.87,    18.56,    20.44,    16.25,    20.21
      255.0,      18.83,    18.52,    20.41,    16.21,    20.17
      256.0,      18.79,    18.47,    20.37,    16.18,    20.12
      257.0,      18.74,    18.43,    20.34,    16.14,    20.08
      258.0,      18.70,    18.38,    20.30,    16.10,    20.03
      259.0,      18.66,    18.34,    20.27,    16.06,    19.99
      260.0,      18.62,    18.29,    20.24,    16.02,    19.94
      261.0,      18.58,    18.25,    20.20,    15.98,    19.89
      262.0,      18.54,    18.20,    20.17,    15.94,    19.85
      263.0,      18.50,    18.16,    20.14,    15.91,    19.80
      264.0,      18.46,    18.12,    20.10,    15.87,    19.76
      265.0,      18.42,    18.07,    20.07,    15.83,    19.71
      266.0,      18.38,    18.03,    20.03,    15.79,    19.67
      267.0,      18.34,    17.98,    20.00,    15.75,    19.63
      268.0,      18.30,    17.94,    19.97,    15.72,    19.58
      269.0,      18.26,    17.90,    19.93,    15.68,    19.54
      270.0,      18.22,    17.85,    19.90,    15.64,    19.49
      271.0,      18.18,    17.81,    19.87,    15.60,    19.45
      272.0,      18.14,    17.76,    19.84,    15.57,    19.40
      273.0,      18.10,    17.72,    19.80,    15.53,    19.36
      274.0,      18.06,    17.68,    19.77,    15.49,    19.32
      275.0,      18.02,    17.63,    19.74,    15.45,    19.27
      276.0,      17.99,    17.59,    19.70,    15.42,    19.23
      277.0,      17.95,    17.55,    19.67,    15.38,    19.19
      278.0,      17.91,    17.51,    19.64,    15.34,    19.14
      279.0,      17.87,    17.46,    19.61,    15.31,    19.10
      280.0,      17.83,    17.42,    19.57,    15.27,    19.06
      281.0,      17.79,    17.38,    19.54,    15.23,    19.01
      282.0,      17.75,    17.34,    19.51,    15.20,    18.97
      283.0,      17.71,    17.29,    19.48,    15.16,    18.93
      284.0,      17.68,    17.25,    19.44,    15.12,    18.89
      285.0,      17.64,    17.21,    19.41,    15.09,    18.84
      286.0,      17.60,    17.17,    19.38,    15.05,    18.80
      287.0,      17.56,    17.12,    19.35,    15.02,    18.76
      288.0,      17.52,    17.08,    19.31,    14.98,    18.72
      289.0,      17.49,    17.04,    19.28,    14.94,    18.67
      290.0,      17.45,    17.00,    19.25,    14.91,    18.63
      291.0,      17.41,    16.96,    19.22,    14.87,    18.59
      292.0,      17.37,    16.92,    19.19,    14.84,    18.55
      293.0,      17.33,    16.88,    19.15,    14.80,    18.51
      294.0,      17.30,    16.83,    19.12,    14.77,    18.46
      295.0,      17.26,    16.79,    19.09,    14.73,    18.42
      296.0,      17.22,    16.75,    19.06,    14.69,    18.38
      297.0,      17.18,    16.71,    19.03,    14.66,    18.34
      298.0,      17.15,    16.67,    19.00,    14.62,    18.30
      299.0,      17.11,    16.63,    18.96,    14.59,    18.26
      300.0,      17.07,    16.59,    18.93,    14.55,    18.22
      301.0,      17.04,    16.55,    18.90,    14.52,    18.18
      302.0,      17.00,    16.51,    18.87,    14.48,    18.13
      303.0,      16.96,    16.47,    18.84,    14.45,    18.09
      304.0,      16.93,    16.43,    18.81,    14.42,    18.05
      305.0,      16.89,    16.39,    18.78,    14.38,    18.01
      306.0,      16.85,    16.35,    18.74,    14.35,    17.97
      307.0,      16.82,    16.31,    18.71,    14.31,    17.93
      308.0,      16.78,    16.27,    18.68,    14.28,    17.89
      309.0,      16.74,    16.23,    18.65,    14.24,    17.85
      310.0,      16.71,    16.19,    18.62,    14.21,    17.81
