Radius (km), Mean (m/s), NE (m/s), SE (m/s), SW (m/s), NW (m/s)
        0.0,       8.58,     8.98,     9.84,     6.56,     8.93
        1.0,      15.62,    16.05,    16.95,    13.67,    15.82
        2.0,      21.08,    21.58,    22.43,    19.22,    21.07
        3.0,      25.56,    26.13,    26.87,    23.90,    25.34
        4.0,      29.09,    29.71,    30.28,    27.69,    28.68
        5.0,      31.66,    32.33,    32.68,    30.55,    31.10
        6.0,      33.34,    34.04,    34.15,    32.48,    32.67
        7.0,      34.22,    34.97,    34.82,    33.56,    33.53
        8.0,      34.47,    35.27,    34.87,    33.93,    33.81
        9.0,      34.26,    35.13,    34.48,    33.74,    33.70
       10.0,      33.78,    34.72,    33.85,    33.19,    33.36
       11.0,      33.16,    34.19,    33.10,    32.45,    32.90
       12.0,      32.51,    33.63,    32.35,    31.64,    32.42
       13.0,      31.88,    33.10,    31.63,    30.85,    31.96
       14.0,      31.30,    32.61,    30.95,    30.11,    31.52
       15.0,      30.74,    32.14,    30.31,    29.43,    31.10
       16.0,      30.21,    31.68,    29.70,    28.78,    30.68
       17.0,      29.70,    31.24,    29.11,    28.16,    30.28
       18.0,      29.20,    30.81,    28.54,    27.56,    29.88
       19.0,      28.71,    30.40,    27.99,    26.98,    29.49
       20.0,      28.25,    30.00,    27.46,    26.42,    29.10
       21.0,      27.79,    29.61,    26.95,    25.89,    28.72
       22.0,      27.35,    29.23,    26.46,    25.37,    28.35
       23.0,      26.93,    28.87,    25.99,    24.87,    27.99
       24.0,      26.51,    28.51,    25.53,    24.38,    27.63
       25.0,      26.11,    28.17,    25.09,    23.92,    27.28
       26.0,      25.73,    27.83,    24.67,    23.47,    26.94
       27.0,      25.35,    27.51,    24.26,    23.03,    26.60
       28.0,      24.99,    27.19,    23.87,    22.61,    26.26
       29.0,      24.63,    26.89,    23.49,    22.21,    25.94
       30.0,      24.29,    26.59,    23.13,    21.82,    25.62
       31.0,      23.95,    26.30,    22.78,    21.44,    25.30
       32.0,      23.63,    26.02,    22.44,    21.07,    24.99
       33.0,      23.32,    25.75,    22.11,    20.72,    24.69
       34.0,      23.01,    25.48,    21.80,    20.38,    24.39
       35.0,      22.72,    25.23,    21.49,    20.05,    24.10
       36.0,      22.43,    24.98,    21.20,    19.73,    23.81
       37.0,      22.15,    24.73,    20.92,    19.43,    23.53
       38.0,      21.88,    24.49,    20.64,    19.13,    23.25
       39.0,      21.62,    24.26,    20.38,    18.84,    22.98
       40.0,      21.36,    24.04,    20.13,    18.56,    22.71
       41.0,      21.11,    23.82,    19.88,    18.29,    22.45
       42.0,      20.87,    23.61,    19.64,    18.03,    22.19
       43.0,      20.63,    23.40,    19.41,    17.78,    21.94
       44.0,      20.40,    23.20,    19.19,    17.53,    21.69
       45.0,      20.18,    23.00,    18.98,    17.30,    21.45
       46.0,      19.97,    22.81,    18.77,    17.07,    21.21
       47.0,      19.75,    22.63,    18.57,    16.85,    20.97
       48.0,      19.55,    22.44,    18.38,    16.63,    20.74
       49.0,      19.35,    22.27,    18.19,    16.42,    20.51
       50.0,      19.15,    22.09,    18.01,    16.22,    20.29
       51.0,      18.97,    21.93,    17.84,    16.02,    20.07
       52.0,      18.78,    21.76,    17.67,    15.83,    19.86
       53.0,      18.60,    21.60,    17.51,    15.65,    19.64
       54.0,      18.42,    21.44,    17.35,    15.47,    19.44
       55.0,      18.25,    21.29,    17.20,    15.29,    19.23
       56.0,      18.09,    21.14,    17.05,    15.12,    19.03
       57.0,      17.92,    20.99,    16.91,    14.96,    18.84
       58.0,      17.77,    20.85,    16.77,    14.80,    18.64
       59.0,      17.61,    20.71,    16.63,    14.64,    18.45
       60.0,      17.46,    20.57,    16.50,    14.49,    18.27
       61.0,      17.31,    20.44,    16.38,    14.35,    18.08
       62.0,      17.17,    20.31,    16.26,    14.20,    17.90
       63.0,      17.03,    20.18,    16.14,    14.07,    17.72
       64.0,      16.89,    20.06,    16.02,    13.93,    17.55
       65.0,      16.76,    19.93,    15.91,    13.80,    17.38
       66.0,      16.62,    19.81,    15.80,    13.67,    17.21
       67.0,      16.50,    19.69,    15.70,    13.55,    17.05
       68.0,      16.37,    19.58,    15.59,    13.42,    16.88
       69.0,      16.25,    19.47,    15.50,    13.31,    16.73
       70.0,      16.13,    19.35,    15.40,    13.19,    16.57
       71.0,      16.01,    19.25,    15.30,    13.08,    16.42
       72.0,      15.90,    19.14,    15.21,    12.97,    16.26
       73.0,      15.78,    19.03,    15.12,    12.86,    16.12
       74.0,      15.67,    18.93,    15.04,    12.76,    15.97
       75.0,      15.57,    18.83,    14.95,    12.65,    15.83
       76.0,      15.46,    18.73,    14.87,    12.55,    15.69
       77.0,      15.36,    18.63,    14.79,    12.46,    15.55
       78.0,      15.26,    18.54,    14.72,    12.36,    15.41
       79.0,      15.16,    18.44,    14.64,    12.27,    15.28
       80.0,      15.06,    18.35,    14.57,    12.17,    15.15
       81.0,      14.96,    18.26,    14.49,    12.09,    15.02
       82.0,      14.87,    18.17,    14.42,    12.00,    14.89
       83.0,      14.78,    18.08,    14.35,    11.91,    14.76
       84.0,      14.69,    17.99,    14.29,    11.83,    14.64
       85.0,      14.60,    17.91,    14.22,    11.75,    14.52
       86.0,      14.51,    17.82,    14.16,    11.67,    14.40
       87.0,      14.43,    17.74,    14.10,    11.59,    14.29
       88.0,      14.34,    17.66,    14.04,    11.51,    14.17
       89.0,      14.26,    17.58,    13.98,    11.43,    14.06
       90.0,      14.18,    17.50,    13.92,    11.36,    13.95
       91.0,      14.10,    17.42,    13.86,    11.28,    13.84
       92.0,      14.02,    17.34,    13.80,    11.21,    13.73
       93.0,      13.95,    17.27,    13.75,    11.14,    13.63
       94.0,      13.87,    17.19,    13.70,    11.07,    13.52
       95.0,      13.80,    17.12,    13.64,    11.00,    13.42
       96.0,      13.72,    17.04,    13.59,    10.94,    13.32
       97.0,      13.65,    16.97,    13.54,    10.87,    13.22
       98.0,      13.58,    16.90,    13.49,    10.81,    13.12
       99.0,      13.51,    16.83,    13.44,    10.74,    13.03
      100.0,      13.44,    16.76,    13.40,    10.68,    12.94
      101.0,      13.38,    16.69,    13.35,    10.62,    12.84
      102.0,      13.31,    16.62,    13.30,    10.56,    12.75
      103.0,      13.24,    16.55,    13.26,    10.50,    12.66
      104.0,      13.18,    16.49,    13.21,    10.44,    12.58
      105.0,      13.11,    16.42,    13.17,    10.38,    12.49
      106.0,      13.05,    16.36,    13.13,    10.32,    12.40
      107.0,      12.99,    16.29,    13.08,    10.27,    12.32
      108.0,      12.93,    16.23,    13.04,    10.21,    12.24
      109.0,      12.87,    16.17,    13.00,    10.16,    12.16
      110.0,      12.81,    16.10,    12.96,    10.10,    12.08
      111.0,      12.75,    16.04,    12.92,    10.05,    12.00
      112.0,      12.69,    15.98,    12.88,     9.99,    11.92
      113.0,      12.64,    15.92,    12.84,     9.94,    11.85
      114.0,      12.58,    15.86,    12.80,     9.89,    11.77
      115.0,      12.53,    15.80,    12.77,     9.84,    11.70
      116.0,      12.47,    15.74,    12.73,     9.79,    11.63
      117.0,      12.42,    15.68,    12.69,     9.74,    11.56
      118.0,      12.36,    15.62,    12.65,     9.69,    11.49
      119.0,      12.31,    15.56,    12.62,     9.64,    11.42
      120.0,      12.26,    15.51,    12.58,     9.59,    11.35
      121.0,      12.21,    15.45,    12.55,     9.54,    11.28
      122.0,      12.16,    15.39,    12.51,     9.50,    11.22
      123.0,      12.11,    15.34,    12.48,     9.45,    11.15
      124.0,      12.06,    15.28,    12.44,     9.40,    11.09
      125.0,      12.01,    15.23,    12.41,     9.36,    11.03
      126.0,      11.96,    15.17,    12.38,     9.31,    10.96
      127.0,      11.91,    15.12,    12.35,     9.27,    10.90
      128.0,      11.86,    15.07,    12.31,     9.22,    10.84
      129.0,      11.81,    15.01,    12.28,     9.18,    10.79
      130.0,      11.77,    14.96,    12.25,     9.14,    10.73
      131.0,      11.72,    14.91,    12.22,     9.09,    10.67
      132.0,      11.68,    14.85,    12.19,     9.05,    10.61
      133.0,      11.63,    14.80,    12.15,     9.01,    10.56
      134.0,      11.59,    14.75,    12.12,     8.97,    10.50
      135.0,      11.54,    14.70,    12.09,     8.92,    10.45
      136.0,      11.50,    14.65,    12.06,     8.88,    10.40
      137.0,      11.45,    14.60,    12.03,     8.84,    10.35
      138.0,      11.41,    14.55,    12.00,     8.80,    10.29
      139.0,      11.37,    14.50,    11.97,     8.76,    10.24
      140.0,      11.33,    14.45,    11.94,     8.72,    10.19
      141.0,      11.28,    14.40,    11.91,     8.68,    10.14
      142.0,      11.24,    14.35,    11.89,     8.64,    10.10
      143.0,      11.20,    14.30,    11.86,     8.60,    10.05
      144.0,      11.16,    14.25,    11.83,     8.56,    10.00
      145.0,      11.12,    14.21,    11.80,     8.52,     9.95
      146.0,      11.08,    14.16,    11.77,     8.49,     9.91
      147.0,      11.04,    14.11,    11.74,     8.45,     9.86
      148.0,      11.00,    14.06,    11.72,     8.41,     9.82
      149.0,      10.96,    14.01,    11.69,     8.37,     9.78
      150.0,      10.92,    13.97,    11.66,     8.34,     9.73
      151.0,      10.89,    13.92,    11.63,     8.30,     9.69
      152.0,      10.85,    13.87,    11.61,     8.26,     9.65
      153.0,      10.81,    13.83,    11.58,     8.23,     9.61
      154.0,      10.77,    13.78,    11.55,     8.19,     9.57
      155.0,      10.74,    13.74,    11.52,     8.15,     9.53
      156.0,      10.70,    13.69,    11.50,     8.12,     9.49
      157.0,      10.66,    13.65,    11.47,     8.08,     9.45
      158.0,      10.63,    13.60,    11.45,     8.05,     9.41
      159.0,      10.59,    13.56,    11.42,     8.01,     9.37
      160.0,      10.55,    13.51,    11.39,     7.98,     9.33
      161.0,      10.52,    13.47,    11.37,     7.94,     9.30
      162.0,      10.48,    13.42,    11.34,     7.91,     9.26
      163.0,      10.45,    13.38,    11.32,     7.87,     9.22
      164.0,      10.41,    13.34,    11.29,     7.84,     9.19
      165.0,      10.38,    13.29,    11.26,     7.80,     9.15
      166.0,      10.34,    13.25,    11.24,     7.77,     9.12
      167.0,      10.31,    13.20,    11.21,     7.74,     9.08
      168.0,      10.28,    13.16,    11.19,     7.70,     9.05
      169.0,      10.24,    13.12,    11.16,     7.67,     9.02
      170.0,      10.21,    13.08,    11.14,     7.64,     8.98
      171.0,      10.18,    13.03,    11.11,     7.61,     8.95
      172.0,      10.14,    12.99,    11.09,     7.57,     8.92
      173.0,      10.11,    12.95,    11.06,     7.54,     8.89
      174.0,      10.08,    12.91,    11.04,     7.51,     8.86
      175.0,      10.05,    12.87,    11.01,     7.48,     8.82
      176.0,      10.01,    12.82,    10.99,     7.44,     8.79
      177.0,       9.98,    12.78,    10.97,     7.41,     8.76
      178.0,       9.95,    12.74,    10.94,     7.38,     8.73
      179.0,       9.92,    12.70,    10.92,     7.35,     8.70
      180.0,       9.89,    12.66,    10.89,     7.32,     8.68
      181.0,       9.86,    12.62,    10.87,     7.29,     8.65
      182.0,       9.82,    12.58,    10.85,     7.26,     8.62
      183.0,       9.79,    12.54,    10.82,     7.22,     8.59
      184.0,       9.76,    12.50,    10.80,     7.19,     8.56
      185.0,       9.73,    12.46,    10.77,     7.16,     8.54
      186.0,       9.70,    12.42,    10.75,     7.13,     8.51
      187.0,       9.67,    12.38,    10.73,     7.10,     8.48
      188.0,       9.64,    12.34,    10.70,     7.07,     8.46
      189.0,       9.61,    12.30,    10.68,     7.04,     8.43
      190.0,       9.58,    12.26,    10.66,     7.01,     8.40
      191.0,       9.55,    12.22,    10.63,     6.98,     8.38
      192.0,       9.52,    12.18,    10.61,     6.95,     8.35
      193.0,       9.50,    12.14,    10.59,     6.92,     8.33
      194.0,       9.47,    12.10,    10.56,     6.90,     8.30
      195.0,       9.44,    12.06,    10.54,     6.87,     8.28
      196.0,       9.41,    12.02,    10.52,     6.84,     8.25
      197.0,       9.38,    11.99,    10.50,     6.81,     8.23
      198.0,       9.35,    11.95,    10.47,     6.78,     8.21
      199.0,       9.32,    11.91,    10.45,     6.75,     8.18
      200.0,       9.30,    11.87,    10.43,     6.72,     8.16
      201.0,       9.27,    11.83,    10.41,     6.69,     8.14
      202.0,       9.24,    11.80,    10.38,     6.67,     8.11
      203.0,       9.21,    11.76,    10.36,     6.64,     8.09
      204.0,       9.18,    11.72,    10.34,     6.61,     8.07
      205.0,       9.16,    11.68,    10.32,     6.58,     8.05
      206.0,       9.13,    11.65,    10.29,     6.56,     8.03
      207.0,       9.10,    11.61,    10.27,     6.53,     8.00
      208.0,       9.08,    11.57,    10.25,     6.50,     7.98
      209.0,       9.05,    11.54,    10.23,     6.47,     7.96
      210.0,       9.02,    11.50,    10.20,     6.45,     7.94
      211.0,       9.00,    11.46,    10.18,     6.42,     7.92
      212.0,       8.97,    11.43,    10.16,     6.39,     7.90
      213.0,       8.94,    11.39,    10.14,     6.37,     7.88
      214.0,       8.92,    11.35,    10.12,     6.34,     7.86
      215.0,       8.89,    11.32,    10.09,     6.31,     7.84
      216.0,       8.87,    11.28,    10.07,     6.29,     7.82
      217.0,       8.84,    11.25,    10.05,     6.26,     7.80
      218.0,       8.81,    11.21,    10.03,     6.23,     7.78
      219.0,       8.79,    11.17,    10.01,     6.21,     7.76
      220.0,       8.76,    11.14,     9.99,     6.18,     7.74
      221.0,       8.74,    11.10,     9.97,     6.16,     7.72
      222.0,       8.71,    11.07,     9.94,     6.13,     7.71
      223.0,       8.69,    11.03,     9.92,     6.10,     7.69
      224.0,       8.66,    11.00,     9.90,     6.08,     7.67
      225.0,       8.64,    10.96,     9.88,     6.05,     7.65
      226.0,       8.61,    10.93,     9.86,     6.03,     7.63
      227.0,       8.59,    10.89,     9.84,     6.00,     7.62
      228.0,       8.56,    10.86,     9.82,     5.98,     7.60
      229.0,       8.54,    10.83,     9.80,     5.95,     7.58
      230.0,       8.51,    10.79,     9.77,     5.93,     7.56
      231.0,       8.49,    10.76,     9.75,     5.90,     7.55
      232.0,       8.47,    10.72,     9.73,     5.88,     7.53
      233.0,       8.44,    10.69,     9.71,     5.85,     7.51
      234.0,       8.42,    10.65,     9.69,     5.83,     7.49
      235.0,       8.39,    10.62,     9.67,     5.81,     7.48
      236.0,       8.37,    10.59,     9.65,     5.78,     7.46
      237.0,       8.35,    10.55,     9.63,     5.76,     7.44
      238.0,       8.32,    10.52,     9.61,     5.73,     7.43
      239.0,       8.30,    10.49,     9.59,     5.71,     7.41
      240.0,       8.28,    10.45,     9.57,     5.69,     7.40
      241.0,       8.25,    10.42,     9.55,     5.66,     7.38
      242.0,       8.23,    10.39,     9.53,     5.64,     7.36
      243.0,       8.21,    10.36,     9.51,     5.61,     7.35
      244.0,       8.18,    10.32,     9.49,     5.59,     7.33
      245.0,       8.16,    10.29,     9.47,     5.57,     7.32
      246.0,       8.14,    10.26,     9.44,     5.55,     7.30
      247.0,       8.11,    10.23,     9.42,     5.52,     7.29
      248.0,       8.09,    10.19,     9.40,     5.50,     7.27
      249.0,       8.07,    10.16,     9.38,     5.48,     7.26
      250.0,       8.05,    10.13,     9.36,     5.45,     7.24
      251.0,       8.02,    10.10,     9.34,     5.43,     7.23
      252.0,       8.00,    10.06,     9.32,     5.41,     7.21
      253.0,       7.98,    10.03,     9.30,     5.39,     7.20
      254.0,       7.96,    10.00,     9.28,     5.36,     7.18
      255.0,       7.94,     9.97,     9.26,     5.34,     7.17
      256.0,       7.91,     9.94,     9.24,     5.32,     7.15
      257.0,       7.89,     9.91,     9.23,     5.30,     7.14
      258.0,       7.87,     9.88,     9.21,     5.27,     7.13
      259.0,       7.85,     9.84,     9.19,     5.25,     7.11
      260.0,       7.83,     9.81,     9.17,     5.23,     7.10
      261.0,       7.81,     9.78,     9.15,     5.21,     7.08
      262.0,       7.78,     9.75,     9.13,     5.19,     7.07
      263.0,       7.76,     9.72,     9.11,     5.17,     7.06
      264.0,       7.74,     9.69,     9.09,     5.14,     7.04
      265.0,       7.72,     9.66,     9.07,     5.12,     7.03
      266.0,       7.70,     9.63,     9.05,     5.10,     7.02
      267.0,       7.68,     9.60,     9.03,     5.08,     7.00
      268.0,       7.66,     9.57,     9.01,     5.06,     6.99
      269.0,       7.64,     9.54,     8.99,     5.04,     6.98
      270.0,       7.61,     9.51,     8.97,     5.02,     6.96
      271.0,       7.59,     9.48,     8.95,     5.00,     6.95
      272.0,       7.57,     9.45,     8.93,     4.98,     6.94
      273.0,       7.55,     9.42,     8.91,     4.95,     6.92
      274.0,       7.53,     9.39,     8.90,     4.93,     6.91
      275.0,       7.51,     9.36,     8.88,     4.91,     6.90
      276.0,       7.49,     9.33,     8.86,     4.89,     6.88
      277.0,       7.47,     9.30,     8.84,     4.87,     6.87
      278.0,       7.45,     9.27,     8.82,     4.85,     6.86
      279.0,       7.43,     9.24,     8.80,     4.83,     6.85
      280.0,       7.41,     9.21,     8.78,     4.81,     6.83
      281.0,       7.39,     9.18,     8.76,     4.79,     6.82
      282.0,       7.37,     9.15,     8.74,     4.77,     6.81
      283.0,       7.35,     9.12,     8.73,     4.75,     6.80
      284.0,       7.33,     9.10,     8.71,     4.73,     6.79
      285.0,       7.31,     9.07,     8.69,     4.71,     6.77
      286.0,       7.29,     9.04,     8.67,     4.69,     6.76
      287.0,       7.27,     9.01,     8.65,     4.67,     6.75
      288.0,       7.25,     8.98,     8.63,     4.65,     6.74
      289.0,       7.23,     8.95,     8.61,     4.64,     6.73
      290.0,       7.21,     8.92,     8.60,     4.62,     6.71
      291.0,       7.19,     8.90,     8.58,     4.60,     6.70
      292.0,       7.17,     8.87,     8.56,     4.58,     6.69
      293.0,       7.15,     8.84,     8.54,     4.56,     6.68
      294.0,       7.14,     8.81,     8.52,     4.54,     6.67
      295.0,       7.12,     8.79,     8.51,     4.52,     6.65
      296.0,       7.10,     8.76,     8.49,     4.50,     6.64
      297.0,       7.08,     8.73,     8.47,     4.48,     6.63
      298.0,       7.06,     8.70,     8.45,     4.46,     6.62
      299.0,       7.04,     8.67,     8.43,     4.45,     6.61
      300.0,       7.02,     8.65,     8.41,     4.43,     6.60
      301.0,       7.00,     8.62,     8.40,     4.41,     6.59
      302.0,       6.98,     8.59,     8.38,     4.39,     6.58
      303.0,       6.97,     8.57,     8.36,     4.37,     6.56
      304.0,       6.95,     8.54,     8.34,     4.35,     6.55
      305.0,       6.93,     8.51,     8.33,     4.34,     6.54
      306.0,       6.91,     8.48,     8.31,     4.32,     6.53
      307.0,       6.89,     8.46,     8.29,     4.30,     6.52
      308.0,       6.87,     8.43,     8.27,     4.28,     6.51
      309.0,       6.86,     8.40,     8.25,     4.26,     6.50
      310.0,       6.84,     8.38,     8.24,     4.25,     6.49
