Radius (km), Mean (m/s), NE (m/s), SE (m/s), SW (m/s), NW (m/s)
        0.0,       0.00,     0.00,     0.00,     0.00,     0.00
        1.0,       1.75,     1.73,     1.71,     1.78,     1.79
        2.0,       3.01,     2.98,     2.97,     3.04,     3.05
        3.0,       4.13,     4.10,     4.09,     4.15,     4.16
        4.0,       5.17,     5.15,     5.14,     5.19,     5.19
        5.0,       6.15,     6.14,     6.13,     6.16,     6.16
        6.0,       7.09,     7.08,     7.08,     7.09,     7.09
        7.0,       7.99,     8.00,     8.00,     7.99,     7.98
        8.0,       8.87,     8.89,     8.89,     8.85,     8.84
        9.0,       9.72,     9.75,     9.76,     9.69,     9.68
       10.0,      10.55,    10.59,    10.61,    10.52,    10.50
       11.0,      11.37,    11.42,    11.44,    11.32,    11.29
       12.0,      12.17,    12.23,    12.26,    12.10,    12.07
       13.0,      12.95,    13.03,    13.06,    12.88,    12.84
       14.0,      13.72,    13.81,    13.85,    13.63,    13.59
       15.0,      14.48,    14.58,    14.63,    14.38,    14.33
       16.0,      15.23,    15.34,    15.40,    15.11,    15.06
       17.0,      15.96,    16.09,    16.15,    15.84,    15.77
       18.0,      16.69,    16.83,    16.90,    16.55,    16.48
       19.0,      17.41,    17.56,    17.64,    17.26,    17.18
       20.0,      18.12,    18.29,    18.37,    17.95,    17.87
       21.0,      18.82,    19.00,    19.09,    18.64,    18.55
       22.0,      19.52,    19.71,    19.81,    19.32,    19.22
       23.0,      20.21,    20.42,    20.52,    20.00,    19.89
       24.0,      20.89,    21.11,    21.22,    20.67,    20.55
       25.0,      21.56,    21.80,    21.92,    21.33,    21.21
       26.0,      22.23,    22.49,    22.61,    21.98,    21.86
       27.0,      22.90,    23.17,    23.30,    22.63,    22.50
       28.0,      23.56,    23.84,    23.98,    23.28,    23.13
       29.0,      24.21,    24.51,    24.65,    23.92,    23.77
       30.0,      24.86,    25.17,    25.32,    24.55,    24.39
       31.0,      25.51,    25.84,    25.99,    25.18,    25.02
       32.0,      26.16,    26.53,    26.68,    25.80,    25.64
       33.0,      26.85,    27.28,    27.39,    26.43,    26.28
       34.0,      27.58,    28.12,    28.16,    27.07,    26.96
       35.0,      28.37,    29.04,    28.99,    27.75,    27.69
       36.0,      29.22,    30.06,    29.88,    28.47,    28.46
       37.0,      30.12,    31.13,    30.82,    29.24,    29.28
       38.0,      31.03,    32.20,    31.76,    30.05,    30.13
       39.0,      31.93,    33.22,    32.68,    30.87,    30.95
       40.0,      32.77,    34.13,    33.53,    31.67,    31.74
       41.0,      33.50,    34.87,    34.27,    32.42,    32.43
       42.0,      34.09,    35.41,    34.86,    33.07,    33.02
       43.0,      34.52,    35.73,    35.29,    33.60,    33.47
       44.0,      34.79,    35.83,    35.57,    33.98,    33.78
       45.0,      34.91,    35.75,    35.70,    34.21,    33.96
       46.0,      34.89,    35.52,    35.72,    34.31,    34.03
       47.0,      34.78,    35.18,    35.65,    34.29,    34.02
       48.0,      34.61,    34.79,    35.52,    34.18,    33.95
       49.0,      34.41,    34.38,    35.38,    34.02,    33.84
       50.0,      34.19,    33.98,    35.23,    33.84,    33.73
       51.0,      33.99,    33.59,    35.08,    33.65,    33.63
       52.0,      33.79,    33.22,    34.94,    33.48,    33.53
       53.0,      33.61,    32.86,    34.81,    33.32,    33.44
       54.0,      33.43,    32.51,    34.68,    33.17,    33.35
       55.0,      33.25,    32.17,    34.55,    33.02,    33.27
       56.0,      33.08,    31.83,    34.42,    32.88,    33.18
       57.0,      32.91,    31.51,    34.29,    32.73,    33.09
       58.0,      32.74,    31.19,    34.16,    32.59,    33.00
       59.0,      32.57,    30.88,    34.04,    32.44,    32.92
       60.0,      32.40,    30.57,    33.91,    32.30,    32.83
       61.0,      32.24,    30.28,    33.78,    32.16,    32.74
       62.0,      32.08,    29.99,    33.66,    32.02,    32.66
       63.0,      31.92,    29.70,    33.53,    31.88,    32.57
       64.0,      31.76,    29.43,    33.41,    31.74,    32.49
       65.0,      31.61,    29.15,    33.29,    31.60,    32.40
       66.0,      31.46,    28.89,    33.17,    31.46,    32.32
       67.0,      31.31,    28.63,    33.04,    31.32,    32.23
       68.0,      31.16,    28.38,    32.92,    31.18,    32.15
       69.0,      31.01,    28.13,    32.80,    31.04,    32.06
       70.0,      30.86,    27.89,    32.68,    30.91,    31.98
       71.0,      30.72,    27.65,    32.56,    30.77,    31.90
       72.0,      30.58,    27.42,    32.45,    30.63,    31.81
       73.0,      30.44,    27.20,    32.33,    30.50,    31.73
       74.0,      30.30,    26.98,    32.21,    30.36,    31.65
       75.0,      30.16,    26.76,    32.10,    30.23,    31.56
       76.0,      30.03,    26.55,    31.98,    30.10,    31.48
       77.0,      29.89,    26.34,    31.86,    29.97,    31.40
       78.0,      29.76,    26.14,    31.75,    29.83,    31.31
       79.0,      29.63,    25.94,    31.64,    29.70,    31.23
       80.0,      29.50,    25.75,    31.52,    29.57,    31.15
       81.0,      29.37,    25.56,    31.41,    29.44,    31.07
       82.0,      29.24,    25.38,    31.30,    29.31,    30.99
       83.0,      29.12,    25.20,    31.19,    29.18,    30.91
       84.0,      28.99,    25.02,    31.08,    29.05,    30.83
       85.0,      28.87,    24.85,    30.97,    28.93,    30.75
       86.0,      28.75,    24.68,    30.86,    28.80,    30.66
       87.0,      28.63,    24.52,    30.75,    28.67,    30.58
       88.0,      28.51,    24.35,    30.64,    28.54,    30.50
       89.0,      28.39,    24.20,    30.53,    28.42,    30.42
       90.0,      28.28,    24.04,    30.42,    28.29,    30.35
       91.0,      28.16,    23.89,    30.32,    28.17,    30.27
       92.0,      28.05,    23.74,    30.21,    28.05,    30.19
       93.0,      27.93,    23.60,    30.11,    27.92,    30.11
       94.0,      27.82,    23.46,    30.00,    27.80,    30.03
       95.0,      27.71,    23.32,    29.90,    27.68,    29.95
       96.0,      27.60,    23.18,    29.79,    27.55,    29.87
       97.0,      27.49,    23.05,    29.69,    27.43,    29.79
       98.0,      27.38,    22.92,    29.59,    27.31,    29.72
       99.0,      27.28,    22.79,    29.49,    27.19,    29.64
      100.0,      27.17,    22.67,    29.38,    27.07,    29.56
      101.0,      27.07,    22.54,    29.28,    26.95,    29.48
      102.0,      26.96,    22.43,    29.18,    26.83,    29.41
      103.0,      26.86,    22.31,    29.08,    26.72,    29.33
      104.0,      26.76,    22.19,    28.98,    26.60,    29.25
      105.0,      26.66,    22.08,    28.88,    26.48,    29.18
      106.0,      26.56,    21.97,    28.79,    26.36,    29.10
      107.0,      26.46,    21.86,    28.69,    26.25,    29.02
      108.0,      26.36,    21.76,    28.59,    26.13,    28.95
      109.0,      26.26,    21.66,    28.49,    26.02,    28.87
      110.0,      26.16,    21.55,    28.40,    25.90,    28.80
      111.0,      26.07,    21.45,    28.30,    25.79,    28.72
      112.0,      25.97,    21.36,    28.21,    25.68,    28.65
      113.0,      25.88,    21.26,    28.11,    25.56,    28.57
      114.0,      25.78,    21.17,    28.02,    25.45,    28.50
      115.0,      25.69,    21.08,    27.93,    25.34,    28.42
      116.0,      25.60,    20.99,    27.83,    25.23,    28.35
      117.0,      25.51,    20.90,    27.74,    25.12,    28.28
      118.0,      25.42,    20.81,    27.65,    25.00,    28.20
      119.0,      25.33,    20.73,    27.56,    24.89,    28.13
      120.0,      25.24,    20.65,    27.46,    24.79,    28.06
      121.0,      25.15,    20.57,    27.37,    24.68,    27.98
      122.0,      25.06,    20.49,    27.28,    24.57,    27.91
      123.0,      24.97,    20.41,    27.19,    24.46,    27.84
      124.0,      24.89,    20.33,    27.10,    24.35,    27.76
      125.0,      24.80,    20.26,    27.02,    24.24,    27.69
      126.0,      24.72,    20.18,    26.93,    24.14,    27.62
      127.0,      24.63,    20.11,    26.84,    24.03,    27.55
      128.0,      24.55,    20.04,    26.75,    23.93,    27.48
      129.0,      24.46,    19.97,    26.66,    23.82,    27.40
      130.0,      24.38,    19.90,    26.58,    23.72,    27.33
      131.0,      24.30,    19.83,    26.49,    23.61,    27.26
      132.0,      24.22,    19.77,    26.41,    23.51,    27.19
      133.0,      24.14,    19.70,    26.32,    23.40,    27.12
      134.0,      24.06,    19.64,    26.24,    23.30,    27.05
      135.0,      23.98,    19.57,    26.15,    23.20,    26.98
      136.0,      23.90,    19.51,    26.07,    23.10,    26.91
      137.0,      23.82,    19.45,    25.99,    22.99,    26.84
      138.0,      23.74,    19.39,    25.90,    22.89,    26.77
      139.0,      23.66,    19.34,    25.82,    22.79,    26.70
      140.0,      23.58,    19.28,    25.74,    22.69,    26.63
      141.0,      23.51,    19.22,    25.66,    22.59,    26.56
      142.0,      23.43,    19.17,    25.57,    22.49,    26.49
      143.0,      23.36,    19.11,    25.49,    22.39,    26.42
      144.0,      23.28,    19.06,    25.41,    22.29,    26.35
      145.0,      23.21,    19.01,    25.33,    22.20,    26.29
      146.0,      23.13,    18.95,    25.25,    22.10,    26.22
      147.0,      23.06,    18.90,    25.17,    22.00,    26.15
      148.0,      22.98,    18.85,    25.10,    21.90,    26.08
      149.0,      22.91,    18.80,    25.02,    21.81,    26.01
      150.0,      22.84,    18.76,    24.94,    21.71,    25.95
      151.0,      22.77,    18.71,    24.86,    21.62,    25.88
      152.0,      22.69,    18.66,    24.79,    21.52,    25.81
      153.0,      22.62,    18.61,    24.71,    21.43,    25.74
      154.0,      22.55,    18.57,    24.63,    21.33,    25.68
      155.0,      22.48,    18.52,    24.56,    21.24,    25.61
      156.0,      22.41,    18.48,    24.48,    21.14,    25.54
      157.0,      22.34,    18.44,    24.41,    21.05,    25.48
      158.0,      22.27,    18.39,    24.33,    20.96,    25.41
      159.0,      22.21,    18.35,    24.26,    20.87,    25.35
      160.0,      22.14,    18.31,    24.18,    20.77,    25.28
      161.0,      22.07,    18.27,    24.11,    20.68,    25.21
      162.0,      22.00,    18.23,    24.04,    20.59,    25.15
      163.0,      21.93,    18.19,    23.96,    20.50,    25.08
      164.0,      21.87,    18.15,    23.89,    20.41,    25.02
      165.0,      21.80,    18.11,    23.82,    20.32,    24.95
      166.0,      21.74,    18.07,    23.75,    20.23,    24.89
      167.0,      21.67,    18.04,    23.67,    20.14,    24.82
      168.0,      21.60,    18.00,    23.60,    20.05,    24.76
      169.0,      21.54,    17.96,    23.53,    19.97,    24.70
      170.0,      21.47,    17.93,    23.46,    19.88,    24.63
      171.0,      21.41,    17.89,    23.39,    19.79,    24.57
      172.0,      21.35,    17.86,    23.32,    19.70,    24.50
      173.0,      21.28,    17.82,    23.25,    19.62,    24.44
      174.0,      21.22,    17.79,    23.18,    19.53,    24.38
      175.0,      21.16,    17.75,    23.12,    19.44,    24.31
      176.0,      21.09,    17.72,    23.05,    19.36,    24.25
      177.0,      21.03,    17.69,    22.98,    19.27,    24.19
      178.0,      20.97,    17.65,    22.91,    19.19,    24.13
      179.0,      20.91,    17.62,    22.84,    19.10,    24.06
      180.0,      20.85,    17.59,    22.78,    19.02,    24.00
      181.0,      20.79,    17.56,    22.71,    18.94,    23.94
      182.0,      20.73,    17.53,    22.65,    18.85,    23.88
      183.0,      20.67,    17.50,    22.58,    18.77,    23.82
      184.0,      20.61,    17.47,    22.51,    18.69,    23.75
      185.0,      20.55,    17.44,    22.45,    18.60,    23.69
      186.0,      20.49,    17.41,    22.38,    18.52,    23.63
      187.0,      20.43,    17.38,    22.32,    18.44,    23.57
      188.0,      20.37,    17.35,    22.25,    18.36,    23.51
      189.0,      20.31,    17.32,    22.19,    18.28,    23.45
      190.0,      20.25,    17.29,    22.13,    18.20,    23.39
      191.0,      20.19,    17.26,    22.06,    18.12,    23.33
      192.0,      20.14,    17.24,    22.00,    18.04,    23.27
      193.0,      20.08,    17.21,    21.94,    17.96,    23.21
      194.0,      20.02,    17.18,    21.88,    17.88,    23.15
      195.0,      19.96,    17.15,    21.81,    17.80,    23.09
      196.0,      19.91,    17.13,    21.75,    17.72,    23.03
      197.0,      19.85,    17.10,    21.69,    17.65,    22.97
      198.0,      19.79,    17.08,    21.63,    17.57,    22.91
      199.0,      19.74,    17.05,    21.57,    17.49,    22.85
      200.0,      19.68,    17.02,    21.51,    17.41,    22.79
      201.0,      19.63,    17.00,    21.45,    17.34,    22.73
      202.0,      19.57,    16.97,    21.39,    17.26,    22.67
      203.0,      19.52,    16.95,    21.33,    17.18,    22.61
      204.0,      19.46,    16.92,    21.27,    17.11,    22.55
      205.0,      19.41,    16.90,    21.21,    17.03,    22.50
      206.0,      19.36,    16.87,    21.15,    16.96,    22.44
      207.0,      19.30,    16.85,    21.09,    16.88,    22.38
      208.0,      19.25,    16.83,    21.03,    16.81,    22.32
      209.0,      19.19,    16.80,    20.98,    16.74,    22.26
      210.0,      19.14,    16.78,    20.92,    16.66,    22.21
      211.0,      19.09,    16.76,    20.86,    16.59,    22.15
      212.0,      19.04,    16.73,    20.80,    16.52,    22.09
      213.0,      18.98,    16.71,    20.75,    16.44,    22.04
      214.0,      18.93,    16.69,    20.69,    16.37,    21.98
      215.0,      18.88,    16.66,    20.63,    16.30,    21.92
      216.0,      18.83,    16.64,    20.58,    16.23,    21.87
      217.0,      18.78,    16.62,    20.52,    16.16,    21.81
      218.0,      18.72,    16.60,    20.47,    16.08,    21.75
      219.0,      18.67,    16.58,    20.41,    16.01,    21.70
      220.0,      18.62,    16.55,    20.36,    15.94,    21.64
      221.0,      18.57,    16.53,    20.30,    15.87,    21.59
      222.0,      18.52,    16.51,    20.25,    15.80,    21.53
      223.0,      18.47,    16.49,    20.19,    15.73,    21.47
      224.0,      18.42,    16.47,    20.14,    15.66,    21.42
      225.0,      18.37,    16.45,    20.08,    15.59,    21.36
      226.0,      18.32,    16.43,    20.03,    15.53,    21.31
      227.0,      18.27,    16.40,    19.98,    15.46,    21.25
      228.0,      18.22,    16.38,    19.92,    15.39,    21.20
      229.0,      18.18,    16.36,    19.87,    15.32,    21.14
      230.0,      18.13,    16.34,    19.82,    15.25,    21.09
      231.0,      18.08,    16.32,    19.77,    15.19,    21.03
      232.0,      18.03,    16.30,    19.72,    15.12,    20.98
      233.0,      17.98,    16.28,    19.66,    15.05,    20.93
      234.0,      17.93,    16.26,    19.61,    14.99,    20.87
      235.0,      17.89,    16.24,    19.56,    14.92,    20.82
      236.0,      17.84,    16.22,    19.51,    14.86,    20.77
      237.0,      17.79,    16.20,    19.46,    14.79,    20.71
      238.0,      17.74,    16.18,    19.41,    14.73,    20.66
      239.0,      17.70,    16.16,    19.36,    14.66,    20.61
      240.0,      17.65,    16.14,    19.31,    14.60,    20.55
      241.0,      17.60,    16.12,    19.26,    14.53,    20.50
      242.0,      17.56,    16.11,    19.21,    14.47,    20.45
      243.0,      17.51,    16.09,    19.16,    14.40,    20.39
      244.0,      17.47,    16.07,    19.11,    14.34,    20.34
      245.0,      17.42,    16.05,    19.06,    14.28,    20.29
      246.0,      17.37,    16.03,    19.01,    14.22,    20.24
      247.0,      17.33,    16.01,    18.96,    14.15,    20.18
      248.0,      17.28,    15.99,    18.92,    14.09,    20.13
      249.0,      17.24,    15.97,    18.87,    14.03,    20.08
      250.0,      17.19,    15.96,    18.82,    13.97,    20.03
      251.0,      17.15,    15.94,    18.77,    13.91,    19.98
      252.0,      17.10,    15.92,    18.73,    13.84,    19.93
      253.0,      17.06,    15.90,    18.68,    13.78,    19.88
      254.0,      17.02,    15.88,    18.63,    13.72,    19.82
      255.0,      16.97,    15.86,    18.58,    13.66,    19.77
      256.0,      16.93,    15.85,    18.54,    13.60,    19.72
      257.0,      16.88,    15.83,    18.49,    13.54,    19.67
      258.0,      16.84,    15.81,    18.45,    13.48,    19.62
      259.0,      16.80,    15.79,    18.40,    13.42,    19.57
      260.0,      16.75,    15.77,    18.35,    13.36,    19.52
      261.0,      16.71,    15.76,    18.31,    13.31,    19.47
      262.0,      16.67,    15.74,    18.26,    13.25,    19.42
      263.0,      16.62,    15.72,    18.22,    13.19,    19.37
      264.0,      16.58,    15.70,    18.17,    13.13,    19.32
      265.0,      16.54,    15.69,    18.13,    13.07,    19.27
      266.0,      16.50,    15.67,    18.09,    13.02,    19.22
      267.0,      16.46,    15.65,    18.04,    12.96,    19.17
      268.0,      16.41,    15.64,    18.00,    12.90,    19.12
      269.0,      16.37,    15.62,    17.95,    12.84,    19.07
      270.0,      16.33,    15.60,    17.91,    12.79,    19.02
      271.0,      16.29,    15.58,    17.87,    12.73,    18.98
      272.0,      16.25,    15.57,    17.82,    12.68,    18.93
      273.0,      16.21,    15.55,    17.78,    12.62,    18.88
      274.0,      16.17,    15.53,    17.74,    12.56,    18.83
      275.0,      16.12,    15.52,    17.69,    12.51,    18.78
      276.0,      16.08,    15.50,    17.65,    12.45,    18.73
      277.0,      16.04,    15.48,    17.61,    12.40,    18.69
      278.0,      16.00,    15.47,    17.57,    12.34,    18.64
      279.0,      15.96,    15.45,    17.53,    12.29,    18.59
      280.0,      15.92,    15.43,    17.48,    12.24,    18.54
      281.0,      15.88,    15.42,    17.44,    12.18,    18.49
      282.0,      15.84,    15.40,    17.40,    12.13,    18.45
      283.0,      15.80,    15.38,    17.36,    12.07,    18.40
      284.0,      15.76,    15.37,    17.32,    12.02,    18.35
      285.0,      15.73,    15.35,    17.28,    11.97,    18.30
      286.0,      15.69,    15.33,    17.24,    11.92,    18.26
      287.0,      15.65,    15.32,    17.20,    11.86,    18.21
      288.0,      15.61,    15.30,    17.16,    11.81,    18.16
      289.0,      15.57,    15.28,    17.12,    11.76,    18.12
      290.0,      15.53,    15.27,    17.08,    11.71,    18.07
      291.0,      15.49,    15.25,    17.04,    11.66,    18.03
      292.0,      15.45,    15.24,    17.00,    11.61,    17.98
      293.0,      15.42,    15.22,    16.96,    11.55,    17.93
      294.0,      15.38,    15.20,    16.92,    11.50,    17.89
      295.0,      15.34,    15.19,    16.88,    11.45,    17.84
      296.0,      15.30,    15.17,    16.84,    11.40,    17.80
      297.0,      15.26,    15.16,    16.80,    11.35,    17.75
      298.0,      15.23,    15.14,    16.76,    11.30,    17.70
      299.0,      15.19,    15.12,    16.72,    11.25,    17.66
      300.0,      15.15,    15.11,    16.69,    11.20,    17.61
      301.0,      15.12,    15.09,    16.65,    11.15,    17.57
      302.0,      15.08,    15.08,    16.61,    11.10,    17.52
      303.0,      15.04,    15.06,    16.57,    11.06,    17.48
      304.0,      15.01,    15.04,    16.53,    11.01,    17.43
      305.0,      14.97,    15.03,    16.50,    10.96,    17.39
      306.0,      14.93,    15.01,    16.46,    10.91,    17.34
      307.0,      14.90,    15.00,    16.42,    10.86,    17.30
      308.0,      14.86,    14.98,    16.39,    10.81,    17.26
      309.0,      14.82,    14.97,    16.35,    10.77,    17.21
      310.0,      14.79,    14.95,    16.31,    10.72,    17.17
