Radius (km), Mean (m/s), NE (m/s), SE (m/s), SW (m/s), NW (m/s)
        0.0,       0.00,     0.00,     0.00,     0.00,     0.00
        1.0,       1.25,     0.63,     1.19,     1.59,     1.59
        2.0,       2.88,     1.82,     2.84,     3.44,     3.44
        3.0,       4.72,     3.38,     4.71,     5.39,     5.39
        4.0,       6.70,     5.25,     6.74,     7.41,     7.41
        5.0,       8.82,     7.38,     8.91,     9.49,     9.49
        6.0,      11.04,     9.76,    11.19,    11.61,    11.61
        7.0,      13.37,    12.35,    13.56,    13.78,    13.78
        8.0,      15.78,    15.15,    16.03,    15.98,    15.98
        9.0,      18.30,    18.17,    18.64,    18.20,    18.21
       10.0,      20.99,    21.48,    21.49,    20.48,    20.53
       11.0,      23.97,    25.27,    24.73,    22.86,    23.02
       12.0,      27.36,    29.74,    28.48,    25.44,    25.79
       13.0,      31.26,    35.05,    32.78,    28.31,    28.92
       14.0,      35.69,    41.21,    37.57,    31.53,    32.44
       15.0,      40.54,    48.09,    42.69,    35.08,    36.28
       16.0,      45.62,    55.43,    47.92,    38.86,    40.29
       17.0,      50.68,    62.80,    52.95,    42.70,    44.27
       18.0,      55.41,    69.77,    57.49,    46.40,    47.99
       19.0,      59.53,    75.90,    61.28,    49.73,    51.23
       20.0,      62.81,    80.82,    64.15,    52.49,    53.79
       21.0,      65.11,    84.29,    66.02,    54.55,    55.58
       22.0,      66.38,    86.24,    66.90,    55.83,    56.55
       23.0,      66.69,    86.75,    66.91,    56.34,    56.75
       24.0,      66.19,    86.05,    66.23,    56.16,    56.31
       25.0,      65.08,    84.42,    65.08,    55.44,    55.38
       26.0,      63.60,    82.23,    63.66,    54.34,    54.15
       27.0,      61.93,    79.77,    62.15,    53.04,    52.78
       28.0,      60.25,    77.28,    60.65,    51.68,    51.40
       29.0,      58.64,    74.92,    59.22,    50.36,    50.08
       30.0,      57.14,    72.71,    57.87,    49.12,    48.84
       31.0,      55.72,    70.65,    56.57,    47.96,    47.68
       32.0,      54.36,    68.68,    55.31,    46.87,    46.58
       33.0,      53.05,    66.79,    54.09,    45.82,    45.51
       34.0,      51.80,    64.97,    52.91,    44.81,    44.49
       35.0,      50.58,    63.22,    51.77,    43.83,    43.51
       36.0,      49.41,    61.53,    50.65,    42.89,    42.56
       37.0,      48.28,    59.92,    49.58,    41.97,    41.65
       38.0,      47.19,    58.36,    48.53,    41.09,    40.78
       39.0,      46.14,    56.86,    47.52,    40.23,    39.93
       40.0,      45.12,    55.42,    46.54,    39.41,    39.12
       41.0,      44.14,    54.04,    45.58,    38.61,    38.33
       42.0,      43.19,    52.70,    44.66,    37.83,    37.58
       43.0,      42.28,    51.42,    43.77,    37.09,    36.86
       44.0,      41.40,    50.19,    42.90,    36.36,    36.16
       45.0,      40.55,    49.00,    42.06,    35.66,    35.48
       46.0,      39.73,    47.86,    41.24,    34.99,    34.83
       47.0,      38.94,    46.76,    40.45,    34.33,    34.21
       48.0,      38.17,    45.70,    39.68,    33.70,    33.61
       49.0,      37.43,    44.69,    38.94,    33.08,    33.03
       50.0,      36.72,    43.71,    38.22,    32.49,    32.47
       51.0,      36.03,    42.77,    37.52,    31.92,    31.93
       52.0,      35.37,    41.86,    36.84,    31.36,    31.41
       53.0,      34.72,    40.99,    36.18,    30.82,    30.91
       54.0,      34.10,    40.15,    35.54,    30.30,    30.43
       55.0,      33.50,    39.34,    34.92,    29.80,    29.96
       56.0,      32.92,    38.56,    34.32,    29.31,    29.51
       57.0,      32.37,    37.81,    33.74,    28.84,    29.08
       58.0,      31.82,    37.09,    33.17,    28.38,    28.66
       59.0,      31.30,    36.39,    32.63,    27.93,    28.26
       60.0,      30.80,    35.72,    32.09,    27.51,    27.87
       61.0,      30.31,    35.08,    31.58,    27.09,    27.49
       62.0,      29.84,    34.46,    31.08,    26.69,    27.13
       63.0,      29.38,    33.86,    30.59,    26.30,    26.78
       64.0,      28.94,    33.28,    30.12,    25.92,    26.44
       65.0,      28.52,    32.73,    29.67,    25.55,    26.12
       66.0,      28.10,    32.19,    29.22,    25.19,    25.80
       67.0,      27.71,    31.68,    28.80,    24.85,    25.50
       68.0,      27.32,    31.18,    28.38,    24.52,    25.21
       69.0,      26.95,    30.70,    27.97,    24.19,    24.92
       70.0,      26.59,    30.24,    27.58,    23.88,    24.65
       71.0,      26.24,    29.79,    27.20,    23.57,    24.38
       72.0,      25.90,    29.36,    26.83,    23.28,    24.13
       73.0,      25.57,    28.95,    26.47,    22.99,    23.88
       74.0,      25.26,    28.55,    26.13,    22.71,    23.64
       75.0,      24.95,    28.16,    25.79,    22.44,    23.41
       76.0,      24.65,    27.79,    25.46,    22.18,    23.19
       77.0,      24.37,    27.43,    25.14,    21.92,    22.97
       78.0,      24.09,    27.09,    24.83,    21.68,    22.76
       79.0,      23.82,    26.75,    24.53,    21.44,    22.56
       80.0,      23.56,    26.43,    24.24,    21.20,    22.36
       81.0,      23.31,    26.12,    23.96,    20.98,    22.17
       82.0,      23.06,    25.82,    23.69,    20.76,    21.98
       83.0,      22.82,    25.53,    23.42,    20.54,    21.80
       84.0,      22.59,    25.25,    23.16,    20.33,    21.63
       85.0,      22.37,    24.98,    22.91,    20.13,    21.46
       86.0,      22.15,    24.72,    22.67,    19.94,    21.30
       87.0,      21.95,    24.46,    22.43,    19.74,    21.14
       88.0,      21.74,    24.22,    22.20,    19.56,    20.99
       89.0,      21.54,    23.98,    21.98,    19.38,    20.84
       90.0,      21.35,    23.75,    21.76,    19.20,    20.69
       91.0,      21.17,    23.53,    21.55,    19.03,    20.55
       92.0,      20.99,    23.32,    21.35,    18.86,    20.41
       93.0,      20.81,    23.11,    21.15,    18.70,    20.28
       94.0,      20.64,    22.91,    20.96,    18.54,    20.15
       95.0,      20.48,    22.72,    20.77,    18.39,    20.03
       96.0,      20.32,    22.53,    20.59,    18.24,    19.90
       97.0,      20.16,    22.35,    20.41,    18.09,    19.78
       98.0,      20.01,    22.17,    20.24,    17.95,    19.67
       99.0,      19.86,    22.00,    20.08,    17.81,    19.56
      100.0,      19.72,    21.84,    19.91,    17.67,    19.45
      101.0,      19.58,    21.67,    19.76,    17.54,    19.34
      102.0,      19.44,    21.52,    19.60,    17.41,    19.23
      103.0,      19.31,    21.37,    19.45,    17.28,    19.13
      104.0,      19.18,    21.22,    19.31,    17.16,    19.03
      105.0,      19.06,    21.08,    19.17,    17.04,    18.94
      106.0,      18.93,    20.94,    19.03,    16.92,    18.84
      107.0,      18.82,    20.81,    18.90,    16.81,    18.75
      108.0,      18.70,    20.68,    18.77,    16.70,    18.66
      109.0,      18.59,    20.55,    18.64,    16.59,    18.57
      110.0,      18.48,    20.43,    18.52,    16.48,    18.49
      111.0,      18.37,    20.31,    18.40,    16.37,    18.40
      112.0,      18.27,    20.19,    18.29,    16.27,    18.32
      113.0,      18.17,    20.08,    18.17,    16.17,    18.24
      114.0,      18.07,    19.97,    18.06,    16.07,    18.16
      115.0,      17.97,    19.86,    17.96,    15.98,    18.08
      116.0,      17.88,    19.76,    17.85,    15.88,    18.01
      117.0,      17.78,    19.66,    17.75,    15.79,    17.93
      118.0,      17.69,    19.56,    17.65,    15.70,    17.86
      119.0,      17.60,    19.46,    17.56,    15.61,    17.79
      120.0,      17.52,    19.37,    17.46,    15.53,    17.72
      121.0,      17.43,    19.27,    17.37,    15.44,    17.65
      122.0,      17.35,    19.18,    17.28,    15.36,    17.59
      123.0,      17.27,    19.10,    17.20,    15.28,    17.52
      124.0,      17.19,    19.01,    17.11,    15.19,    17.45
      125.0,      17.12,    18.93,    17.03,    15.12,    17.39
      126.0,      17.04,    18.85,    16.95,    15.04,    17.33
      127.0,      16.97,    18.77,    16.87,    14.96,    17.27
      128.0,      16.90,    18.69,    16.80,    14.89,    17.21
      129.0,      16.82,    18.61,    16.72,    14.81,    17.15
      130.0,      16.76,    18.54,    16.65,    14.74,    17.09
      131.0,      16.69,    18.46,    16.58,    14.67,    17.03
      132.0,      16.62,    18.39,    16.51,    14.60,    16.97
      133.0,      16.55,    18.32,    16.45,    14.53,    16.92
      134.0,      16.49,    18.25,    16.38,    14.46,    16.86
      135.0,      16.43,    18.19,    16.32,    14.40,    16.81
      136.0,      16.37,    18.12,    16.26,    14.33,    16.75
      137.0,      16.31,    18.06,    16.19,    14.27,    16.70
      138.0,      16.25,    17.99,    16.14,    14.21,    16.65
      139.0,      16.19,    17.93,    16.08,    14.14,    16.60
      140.0,      16.13,    17.87,    16.02,    14.08,    16.55
      141.0,      16.07,    17.81,    15.97,    14.02,    16.50
      142.0,      16.02,    17.75,    15.91,    13.96,    16.45
      143.0,      15.96,    17.69,    15.86,    13.90,    16.40
      144.0,      15.91,    17.63,    15.81,    13.84,    16.35
      145.0,      15.86,    17.58,    15.76,    13.79,    16.30
      146.0,      15.80,    17.52,    15.71,    13.73,    16.26
      147.0,      15.75,    17.47,    15.66,    13.67,    16.21
      148.0,      15.70,    17.41,    15.61,    13.62,    16.16
      149.0,      15.65,    17.36,    15.57,    13.56,    16.12
      150.0,      15.60,    17.31,    15.52,    13.51,    16.07
      151.0,      15.55,    17.26,    15.48,    13.46,    16.03
      152.0,      15.51,    17.21,    15.43,    13.40,    15.98
      153.0,      15.46,    17.16,    15.39,    13.35,    15.94
      154.0,      15.41,    17.11,    15.35,    13.30,    15.89
      155.0,      15.37,    17.06,    15.31,    13.25,    15.85
      156.0,      15.32,    17.01,    15.27,    13.20,    15.81
      157.0,      15.28,    16.96,    15.23,    13.15,    15.77
      158.0,      15.23,    16.92,    15.19,    13.10,    15.72
      159.0,      15.19,    16.87,    15.16,    13.05,    15.68
      160.0,      15.15,    16.82,    15.12,    13.00,    15.64
      161.0,      15.10,    16.78,    15.08,    12.96,    15.60
      162.0,      15.06,    16.73,    15.05,    12.91,    15.56
      163.0,      15.02,    16.69,    15.01,    12.86,    15.52
      164.0,      14.98,    16.64,    14.98,    12.82,    15.48
      165.0,      14.94,    16.60,    14.94,    12.77,    15.44
      166.0,      14.90,    16.56,    14.91,    12.72,    15.40
      167.0,      14.86,    16.52,    14.88,    12.68,    15.36
      168.0,      14.82,    16.47,    14.85,    12.63,    15.32
      169.0,      14.78,    16.43,    14.82,    12.59,    15.28
      170.0,      14.74,    16.39,    14.79,    12.55,    15.24
      171.0,      14.70,    16.35,    14.76,    12.50,    15.20
      172.0,      14.67,    16.31,    14.73,    12.46,    15.17
      173.0,      14.63,    16.27,    14.70,    12.42,    15.13
      174.0,      14.59,    16.23,    14.67,    12.37,    15.09
      175.0,      14.55,    16.19,    14.64,    12.33,    15.05
      176.0,      14.52,    16.15,    14.61,    12.29,    15.02
      177.0,      14.48,    16.11,    14.59,    12.25,    14.98
      178.0,      14.45,    16.07,    14.56,    12.21,    14.94
      179.0,      14.41,    16.03,    14.53,    12.17,    14.90
      180.0,      14.37,    16.00,    14.51,    12.13,    14.87
      181.0,      14.34,    15.96,    14.48,    12.09,    14.83
      182.0,      14.30,    15.92,    14.46,    12.05,    14.80
      183.0,      14.27,    15.88,    14.43,    12.01,    14.76
      184.0,      14.24,    15.85,    14.41,    11.97,    14.72
      185.0,      14.20,    15.81,    14.38,    11.93,    14.69
      186.0,      14.17,    15.77,    14.36,    11.89,    14.65
      187.0,      14.13,    15.74,    14.33,    11.85,    14.62
      188.0,      14.10,    15.70,    14.31,    11.81,    14.58
      189.0,      14.07,    15.66,    14.29,    11.77,    14.55
      190.0,      14.04,    15.63,    14.27,    11.74,    14.51
      191.0,      14.00,    15.59,    14.24,    11.70,    14.48
      192.0,      13.97,    15.56,    14.22,    11.66,    14.44
      193.0,      13.94,    15.52,    14.20,    11.62,    14.41
      194.0,      13.91,    15.49,    14.18,    11.59,    14.38
      195.0,      13.88,    15.45,    14.16,    11.55,    14.34
      196.0,      13.84,    15.42,    14.13,    11.51,    14.31
      197.0,      13.81,    15.38,    14.11,    11.48,    14.27
      198.0,      13.78,    15.35,    14.09,    11.44,    14.24
      199.0,      13.75,    15.32,    14.07,    11.40,    14.21
      200.0,      13.72,    15.28,    14.05,    11.37,    14.17
      201.0,      13.69,    15.25,    14.03,    11.33,    14.14
      202.0,      13.66,    15.21,    14.01,    11.30,    14.11
      203.0,      13.63,    15.18,    13.99,    11.26,    14.07
      204.0,      13.60,    15.15,    13.97,    11.23,    14.04
      205.0,      13.57,    15.11,    13.95,    11.19,    14.01
      206.0,      13.54,    15.08,    13.94,    11.16,    13.98
      207.0,      13.51,    15.05,    13.92,    11.12,    13.94
      208.0,      13.48,    15.02,    13.90,    11.09,    13.91
      209.0,      13.45,    14.98,    13.88,    11.05,    13.88
      210.0,      13.42,    14.95,    13.86,    11.02,    13.85
      211.0,      13.39,    14.92,    13.84,    10.98,    13.81
      212.0,      13.36,    14.89,    13.82,    10.95,    13.78
      213.0,      13.33,    14.85,    13.81,    10.92,    13.75
      214.0,      13.30,    14.82,    13.79,    10.88,    13.72
      215.0,      13.28,    14.79,    13.77,    10.85,    13.69
      216.0,      13.25,    14.76,    13.75,    10.82,    13.66
      217.0,      13.22,    14.73,    13.74,    10.78,    13.62
      218.0,      13.19,    14.70,    13.72,    10.75,    13.59
      219.0,      13.16,    14.66,    13.70,    10.72,    13.56
      220.0,      13.13,    14.63,    13.69,    10.69,    13.53
      221.0,      13.11,    14.60,    13.67,    10.65,    13.50
      222.0,      13.08,    14.57,    13.65,    10.62,    13.47
      223.0,      13.05,    14.54,    13.64,    10.59,    13.44
      224.0,      13.02,    14.51,    13.62,    10.56,    13.41
      225.0,      12.99,    14.48,    13.60,    10.52,    13.38
      226.0,      12.97,    14.45,    13.59,    10.49,    13.34
      227.0,      12.94,    14.42,    13.57,    10.46,    13.31
      228.0,      12.91,    14.39,    13.55,    10.43,    13.28
      229.0,      12.89,    14.36,    13.54,    10.40,    13.25
      230.0,      12.86,    14.32,    13.52,    10.37,    13.22
      231.0,      12.83,    14.29,    13.51,    10.34,    13.19
      232.0,      12.81,    14.26,    13.49,    10.30,    13.16
      233.0,      12.78,    14.23,    13.47,    10.27,    13.13
      234.0,      12.75,    14.20,    13.46,    10.24,    13.10
      235.0,      12.73,    14.17,    13.44,    10.21,    13.07
      236.0,      12.70,    14.14,    13.43,    10.18,    13.04
      237.0,      12.67,    14.11,    13.41,    10.15,    13.01
      238.0,      12.65,    14.08,    13.40,    10.12,    12.98
      239.0,      12.62,    14.06,    13.38,    10.09,    12.95
      240.0,      12.59,    14.03,    13.37,    10.06,    12.92
      241.0,      12.57,    14.00,    13.35,    10.03,    12.89
      242.0,      12.54,    13.97,    13.34,    10.00,    12.86
      243.0,      12.52,    13.94,    13.32,     9.97,    12.84
      244.0,      12.49,    13.91,    13.31,     9.94,    12.81
      245.0,      12.46,    13.88,    13.29,     9.91,    12.78
      246.0,      12.44,    13.85,    13.28,     9.88,    12.75
      247.0,      12.41,    13.82,    13.26,     9.85,    12.72
      248.0,      12.39,    13.79,    13.25,     9.82,    12.69
      249.0,      12.36,    13.76,    13.23,     9.79,    12.66
      250.0,      12.34,    13.73,    13.22,     9.76,    12.63
      251.0,      12.31,    13.71,    13.20,     9.73,    12.60
      252.0,      12.29,    13.68,    13.19,     9.71,    12.57
      253.0,      12.26,    13.65,    13.18,     9.68,    12.55
      254.0,      12.24,    13.62,    13.16,     9.65,    12.52
      255.0,      12.21,    13.59,    13.15,     9.62,    12.49
      256.0,      12.19,    13.56,    13.13,     9.59,    12.46
      257.0,      12.16,    13.53,    13.12,     9.56,    12.43
      258.0,      12.14,    13.51,    13.11,     9.53,    12.40
      259.0,      12.11,    13.48,    13.09,     9.51,    12.38
      260.0,      12.09,    13.45,    13.08,     9.48,    12.35
      261.0,      12.06,    13.42,    13.06,     9.45,    12.32
      262.0,      12.04,    13.39,    13.05,     9.42,    12.29
      263.0,      12.01,    13.37,    13.04,     9.39,    12.26
      264.0,      11.99,    13.34,    13.02,     9.37,    12.24
      265.0,      11.97,    13.31,    13.01,     9.34,    12.21
      266.0,      11.94,    13.28,    12.99,     9.31,    12.18
      267.0,      11.92,    13.26,    12.98,     9.28,    12.15
      268.0,      11.89,    13.23,    12.97,     9.25,    12.12
      269.0,      11.87,    13.20,    12.95,     9.23,    12.10
      270.0,      11.85,    13.17,    12.94,     9.20,    12.07
      271.0,      11.82,    13.15,    12.93,     9.17,    12.04
      272.0,      11.80,    13.12,    12.91,     9.15,    12.01
      273.0,      11.77,    13.09,    12.90,     9.12,    11.99
      274.0,      11.75,    13.06,    12.88,     9.09,    11.96
      275.0,      11.73,    13.04,    12.87,     9.06,    11.93
      276.0,      11.70,    13.01,    12.86,     9.04,    11.91
      277.0,      11.68,    12.98,    12.84,     9.01,    11.88
      278.0,      11.66,    12.96,    12.83,     8.98,    11.85
      279.0,      11.63,    12.93,    12.82,     8.96,    11.83
      280.0,      11.61,    12.90,    12.80,     8.93,    11.80
      281.0,      11.59,    12.87,    12.79,     8.91,    11.77
      282.0,      11.56,    12.85,    12.78,     8.88,    11.75
      283.0,      11.54,    12.82,    12.76,     8.85,    11.72
      284.0,      11.52,    12.79,    12.75,     8.83,    11.69
      285.0,      11.49,    12.77,    12.74,     8.80,    11.67
      286.0,      11.47,    12.74,    12.73,     8.77,    11.64
      287.0,      11.45,    12.72,    12.71,     8.75,    11.61
      288.0,      11.42,    12.69,    12.70,     8.72,    11.59
      289.0,      11.40,    12.66,    12.69,     8.70,    11.56
      290.0,      11.38,    12.64,    12.67,     8.67,    11.53
      291.0,      11.36,    12.61,    12.66,     8.65,    11.51
      292.0,      11.33,    12.58,    12.65,     8.62,    11.48
      293.0,      11.31,    12.56,    12.63,     8.60,    11.46
      294.0,      11.29,    12.53,    12.62,     8.57,    11.43
      295.0,      11.27,    12.51,    12.61,     8.54,    11.40
      296.0,      11.24,    12.48,    12.60,     8.52,    11.38
      297.0,      11.22,    12.45,    12.58,     8.49,    11.35
      298.0,      11.20,    12.43,    12.57,     8.47,    11.33
      299.0,      11.18,    12.40,    12.56,     8.44,    11.30
      300.0,      11.15,    12.38,    12.54,     8.42,    11.27
      301.0,      11.13,    12.35,    12.53,     8.39,    11.25
      302.0,      11.11,    12.33,    12.52,     8.37,    11.22
      303.0,      11.09,    12.30,    12.51,     8.35,    11.20
      304.0,      11.07,    12.27,    12.49,     8.32,    11.17
      305.0,      11.04,    12.25,    12.48,     8.30,    11.15
      306.0,      11.02,    12.22,    12.47,     8.27,    11.12
      307.0,      11.00,    12.20,    12.45,     8.25,    11.10
      308.0,      10.98,    12.17,    12.44,     8.22,    11.07
      309.0,      10.96,    12.15,    12.43,     8.20,    11.05
      310.0,      10.93,    12.12,    12.42,     8.18,    11.02
