Radius (km), Mean (m/s), NE (m/s), SE (m/s), SW (m/s), NW (m/s)
        0.0,       0.00,     0.00,     0.00,     0.00,     0.00
        1.0,       2.36,     1.93,     2.37,     2.56,     2.60
        2.0,       3.93,     3.71,     4.11,     3.85,     4.05
        3.0,       5.31,     5.44,     5.68,     4.88,     5.24
        4.0,       6.59,     7.14,     7.14,     5.78,     6.29
        5.0,       7.80,     8.82,     8.52,     6.59,     7.25
        6.0,       8.95,    10.48,     9.85,     7.34,     8.14
        7.0,      10.07,    12.12,    11.13,     8.04,     8.98
        8.0,      11.15,    13.76,    12.38,     8.70,     9.78
        9.0,      12.21,    15.38,    13.60,     9.32,    10.54
       10.0,      13.24,    16.99,    14.78,     9.92,    11.27
       11.0,      14.26,    18.59,    15.95,    10.49,    11.99
       12.0,      15.27,    20.21,    17.10,    11.04,    12.72
       13.0,      16.31,    21.89,    18.28,    11.59,    13.50
       14.0,      17.42,    23.67,    19.51,    12.14,    14.36
       15.0,      18.60,    25.59,    20.82,    12.71,    15.30
       16.0,      19.88,    27.68,    22.22,    13.30,    16.31
       17.0,      21.22,    29.90,    23.71,    13.92,    17.36
       18.0,      22.59,    32.18,    25.23,    14.55,    18.38
       19.0,      23.92,    34.44,    26.73,    15.18,    19.34
       20.0,      25.15,    36.56,    28.13,    15.76,    20.15
       21.0,      26.22,    38.43,    29.37,    16.29,    20.79
       22.0,      27.08,    39.98,    30.38,    16.73,    21.21
       23.0,      27.69,    41.14,    31.14,    17.08,    21.41
       24.0,      28.06,    41.90,    31.62,    17.31,    21.41
       25.0,      28.20,    42.27,    31.85,    17.45,    21.23
       26.0,      28.15,    42.32,    31.85,    17.49,    20.91
       27.0,      27.95,    42.13,    31.69,    17.46,    20.51
       28.0,      27.66,    41.77,    31.43,    17.39,    20.06
       29.0,      27.33,    41.34,    31.11,    17.28,    19.61
       30.0,      27.00,    40.88,    30.77,    17.17,    19.17
       31.0,      26.68,    40.45,    30.45,    17.06,    18.76
       32.0,      26.38,    40.05,    30.16,    16.96,    18.36
       33.0,      26.10,    39.68,    29.88,    16.86,    17.98
       34.0,      25.83,    39.32,    29.62,    16.77,    17.62
       35.0,      25.57,    38.97,    29.37,    16.68,    17.27
       36.0,      25.31,    38.62,    29.12,    16.59,    16.93
       37.0,      25.07,    38.28,    28.87,    16.50,    16.61
       38.0,      24.82,    37.95,    28.63,    16.41,    16.29
       39.0,      24.58,    37.62,    28.40,    16.32,    15.99
       40.0,      24.35,    37.30,    28.17,    16.24,    15.70
       41.0,      24.13,    36.99,    27.95,    16.15,    15.41
       42.0,      23.90,    36.68,    27.73,    16.06,    15.14
       43.0,      23.69,    36.38,    27.52,    15.98,    14.88
       44.0,      23.48,    36.08,    27.31,    15.89,    14.63
       45.0,      23.27,    35.79,    27.10,    15.81,    14.38
       46.0,      23.07,    35.50,    26.90,    15.72,    14.15
       47.0,      22.87,    35.22,    26.70,    15.64,    13.92
       48.0,      22.68,    34.94,    26.51,    15.56,    13.70
       49.0,      22.49,    34.67,    26.32,    15.47,    13.49
       50.0,      22.30,    34.40,    26.13,    15.39,    13.29
       51.0,      22.12,    34.13,    25.95,    15.31,    13.09
       52.0,      21.94,    33.87,    25.77,    15.23,    12.90
       53.0,      21.77,    33.62,    25.59,    15.15,    12.72
       54.0,      21.60,    33.36,    25.42,    15.07,    12.54
       55.0,      21.43,    33.12,    25.25,    14.99,    12.37
       56.0,      21.27,    32.87,    25.08,    14.91,    12.21
       57.0,      21.11,    32.63,    24.91,    14.83,    12.05
       58.0,      20.95,    32.39,    24.75,    14.75,    11.90
       59.0,      20.79,    32.16,    24.59,    14.68,    11.75
       60.0,      20.64,    31.93,    24.44,    14.60,    11.61
       61.0,      20.49,    31.70,    24.28,    14.52,    11.47
       62.0,      20.35,    31.48,    24.13,    14.45,    11.34
       63.0,      20.20,    31.26,    23.98,    14.37,    11.21
       64.0,      20.06,    31.04,    23.83,    14.30,    11.08
       65.0,      19.93,    30.83,    23.69,    14.22,    10.96
       66.0,      19.79,    30.62,    23.54,    14.15,    10.85
       67.0,      19.66,    30.41,    23.40,    14.07,    10.74
       68.0,      19.52,    30.21,    23.26,    14.00,    10.63
       69.0,      19.39,    30.00,    23.12,    13.93,    10.53
       70.0,      19.27,    29.80,    22.99,    13.86,    10.42
       71.0,      19.14,    29.61,    22.85,    13.78,    10.33
       72.0,      19.02,    29.41,    22.72,    13.71,    10.23
       73.0,      18.90,    29.22,    22.59,    13.64,    10.14
       74.0,      18.78,    29.03,    22.46,    13.57,    10.05
       75.0,      18.66,    28.84,    22.33,    13.50,     9.97
       76.0,      18.55,    28.66,    22.21,    13.43,     9.89
       77.0,      18.43,    28.47,    22.08,    13.36,     9.81
       78.0,      18.32,    28.29,    21.96,    13.29,     9.73
       79.0,      18.21,    28.11,    21.84,    13.23,     9.66
       80.0,      18.10,    27.94,    21.72,    13.16,     9.59
       81.0,      17.99,    27.76,    21.60,    13.09,     9.52
       82.0,      17.89,    27.59,    21.48,    13.02,     9.45
       83.0,      17.78,    27.42,    21.37,    12.96,     9.39
       84.0,      17.68,    27.25,    21.25,    12.89,     9.32
       85.0,      17.58,    27.08,    21.14,    12.82,     9.26
       86.0,      17.48,    26.92,    21.03,    12.76,     9.20
       87.0,      17.38,    26.76,    20.92,    12.69,     9.15
       88.0,      17.28,    26.59,    20.81,    12.63,     9.09
       89.0,      17.18,    26.43,    20.70,    12.56,     9.04
       90.0,      17.09,    26.28,    20.59,    12.50,     8.99
       91.0,      16.99,    26.12,    20.48,    12.44,     8.94
       92.0,      16.90,    25.97,    20.38,    12.37,     8.89
       93.0,      16.81,    25.81,    20.27,    12.31,     8.84
       94.0,      16.72,    25.66,    20.17,    12.25,     8.79
       95.0,      16.63,    25.51,    20.06,    12.19,     8.75
       96.0,      16.54,    25.36,    19.96,    12.13,     8.71
       97.0,      16.45,    25.21,    19.86,    12.06,     8.67
       98.0,      16.36,    25.07,    19.76,    12.00,     8.62
       99.0,      16.28,    24.92,    19.66,    11.94,     8.59
      100.0,      16.19,    24.78,    19.56,    11.88,     8.55
      101.0,      16.11,    24.64,    19.46,    11.82,     8.51
      102.0,      16.03,    24.50,    19.36,    11.76,     8.48
      103.0,      15.94,    24.36,    19.27,    11.71,     8.44
      104.0,      15.86,    24.22,    19.17,    11.65,     8.41
      105.0,      15.78,    24.08,    19.08,    11.59,     8.37
      106.0,      15.70,    23.95,    18.98,    11.53,     8.34
      107.0,      15.62,    23.81,    18.89,    11.47,     8.31
      108.0,      15.54,    23.68,    18.80,    11.42,     8.28
      109.0,      15.47,    23.55,    18.70,    11.36,     8.25
      110.0,      15.39,    23.42,    18.61,    11.30,     8.22
      111.0,      15.31,    23.29,    18.52,    11.25,     8.20
      112.0,      15.24,    23.16,    18.43,    11.19,     8.17
      113.0,      15.16,    23.03,    18.34,    11.13,     8.14
      114.0,      15.09,    22.90,    18.25,    11.08,     8.12
      115.0,      15.01,    22.78,    18.16,    11.02,     8.09
      116.0,      14.94,    22.65,    18.08,    10.97,     8.07
      117.0,      14.87,    22.53,    17.99,    10.92,     8.04
      118.0,      14.80,    22.41,    17.90,    10.86,     8.02
      119.0,      14.73,    22.28,    17.82,    10.81,     8.00
      120.0,      14.66,    22.16,    17.73,    10.75,     7.98
      121.0,      14.59,    22.04,    17.65,    10.70,     7.95
      122.0,      14.52,    21.93,    17.56,    10.65,     7.93
      123.0,      14.45,    21.81,    17.48,    10.60,     7.91
      124.0,      14.38,    21.69,    17.40,    10.54,     7.89
      125.0,      14.31,    21.57,    17.31,    10.49,     7.87
      126.0,      14.25,    21.46,    17.23,    10.44,     7.86
      127.0,      14.18,    21.34,    17.15,    10.39,     7.84
      128.0,      14.11,    21.23,    17.07,    10.34,     7.82
      129.0,      14.05,    21.12,    16.99,    10.29,     7.80
      130.0,      13.98,    21.00,    16.91,    10.24,     7.78
      131.0,      13.92,    20.89,    16.83,    10.19,     7.77
      132.0,      13.85,    20.78,    16.75,    10.14,     7.75
      133.0,      13.79,    20.67,    16.67,    10.09,     7.73
      134.0,      13.73,    20.56,    16.59,    10.04,     7.72
      135.0,      13.67,    20.45,    16.51,     9.99,     7.70
      136.0,      13.60,    20.35,    16.43,     9.94,     7.69
      137.0,      13.54,    20.24,    16.36,     9.90,     7.67
      138.0,      13.48,    20.13,    16.28,     9.85,     7.66
      139.0,      13.42,    20.03,    16.20,     9.80,     7.64
      140.0,      13.36,    19.92,    16.13,     9.75,     7.63
      141.0,      13.30,    19.82,    16.05,     9.70,     7.61
      142.0,      13.24,    19.72,    15.98,     9.66,     7.60
      143.0,      13.18,    19.61,    15.90,     9.61,     7.59
      144.0,      13.12,    19.51,    15.83,     9.56,     7.57
      145.0,      13.06,    19.41,    15.76,     9.52,     7.56
      146.0,      13.00,    19.31,    15.68,     9.47,     7.55
      147.0,      12.95,    19.21,    15.61,     9.43,     7.53
      148.0,      12.89,    19.11,    15.54,     9.38,     7.52
      149.0,      12.83,    19.01,    15.47,     9.34,     7.51
      150.0,      12.77,    18.91,    15.39,     9.29,     7.50
      151.0,      12.72,    18.81,    15.32,     9.25,     7.49
      152.0,      12.66,    18.72,    15.25,     9.20,     7.47
      153.0,      12.61,    18.62,    15.18,     9.16,     7.46
      154.0,      12.55,    18.53,    15.11,     9.12,     7.45
      155.0,      12.50,    18.43,    15.04,     9.07,     7.44
      156.0,      12.44,    18.34,    14.97,     9.03,     7.43
      157.0,      12.39,    18.24,    14.90,     8.99,     7.42
      158.0,      12.33,    18.15,    14.83,     8.94,     7.41
      159.0,      12.28,    18.05,    14.76,     8.90,     7.40
      160.0,      12.23,    17.96,    14.70,     8.86,     7.39
      161.0,      12.17,    17.87,    14.63,     8.82,     7.38
      162.0,      12.12,    17.78,    14.56,     8.77,     7.37
      163.0,      12.07,    17.69,    14.49,     8.73,     7.36
      164.0,      12.02,    17.60,    14.43,     8.69,     7.35
      165.0,      11.96,    17.51,    14.36,     8.65,     7.34
      166.0,      11.91,    17.42,    14.29,     8.61,     7.33
      167.0,      11.86,    17.33,    14.23,     8.57,     7.32
      168.0,      11.81,    17.24,    14.16,     8.53,     7.31
      169.0,      11.76,    17.15,    14.10,     8.49,     7.30
      170.0,      11.71,    17.07,    14.03,     8.45,     7.29
      171.0,      11.66,    16.98,    13.97,     8.41,     7.28
      172.0,      11.61,    16.89,    13.90,     8.37,     7.27
      173.0,      11.56,    16.81,    13.84,     8.33,     7.26
      174.0,      11.51,    16.72,    13.78,     8.29,     7.25
      175.0,      11.46,    16.64,    13.71,     8.25,     7.24
      176.0,      11.41,    16.55,    13.65,     8.21,     7.23
      177.0,      11.36,    16.47,    13.59,     8.17,     7.22
      178.0,      11.32,    16.39,    13.53,     8.14,     7.21
      179.0,      11.27,    16.30,    13.46,     8.10,     7.21
      180.0,      11.22,    16.22,    13.40,     8.06,     7.20
      181.0,      11.17,    16.14,    13.34,     8.02,     7.19
      182.0,      11.13,    16.06,    13.28,     7.99,     7.18
      183.0,      11.08,    15.98,    13.22,     7.95,     7.17
      184.0,      11.03,    15.90,    13.16,     7.91,     7.16
      185.0,      10.99,    15.82,    13.10,     7.87,     7.15
      186.0,      10.94,    15.74,    13.04,     7.84,     7.15
      187.0,      10.89,    15.66,    12.98,     7.80,     7.14
      188.0,      10.85,    15.58,    12.92,     7.77,     7.13
      189.0,      10.80,    15.50,    12.86,     7.73,     7.12
      190.0,      10.76,    15.42,    12.80,     7.69,     7.11
      191.0,      10.71,    15.35,    12.74,     7.66,     7.11
      192.0,      10.67,    15.27,    12.68,     7.62,     7.10
      193.0,      10.62,    15.19,    12.63,     7.59,     7.09
      194.0,      10.58,    15.12,    12.57,     7.55,     7.08
      195.0,      10.54,    15.04,    12.51,     7.52,     7.07
      196.0,      10.49,    14.96,    12.45,     7.48,     7.07
      197.0,      10.45,    14.89,    12.40,     7.45,     7.06
      198.0,      10.40,    14.81,    12.34,     7.41,     7.05
      199.0,      10.36,    14.74,    12.28,     7.38,     7.04
      200.0,      10.32,    14.67,    12.23,     7.35,     7.03
      201.0,      10.28,    14.59,    12.17,     7.31,     7.03
      202.0,      10.23,    14.52,    12.12,     7.28,     7.02
      203.0,      10.19,    14.45,    12.06,     7.25,     7.01
      204.0,      10.15,    14.37,    12.01,     7.21,     7.00
      205.0,      10.11,    14.30,    11.95,     7.18,     7.00
      206.0,      10.07,    14.23,    11.90,     7.15,     6.99
      207.0,      10.02,    14.16,    11.84,     7.11,     6.98
      208.0,       9.98,    14.09,    11.79,     7.08,     6.97
      209.0,       9.94,    14.02,    11.73,     7.05,     6.97
      210.0,       9.90,    13.95,    11.68,     7.02,     6.96
      211.0,       9.86,    13.88,    11.63,     6.98,     6.95
      212.0,       9.82,    13.81,    11.57,     6.95,     6.94
      213.0,       9.78,    13.74,    11.52,     6.92,     6.94
      214.0,       9.74,    13.67,    11.47,     6.89,     6.93
      215.0,       9.70,    13.60,    11.42,     6.86,     6.92
      216.0,       9.66,    13.54,    11.36,     6.83,     6.91
      217.0,       9.62,    13.47,    11.31,     6.80,     6.91
      218.0,       9.58,    13.40,    11.26,     6.77,     6.90
      219.0,       9.54,    13.33,    11.21,     6.73,     6.89
      220.0,       9.50,    13.27,    11.16,     6.70,     6.89
      221.0,       9.46,    13.20,    11.11,     6.67,     6.88
      222.0,       9.43,    13.13,    11.06,     6.64,     6.87
      223.0,       9.39,    13.07,    11.01,     6.61,     6.86
      224.0,       9.35,    13.00,    10.96,     6.58,     6.86
      225.0,       9.31,    12.94,    10.91,     6.55,     6.85
      226.0,       9.27,    12.87,    10.86,     6.52,     6.84
      227.0,       9.24,    12.81,    10.81,     6.50,     6.84
      228.0,       9.20,    12.75,    10.76,     6.47,     6.83
      229.0,       9.16,    12.68,    10.71,     6.44,     6.82
      230.0,       9.13,    12.62,    10.66,     6.41,     6.81
      231.0,       9.09,    12.56,    10.61,     6.38,     6.81
      232.0,       9.05,    12.49,    10.56,     6.35,     6.80
      233.0,       9.02,    12.43,    10.51,     6.32,     6.79
      234.0,       8.98,    12.37,    10.47,     6.29,     6.79
      235.0,       8.94,    12.31,    10.42,     6.27,     6.78
      236.0,       8.91,    12.25,    10.37,     6.24,     6.77
      237.0,       8.87,    12.19,    10.32,     6.21,     6.77
      238.0,       8.84,    12.13,    10.28,     6.18,     6.76
      239.0,       8.80,    12.07,    10.23,     6.15,     6.75
      240.0,       8.76,    12.01,    10.18,     6.13,     6.74
      241.0,       8.73,    11.95,    10.14,     6.10,     6.74
      242.0,       8.69,    11.89,    10.09,     6.07,     6.73
      243.0,       8.66,    11.83,    10.04,     6.05,     6.72
      244.0,       8.63,    11.77,    10.00,     6.02,     6.72
      245.0,       8.59,    11.71,     9.95,     5.99,     6.71
      246.0,       8.56,    11.65,     9.91,     5.97,     6.70
      247.0,       8.52,    11.59,     9.86,     5.94,     6.70
      248.0,       8.49,    11.54,     9.82,     5.91,     6.69
      249.0,       8.45,    11.48,     9.77,     5.89,     6.68
      250.0,       8.42,    11.42,     9.73,     5.86,     6.68
      251.0,       8.39,    11.36,     9.68,     5.83,     6.67
      252.0,       8.35,    11.31,     9.64,     5.81,     6.66
      253.0,       8.32,    11.25,     9.60,     5.78,     6.66
      254.0,       8.29,    11.20,     9.55,     5.76,     6.65
      255.0,       8.26,    11.14,     9.51,     5.73,     6.64
      256.0,       8.22,    11.08,     9.46,     5.71,     6.64
      257.0,       8.19,    11.03,     9.42,     5.68,     6.63
      258.0,       8.16,    10.97,     9.38,     5.66,     6.62
      259.0,       8.13,    10.92,     9.34,     5.63,     6.62
      260.0,       8.09,    10.87,     9.29,     5.61,     6.61
      261.0,       8.06,    10.81,     9.25,     5.58,     6.60
      262.0,       8.03,    10.76,     9.21,     5.56,     6.60
      263.0,       8.00,    10.70,     9.17,     5.53,     6.59
      264.0,       7.97,    10.65,     9.13,     5.51,     6.58
      265.0,       7.94,    10.60,     9.08,     5.48,     6.58
      266.0,       7.90,    10.55,     9.04,     5.46,     6.57
      267.0,       7.87,    10.49,     9.00,     5.44,     6.56
      268.0,       7.84,    10.44,     8.96,     5.41,     6.56
      269.0,       7.81,    10.39,     8.92,     5.39,     6.55
      270.0,       7.78,    10.34,     8.88,     5.37,     6.54
      271.0,       7.75,    10.29,     8.84,     5.34,     6.54
      272.0,       7.72,    10.24,     8.80,     5.32,     6.53
      273.0,       7.69,    10.18,     8.76,     5.30,     6.52
      274.0,       7.66,    10.13,     8.72,     5.27,     6.52
      275.0,       7.63,    10.08,     8.68,     5.25,     6.51
      276.0,       7.60,    10.03,     8.64,     5.23,     6.50
      277.0,       7.57,     9.98,     8.60,     5.20,     6.50
      278.0,       7.54,     9.93,     8.56,     5.18,     6.49
      279.0,       7.51,     9.88,     8.52,     5.16,     6.48
      280.0,       7.48,     9.84,     8.48,     5.14,     6.48
      281.0,       7.45,     9.79,     8.44,     5.11,     6.47
      282.0,       7.42,     9.74,     8.40,     5.09,     6.46
      283.0,       7.40,     9.69,     8.37,     5.07,     6.46
      284.0,       7.37,     9.64,     8.33,     5.05,     6.45
      285.0,       7.34,     9.59,     8.29,     5.03,     6.44
      286.0,       7.31,     9.55,     8.25,     5.00,     6.44
      287.0,       7.28,     9.50,     8.22,     4.98,     6.43
      288.0,       7.25,     9.45,     8.18,     4.96,     6.43
      289.0,       7.23,     9.40,     8.14,     4.94,     6.42
      290.0,       7.20,     9.36,     8.10,     4.92,     6.41
      291.0,       7.17,     9.31,     8.07,     4.90,     6.41
      292.0,       7.14,     9.27,     8.03,     4.88,     6.40
      293.0,       7.12,     9.22,     7.99,     4.85,     6.39
      294.0,       7.09,     9.17,     7.96,     4.83,     6.39
      295.0,       7.06,     9.13,     7.92,     4.81,     6.38
      296.0,       7.03,     9.08,     7.88,     4.79,     6.37
      297.0,       7.01,     9.04,     7.85,     4.77,     6.37
      298.0,       6.98,     8.99,     7.81,     4.75,     6.36
      299.0,       6.95,     8.95,     7.78,     4.73,     6.35
      300.0,       6.93,     8.90,     7.74,     4.71,     6.35
      301.0,       6.90,     8.86,     7.71,     4.69,     6.34
      302.0,       6.87,     8.82,     7.67,     4.67,     6.34
      303.0,       6.85,     8.77,     7.64,     4.65,     6.33
      304.0,       6.82,     8.73,     7.60,     4.63,     6.32
      305.0,       6.79,     8.69,     7.57,     4.61,     6.32
      306.0,       6.77,     8.64,     7.53,     4.59,     6.31
      307.0,       6.74,     8.60,     7.50,     4.57,     6.30
      308.0,       6.72,     8.56,     7.46,     4.55,     6.30
      309.0,       6.69,     8.51,     7.43,     4.53,     6.29
      310.0,       6.67,     8.47,     7.40,     4.51,     6.28
