Radius (km), Mean (m/s), NE (m/s), SE (m/s), SW (m/s), NW (m/s)
        0.0,       0.00,     0.00,     0.00,     0.00,     0.00
        1.0,       1.52,     1.07,     1.58,     1.87,     1.58
        2.0,       3.17,     2.52,     3.26,     3.64,     3.26
        3.0,       4.88,     4.15,     5.00,     5.37,     5.00
        4.0,       6.63,     5.91,     6.76,     7.08,     6.76
        5.0,       8.41,     7.78,     8.55,     8.77,     8.55
        6.0,      10.22,     9.75,    10.35,    10.45,    10.35
        7.0,      12.06,    11.78,    12.17,    12.11,    12.17
        8.0,      13.92,    13.89,    14.00,    13.77,    14.00
        9.0,      15.79,    16.06,    15.85,    15.42,    15.85
       10.0,      17.69,    18.29,    17.70,    17.06,    17.70
       11.0,      19.60,    20.56,    19.57,    18.70,    19.57
       12.0,      21.53,    22.90,    21.45,    20.33,    21.45
       13.0,      23.50,    25.32,    23.36,    21.97,    23.36
       14.0,      25.59,    27.92,    25.38,    23.67,    25.39
       15.0,      27.88,    30.83,    27.58,    25.48,    27.61
       16.0,      30.43,    34.14,    30.01,    27.47,    30.10
       17.0,      33.28,    37.90,    32.70,    29.66,    32.88
       18.0,      36.39,    42.04,    35.60,    32.02,    35.92
       19.0,      39.66,    46.43,    38.64,    34.49,    39.10
       20.0,      42.94,    50.84,    41.66,    36.96,    42.28
       21.0,      46.04,    55.03,    44.52,    39.32,    45.27
       22.0,      48.78,    58.73,    47.06,    41.43,    47.90
       23.0,      51.02,    61.72,    49.15,    43.18,    50.01
       24.0,      52.64,    63.87,    50.69,    44.50,    51.51
       25.0,      53.62,    65.11,    51.67,    45.35,    52.36
       26.0,      53.98,    65.48,    52.11,    45.74,    52.60
       27.0,      53.80,    65.09,    52.08,    45.73,    52.31
       28.0,      53.22,    64.13,    51.69,    45.42,    51.62
       29.0,      52.35,    62.79,    51.07,    44.89,    50.66
       30.0,      51.36,    61.26,    50.33,    44.25,    49.58
       31.0,      50.33,    59.70,    49.57,    43.58,    48.47
       32.0,      49.34,    58.19,    48.83,    42.92,    47.41
       33.0,      48.41,    56.78,    48.14,    42.31,    46.41
       34.0,      47.54,    55.46,    47.50,    41.73,    45.47
       35.0,      46.72,    54.21,    46.89,    41.19,    44.59
       36.0,      45.92,    53.00,    46.30,    40.66,    43.73
       37.0,      45.15,    51.83,    45.72,    40.15,    42.91
       38.0,      44.41,    50.71,    45.17,    39.65,    42.12
       39.0,      43.69,    49.63,    44.63,    39.16,    41.35
       40.0,      43.00,    48.58,    44.11,    38.69,    40.62
       41.0,      42.33,    47.58,    43.61,    38.24,    39.91
       42.0,      41.69,    46.61,    43.12,    37.79,    39.22
       43.0,      41.06,    45.67,    42.65,    37.36,    38.57
       44.0,      40.46,    44.77,    42.19,    36.94,    37.93
       45.0,      39.88,    43.90,    41.75,    36.53,    37.32
       46.0,      39.31,    43.06,    41.32,    36.14,    36.73
       47.0,      38.77,    42.25,    40.90,    35.75,    36.16
       48.0,      38.24,    41.47,    40.49,    35.38,    35.61
       49.0,      37.73,    40.72,    40.10,    35.01,    35.08
       50.0,      37.23,    39.99,    39.72,    34.66,    34.57
       51.0,      36.76,    39.29,    39.35,    34.31,    34.07
       52.0,      36.29,    38.61,    38.99,    33.97,    33.60
       53.0,      35.85,    37.96,    38.64,    33.65,    33.14
       54.0,      35.41,    37.33,    38.30,    33.33,    32.69
       55.0,      34.99,    36.72,    37.97,    33.02,    32.26
       56.0,      34.59,    36.14,    37.65,    32.71,    31.85
       57.0,      34.19,    35.57,    37.33,    32.42,    31.45
       58.0,      33.81,    35.02,    37.03,    32.13,    31.06
       59.0,      33.44,    34.49,    36.73,    31.85,    30.69
       60.0,      33.08,    33.98,    36.44,    31.58,    30.33
       61.0,      32.73,    33.49,    36.16,    31.31,    29.98
       62.0,      32.40,    33.01,    35.89,    31.05,    29.64
       63.0,      32.07,    32.55,    35.62,    30.79,    29.32
       64.0,      31.75,    32.11,    35.36,    30.55,    29.00
       65.0,      31.45,    31.67,    35.11,    30.30,    28.70
       66.0,      31.15,    31.26,    34.86,    30.07,    28.40
       67.0,      30.86,    30.86,    34.62,    29.84,    28.11
       68.0,      30.58,    30.47,    34.38,    29.61,    27.84
       69.0,      30.30,    30.09,    34.15,    29.39,    27.57
       70.0,      30.04,    29.73,    33.93,    29.18,    27.31
       71.0,      29.78,    29.38,    33.71,    28.97,    27.06
       72.0,      29.53,    29.04,    33.49,    28.76,    26.82
       73.0,      29.28,    28.71,    33.28,    28.56,    26.58
       74.0,      29.04,    28.39,    33.08,    28.36,    26.35
       75.0,      28.81,    28.08,    32.87,    28.17,    26.13
       76.0,      28.59,    27.78,    32.68,    27.98,    25.91
       77.0,      28.37,    27.49,    32.49,    27.79,    25.71
       78.0,      28.16,    27.21,    32.30,    27.61,    25.50
       79.0,      27.95,    26.94,    32.11,    27.44,    25.31
       80.0,      27.75,    26.68,    31.93,    27.26,    25.12
       81.0,      27.55,    26.43,    31.75,    27.09,    24.93
       82.0,      27.36,    26.18,    31.58,    26.92,    24.75
       83.0,      27.17,    25.94,    31.41,    26.76,    24.58
       84.0,      26.99,    25.71,    31.24,    26.60,    24.41
       85.0,      26.81,    25.48,    31.07,    26.44,    24.24
       86.0,      26.64,    25.27,    30.91,    26.29,    24.08
       87.0,      26.47,    25.05,    30.75,    26.14,    23.92
       88.0,      26.30,    24.85,    30.60,    25.99,    23.77
       89.0,      26.14,    24.65,    30.44,    25.84,    23.62
       90.0,      25.98,    24.45,    30.29,    25.70,    23.48
       91.0,      25.83,    24.27,    30.14,    25.56,    23.34
       92.0,      25.67,    24.08,    30.00,    25.42,    23.20
       93.0,      25.53,    23.91,    29.85,    25.28,    23.06
       94.0,      25.38,    23.73,    29.71,    25.15,    22.93
       95.0,      25.24,    23.57,    29.57,    25.01,    22.81
       96.0,      25.10,    23.40,    29.44,    24.88,    22.68
       97.0,      24.97,    23.24,    29.30,    24.76,    22.56
       98.0,      24.83,    23.09,    29.17,    24.63,    22.44
       99.0,      24.70,    22.94,    29.04,    24.51,    22.33
      100.0,      24.57,    22.79,    28.91,    24.39,    22.21
      101.0,      24.45,    22.65,    28.78,    24.27,    22.10
      102.0,      24.33,    22.51,    28.65,    24.15,    22.00
      103.0,      24.21,    22.37,    28.53,    24.03,    21.89
      104.0,      24.09,    22.24,    28.40,    23.92,    21.79
      105.0,      23.97,    22.11,    28.28,    23.80,    21.68
      106.0,      23.86,    21.99,    28.16,    23.69,    21.59
      107.0,      23.74,    21.87,    28.04,    23.58,    21.49
      108.0,      23.63,    21.75,    27.93,    23.47,    21.39
      109.0,      23.53,    21.63,    27.81,    23.36,    21.30
      110.0,      23.42,    21.52,    27.70,    23.26,    21.21
      111.0,      23.31,    21.40,    27.58,    23.15,    21.12
      112.0,      23.21,    21.30,    27.47,    23.05,    21.03
      113.0,      23.11,    21.19,    27.36,    22.95,    20.94
      114.0,      23.01,    21.09,    27.25,    22.85,    20.86
      115.0,      22.91,    20.98,    27.14,    22.75,    20.77
      116.0,      22.82,    20.88,    27.03,    22.65,    20.69
      117.0,      22.72,    20.79,    26.93,    22.55,    20.61
      118.0,      22.63,    20.69,    26.82,    22.46,    20.53
      119.0,      22.53,    20.60,    26.72,    22.36,    20.45
      120.0,      22.44,    20.51,    26.61,    22.27,    20.38
      121.0,      22.35,    20.42,    26.51,    22.17,    20.30
      122.0,      22.26,    20.33,    26.41,    22.08,    20.23
      123.0,      22.17,    20.24,    26.31,    21.99,    20.15
      124.0,      22.09,    20.16,    26.21,    21.90,    20.08
      125.0,      22.00,    20.08,    26.11,    21.81,    20.01
      126.0,      21.92,    20.00,    26.01,    21.72,    19.94
      127.0,      21.83,    19.92,    25.91,    21.64,    19.87
      128.0,      21.75,    19.84,    25.82,    21.55,    19.80
      129.0,      21.67,    19.76,    25.72,    21.46,    19.74
      130.0,      21.59,    19.68,    25.63,    21.38,    19.67
      131.0,      21.51,    19.61,    25.53,    21.30,    19.60
      132.0,      21.43,    19.54,    25.44,    21.21,    19.54
      133.0,      21.35,    19.46,    25.34,    21.13,    19.47
      134.0,      21.28,    19.39,    25.25,    21.05,    19.41
      135.0,      21.20,    19.32,    25.16,    20.97,    19.35
      136.0,      21.12,    19.25,    25.07,    20.89,    19.29
      137.0,      21.05,    19.19,    24.98,    20.81,    19.23
      138.0,      20.98,    19.12,    24.89,    20.73,    19.17
      139.0,      20.90,    19.05,    24.80,    20.65,    19.11
      140.0,      20.83,    18.99,    24.71,    20.57,    19.05
      141.0,      20.76,    18.93,    24.62,    20.49,    18.99
      142.0,      20.69,    18.86,    24.53,    20.42,    18.93
      143.0,      20.61,    18.80,    24.45,    20.34,    18.87
      144.0,      20.54,    18.74,    24.36,    20.26,    18.82
      145.0,      20.48,    18.68,    24.27,    20.19,    18.76
      146.0,      20.41,    18.62,    24.19,    20.11,    18.70
      147.0,      20.34,    18.56,    24.10,    20.04,    18.65
      148.0,      20.27,    18.50,    24.02,    19.97,    18.59
      149.0,      20.20,    18.44,    23.93,    19.89,    18.54
      150.0,      20.14,    18.39,    23.85,    19.82,    18.48
      151.0,      20.07,    18.33,    23.77,    19.75,    18.43
      152.0,      20.00,    18.27,    23.68,    19.68,    18.38
      153.0,      19.94,    18.22,    23.60,    19.61,    18.32
      154.0,      19.87,    18.16,    23.52,    19.54,    18.27
      155.0,      19.81,    18.11,    23.44,    19.47,    18.22
      156.0,      19.74,    18.06,    23.36,    19.40,    18.17
      157.0,      19.68,    18.00,    23.28,    19.33,    18.12
      158.0,      19.62,    17.95,    23.20,    19.26,    18.07
      159.0,      19.56,    17.90,    23.12,    19.19,    18.02
      160.0,      19.49,    17.85,    23.04,    19.12,    17.97
      161.0,      19.43,    17.80,    22.96,    19.05,    17.92
      162.0,      19.37,    17.75,    22.88,    18.99,    17.87
      163.0,      19.31,    17.70,    22.80,    18.92,    17.82
      164.0,      19.25,    17.65,    22.72,    18.85,    17.77
      165.0,      19.19,    17.60,    22.65,    18.79,    17.72
      166.0,      19.13,    17.55,    22.57,    18.72,    17.67
      167.0,      19.07,    17.50,    22.49,    18.65,    17.62
      168.0,      19.01,    17.45,    22.41,    18.59,    17.58
      169.0,      18.95,    17.41,    22.34,    18.52,    17.53
      170.0,      18.89,    17.36,    22.26,    18.46,    17.48
      171.0,      18.83,    17.31,    22.19,    18.40,    17.43
      172.0,      18.77,    17.26,    22.11,    18.33,    17.39
      173.0,      18.72,    17.22,    22.04,    18.27,    17.34
      174.0,      18.66,    17.17,    21.96,    18.21,    17.29
      175.0,      18.60,    17.13,    21.89,    18.14,    17.25
      176.0,      18.54,    17.08,    21.81,    18.08,    17.20
      177.0,      18.49,    17.04,    21.74,    18.02,    17.16
      178.0,      18.43,    16.99,    21.67,    17.96,    17.11
      179.0,      18.38,    16.95,    21.59,    17.90,    17.07
      180.0,      18.32,    16.90,    21.52,    17.83,    17.02
      181.0,      18.26,    16.86,    21.45,    17.77,    16.98
      182.0,      18.21,    16.81,    21.38,    17.71,    16.93
      183.0,      18.15,    16.77,    21.30,    17.65,    16.89
      184.0,      18.10,    16.73,    21.23,    17.59,    16.84
      185.0,      18.04,    16.68,    21.16,    17.53,    16.80
      186.0,      17.99,    16.64,    21.09,    17.47,    16.76
      187.0,      17.94,    16.60,    21.02,    17.41,    16.71
      188.0,      17.88,    16.56,    20.95,    17.35,    16.67
      189.0,      17.83,    16.52,    20.88,    17.29,    16.63
      190.0,      17.78,    16.47,    20.81,    17.24,    16.58
      191.0,      17.72,    16.43,    20.74,    17.18,    16.54
      192.0,      17.67,    16.39,    20.67,    17.12,    16.50
      193.0,      17.62,    16.35,    20.60,    17.06,    16.46
      194.0,      17.56,    16.31,    20.53,    17.00,    16.41
      195.0,      17.51,    16.27,    20.46,    16.95,    16.37
      196.0,      17.46,    16.23,    20.39,    16.89,    16.33
      197.0,      17.41,    16.19,    20.33,    16.83,    16.29
      198.0,      17.36,    16.15,    20.26,    16.78,    16.25
      199.0,      17.30,    16.11,    20.19,    16.72,    16.20
      200.0,      17.25,    16.07,    20.12,    16.66,    16.16
      201.0,      17.20,    16.03,    20.06,    16.61,    16.12
      202.0,      17.15,    15.99,    19.99,    16.55,    16.08
      203.0,      17.10,    15.95,    19.92,    16.50,    16.04
      204.0,      17.05,    15.91,    19.86,    16.44,    16.00
      205.0,      17.00,    15.87,    19.79,    16.39,    15.96
      206.0,      16.95,    15.83,    19.72,    16.33,    15.92
      207.0,      16.90,    15.79,    19.66,    16.28,    15.88
      208.0,      16.85,    15.75,    19.59,    16.22,    15.84
      209.0,      16.80,    15.71,    19.53,    16.17,    15.80
      210.0,      16.75,    15.67,    19.46,    16.11,    15.76
      211.0,      16.70,    15.64,    19.40,    16.06,    15.72
      212.0,      16.65,    15.60,    19.33,    16.01,    15.68
      213.0,      16.60,    15.56,    19.27,    15.95,    15.64
      214.0,      16.56,    15.52,    19.21,    15.90,    15.60
      215.0,      16.51,    15.48,    19.14,    15.85,    15.56
      216.0,      16.46,    15.45,    19.08,    15.79,    15.52
      217.0,      16.41,    15.41,    19.01,    15.74,    15.48
      218.0,      16.36,    15.37,    18.95,    15.69,    15.44
      219.0,      16.31,    15.33,    18.89,    15.64,    15.40
      220.0,      16.27,    15.30,    18.83,    15.58,    15.36
      221.0,      16.22,    15.26,    18.76,    15.53,    15.32
      222.0,      16.17,    15.22,    18.70,    15.48,    15.28
      223.0,      16.13,    15.19,    18.64,    15.43,    15.24
      224.0,      16.08,    15.15,    18.58,    15.38,    15.21
      225.0,      16.03,    15.11,    18.51,    15.33,    15.17
      226.0,      15.98,    15.08,    18.45,    15.28,    15.13
      227.0,      15.94,    15.04,    18.39,    15.23,    15.09
      228.0,      15.89,    15.01,    18.33,    15.18,    15.05
      229.0,      15.85,    14.97,    18.27,    15.13,    15.02
      230.0,      15.80,    14.93,    18.21,    15.08,    14.98
      231.0,      15.75,    14.90,    18.15,    15.03,    14.94
      232.0,      15.71,    14.86,    18.09,    14.98,    14.90
      233.0,      15.66,    14.83,    18.03,    14.93,    14.87
      234.0,      15.62,    14.79,    17.97,    14.88,    14.83
      235.0,      15.57,    14.76,    17.91,    14.83,    14.79
      236.0,      15.53,    14.72,    17.85,    14.78,    14.75
      237.0,      15.48,    14.68,    17.79,    14.73,    14.72
      238.0,      15.44,    14.65,    17.73,    14.68,    14.68
      239.0,      15.39,    14.61,    17.67,    14.63,    14.64
      240.0,      15.35,    14.58,    17.62,    14.58,    14.61
      241.0,      15.30,    14.55,    17.56,    14.54,    14.57
      242.0,      15.26,    14.51,    17.50,    14.49,    14.53
      243.0,      15.21,    14.48,    17.44,    14.44,    14.50
      244.0,      15.17,    14.44,    17.38,    14.39,    14.46
      245.0,      15.12,    14.41,    17.33,    14.34,    14.42
      246.0,      15.08,    14.37,    17.27,    14.30,    14.39
      247.0,      15.04,    14.34,    17.21,    14.25,    14.35
      248.0,      14.99,    14.30,    17.15,    14.20,    14.32
      249.0,      14.95,    14.27,    17.10,    14.16,    14.28
      250.0,      14.91,    14.24,    17.04,    14.11,    14.24
      251.0,      14.86,    14.20,    16.98,    14.06,    14.21
      252.0,      14.82,    14.17,    16.93,    14.02,    14.17
      253.0,      14.78,    14.13,    16.87,    13.97,    14.14
      254.0,      14.74,    14.10,    16.82,    13.92,    14.10
      255.0,      14.69,    14.07,    16.76,    13.88,    14.07
      256.0,      14.65,    14.03,    16.70,    13.83,    14.03
      257.0,      14.61,    14.00,    16.65,    13.79,    14.00
      258.0,      14.57,    13.97,    16.59,    13.74,    13.96
      259.0,      14.52,    13.93,    16.54,    13.70,    13.93
      260.0,      14.48,    13.90,    16.48,    13.65,    13.89
      261.0,      14.44,    13.87,    16.43,    13.60,    13.86
      262.0,      14.40,    13.84,    16.38,    13.56,    13.82
      263.0,      14.36,    13.80,    16.32,    13.52,    13.79
      264.0,      14.32,    13.77,    16.27,    13.47,    13.75
      265.0,      14.27,    13.74,    16.21,    13.43,    13.72
      266.0,      14.23,    13.70,    16.16,    13.38,    13.68
      267.0,      14.19,    13.67,    16.11,    13.34,    13.65
      268.0,      14.15,    13.64,    16.05,    13.29,    13.62
      269.0,      14.11,    13.61,    16.00,    13.25,    13.58
      270.0,      14.07,    13.58,    15.95,    13.21,    13.55
      271.0,      14.03,    13.54,    15.89,    13.16,    13.51
      272.0,      13.99,    13.51,    15.84,    13.12,    13.48
      273.0,      13.95,    13.48,    15.79,    13.08,    13.45
      274.0,      13.91,    13.45,    15.74,    13.03,    13.41
      275.0,      13.87,    13.42,    15.68,    12.99,    13.38
      276.0,      13.83,    13.38,    15.63,    12.95,    13.35
      277.0,      13.79,    13.35,    15.58,    12.91,    13.31
      278.0,      13.75,    13.32,    15.53,    12.86,    13.28
      279.0,      13.71,    13.29,    15.48,    12.82,    13.25
      280.0,      13.67,    13.26,    15.43,    12.78,    13.21
      281.0,      13.63,    13.23,    15.38,    12.74,    13.18
      282.0,      13.59,    13.19,    15.33,    12.69,    13.15
      283.0,      13.55,    13.16,    15.27,    12.65,    13.11
      284.0,      13.51,    13.13,    15.22,    12.61,    13.08
      285.0,      13.47,    13.10,    15.17,    12.57,    13.05
      286.0,      13.43,    13.07,    15.12,    12.53,    13.02
      287.0,      13.40,    13.04,    15.07,    12.49,    12.98
      288.0,      13.36,    13.01,    15.02,    12.45,    12.95
      289.0,      13.32,    12.98,    14.97,    12.40,    12.92
      290.0,      13.28,    12.95,    14.92,    12.36,    12.89
      291.0,      13.24,    12.92,    14.87,    12.32,    12.86
      292.0,      13.20,    12.89,    14.83,    12.28,    12.82
      293.0,      13.17,    12.86,    14.78,    12.24,    12.79
      294.0,      13.13,    12.83,    14.73,    12.20,    12.76
      295.0,      13.09,    12.79,    14.68,    12.16,    12.73
      296.0,      13.05,    12.76,    14.63,    12.12,    12.70
      297.0,      13.02,    12.73,    14.58,    12.08,    12.66
      298.0,      12.98,    12.70,    14.53,    12.04,    12.63
      299.0,      12.94,    12.67,    14.49,    12.00,    12.60
      300.0,      12.90,    12.64,    14.44,    11.96,    12.57
      301.0,      12.87,    12.61,    14.39,    11.92,    12.54
      302.0,      12.83,    12.58,    14.34,    11.88,    12.51
      303.0,      12.79,    12.56,    14.29,    11.85,    12.48
      304.0,      12.76,    12.53,    14.25,    11.81,    12.44
      305.0,      12.72,    12.50,    14.20,    11.77,    12.41
      306.0,      12.68,    12.47,    14.15,    11.73,    12.38
      307.0,      12.65,    12.44,    14.11,    11.69,    12.35
      308.0,      12.61,    12.41,    14.06,    11.65,    12.32
      309.0,      12.57,    12.38,    14.01,    11.61,    12.29
      310.0,      12.54,    12.35,    13.97,    11.58,    12.26
