Radius (km), Mean (m/s), NE (m/s), SE (m/s), SW (m/s), NW (m/s)
        0.0,       0.00,     0.00,     0.00,     0.00,     0.00
        1.0,       1.31,     1.31,     1.31,     1.31,     1.31
        2.0,       2.45,     2.45,     2.45,     2.45,     2.45
        3.0,       3.53,     3.53,     3.53,     3.53,     3.53
        4.0,       4.58,     4.58,     4.58,     4.58,     4.58
        5.0,       5.59,     5.59,     5.59,     5.59,     5.59
        6.0,       6.59,     6.59,     6.59,     6.59,     6.59
        7.0,       7.57,     7.57,     7.57,     7.57,     7.57
        8.0,       8.54,     8.54,     8.54,     8.54,     8.54
        9.0,       9.49,     9.49,     9.49,     9.49,     9.49
       10.0,      10.44,    10.44,    10.44,    10.44,    10.44
       11.0,      11.37,    11.37,    11.37,    11.37,    11.37
       12.0,      12.30,    12.30,    12.30,    12.30,    12.30
       13.0,      13.22,    13.22,    13.22,    13.22,    13.22
       14.0,      14.13,    14.13,    14.13,    14.13,    14.13
       15.0,      15.03,    15.03,    15.03,    15.03,    15.03
       16.0,      15.93,    15.93,    15.93,    15.93,    15.93
       17.0,      16.83,    16.83,    16.83,    16.83,    16.83
       18.0,      17.71,    17.71,    17.71,    17.71,    17.71
       19.0,      18.60,    18.60,    18.60,    18.60,    18.60
       20.0,      19.48,    19.48,    19.48,    19.48,    19.48
       21.0,      20.35,    20.35,    20.35,    20.35,    20.35
       22.0,      21.22,    21.22,    21.22,    21.22,    21.22
       23.0,      22.09,    22.09,    22.09,    22.09,    22.09
       24.0,      22.95,    22.95,    22.95,    22.95,    22.95
       25.0,      23.81,    23.81,    23.81,    23.81,    23.81
       26.0,      24.66,    24.66,    24.66,    24.66,    24.66
       27.0,      25.51,    25.51,    25.51,    25.51,    25.51
       28.0,      26.36,    26.36,    26.36,    26.36,    26.36
       29.0,      27.21,    27.21,    27.21,    27.21,    27.21
       30.0,      28.05,    28.05,    28.05,    28.05,    28.05
       31.0,      28.89,    28.89,    28.89,    28.89,    28.89
       32.0,      29.73,    29.73,    29.73,    29.73,    29.73
       33.0,      30.57,    30.57,    30.58,    30.57,    30.57
       34.0,      31.42,    31.41,    31.46,    31.40,    31.42
       35.0,      32.32,    32.30,    32.40,    32.26,    32.32
       36.0,      33.28,    33.26,    33.42,    33.17,    33.28
       37.0,      34.33,    34.32,    34.54,    34.14,    34.32
       38.0,      35.46,    35.48,    35.73,    35.19,    35.45
       39.0,      36.66,    36.74,    36.98,    36.30,    36.64
       40.0,      37.89,    38.04,    38.22,    37.46,    37.85
       41.0,      39.09,    39.31,    39.40,    38.61,    39.02
       42.0,      40.19,    40.48,    40.46,    39.71,    40.11
       43.0,      41.13,    41.47,    41.34,    40.68,    41.04
       44.0,      41.88,    42.24,    42.02,    41.49,    41.78
       45.0,      42.40,    42.73,    42.48,    42.10,    42.31
       46.0,      42.69,    42.95,    42.72,    42.49,    42.62
       47.0,      42.77,    42.90,    42.77,    42.68,    42.73
       48.0,      42.67,    42.65,    42.68,    42.69,    42.68
       49.0,      42.44,    42.23,    42.48,    42.56,    42.51
       50.0,      42.14,    41.72,    42.23,    42.33,    42.27
       51.0,      41.80,    41.17,    41.97,    42.05,    41.99
       52.0,      41.45,    40.62,    41.70,    41.77,    41.72
       53.0,      41.12,    40.10,    41.45,    41.49,    41.46
       54.0,      40.82,    39.62,    41.21,    41.23,    41.21
       55.0,      40.52,    39.16,    40.97,    40.99,    40.98
       56.0,      40.24,    38.73,    40.74,    40.75,    40.75
       57.0,      39.96,    38.31,    40.50,    40.52,    40.52
       58.0,      39.69,    37.91,    40.27,    40.29,    40.30
       59.0,      39.43,    37.52,    40.05,    40.07,    40.07
       60.0,      39.16,    37.14,    39.82,    39.84,    39.85
       61.0,      38.90,    36.77,    39.59,    39.62,    39.64
       62.0,      38.65,    36.41,    39.37,    39.39,    39.42
       63.0,      38.40,    36.07,    39.15,    39.17,    39.21
       64.0,      38.16,    35.73,    38.93,    38.96,    39.00
       65.0,      37.91,    35.41,    38.71,    38.74,    38.80
       66.0,      37.68,    35.09,    38.50,    38.52,    38.59
       67.0,      37.44,    34.79,    38.28,    38.31,    38.39
       68.0,      37.21,    34.49,    38.07,    38.10,    38.19
       69.0,      36.98,    34.20,    37.86,    37.89,    37.99
       70.0,      36.76,    33.92,    37.65,    37.68,    37.79
       71.0,      36.54,    33.65,    37.45,    37.47,    37.60
       72.0,      36.32,    33.38,    37.24,    37.26,    37.41
       73.0,      36.11,    33.12,    37.04,    37.06,    37.22
       74.0,      35.90,    32.87,    36.83,    36.85,    37.03
       75.0,      35.69,    32.63,    36.63,    36.65,    36.85
       76.0,      35.49,    32.39,    36.43,    36.45,    36.66
       77.0,      35.28,    32.16,    36.24,    36.25,    36.48
       78.0,      35.08,    31.93,    36.04,    36.06,    36.30
       79.0,      34.89,    31.71,    35.85,    35.86,    36.12
       80.0,      34.69,    31.50,    35.65,    35.66,    35.95
       81.0,      34.50,    31.29,    35.46,    35.47,    35.77
       82.0,      34.31,    31.09,    35.27,    35.28,    35.60
       83.0,      34.12,    30.89,    35.09,    35.09,    35.43
       84.0,      33.94,    30.70,    34.90,    34.90,    35.26
       85.0,      33.76,    30.51,    34.71,    34.71,    35.10
       86.0,      33.58,    30.32,    34.53,    34.53,    34.93
       87.0,      33.40,    30.14,    34.35,    34.34,    34.77
       88.0,      33.22,    29.97,    34.17,    34.16,    34.61
       89.0,      33.05,    29.79,    33.99,    33.97,    34.45
       90.0,      32.88,    29.63,    33.81,    33.79,    34.29
       91.0,      32.71,    29.46,    33.63,    33.61,    34.13
       92.0,      32.54,    29.30,    33.46,    33.43,    33.97
       93.0,      32.38,    29.14,    33.28,    33.26,    33.82
       94.0,      32.21,    28.99,    33.11,    33.08,    33.67
       95.0,      32.05,    28.84,    32.94,    32.91,    33.52
       96.0,      31.89,    28.69,    32.77,    32.73,    33.37
       97.0,      31.73,    28.54,    32.60,    32.56,    33.22
       98.0,      31.58,    28.40,    32.44,    32.39,    33.07
       99.0,      31.42,    28.26,    32.27,    32.22,    32.93
      100.0,      31.27,    28.12,    32.11,    32.05,    32.78
      101.0,      31.11,    27.99,    31.94,    31.88,    32.64
      102.0,      30.96,    27.86,    31.78,    31.72,    32.50
      103.0,      30.82,    27.73,    31.62,    31.55,    32.36
      104.0,      30.67,    27.60,    31.46,    31.39,    32.22
      105.0,      30.52,    27.48,    31.30,    31.22,    32.08
      106.0,      30.38,    27.35,    31.15,    31.06,    31.95
      107.0,      30.23,    27.23,    30.99,    30.90,    31.81
      108.0,      30.09,    27.11,    30.84,    30.74,    31.68
      109.0,      29.95,    27.00,    30.68,    30.58,    31.55
      110.0,      29.81,    26.88,    30.53,    30.43,    31.42
      111.0,      29.68,    26.77,    30.38,    30.27,    31.29
      112.0,      29.54,    26.65,    30.23,    30.11,    31.16
      113.0,      29.40,    26.54,    30.08,    29.96,    31.03
      114.0,      29.27,    26.44,    29.94,    29.81,    30.91
      115.0,      29.14,    26.33,    29.79,    29.65,    30.78
      116.0,      29.01,    26.22,    29.65,    29.50,    30.66
      117.0,      28.88,    26.12,    29.50,    29.35,    30.53
      118.0,      28.75,    26.02,    29.36,    29.20,    30.41
      119.0,      28.62,    25.91,    29.22,    29.06,    30.29
      120.0,      28.49,    25.81,    29.08,    28.91,    30.17
      121.0,      28.37,    25.72,    28.94,    28.76,    30.05
      122.0,      28.24,    25.62,    28.80,    28.62,    29.93
      123.0,      28.12,    25.52,    28.66,    28.47,    29.82
      124.0,      28.00,    25.43,    28.53,    28.33,    29.70
      125.0,      27.87,    25.33,    28.39,    28.19,    29.58
      126.0,      27.75,    25.24,    28.26,    28.05,    29.47
      127.0,      27.63,    25.15,    28.12,    27.91,    29.36
      128.0,      27.52,    25.05,    27.99,    27.77,    29.25
      129.0,      27.40,    24.96,    27.86,    27.63,    29.13
      130.0,      27.28,    24.87,    27.73,    27.49,    29.02
      131.0,      27.16,    24.79,    27.60,    27.36,    28.91
      132.0,      27.05,    24.70,    27.48,    27.22,    28.81
      133.0,      26.94,    24.61,    27.35,    27.09,    28.70
      134.0,      26.82,    24.53,    27.22,    26.95,    28.59
      135.0,      26.71,    24.44,    27.10,    26.82,    28.49
      136.0,      26.60,    24.36,    26.97,    26.69,    28.38
      137.0,      26.49,    24.27,    26.85,    26.55,    28.28
      138.0,      26.38,    24.19,    26.73,    26.42,    28.17
      139.0,      26.27,    24.11,    26.61,    26.29,    28.07
      140.0,      26.16,    24.03,    26.49,    26.17,    27.97
      141.0,      26.05,    23.95,    26.37,    26.04,    27.87
      142.0,      25.95,    23.87,    26.25,    25.91,    27.77
      143.0,      25.84,    23.79,    26.13,    25.79,    27.67
      144.0,      25.74,    23.71,    26.02,    25.66,    27.57
      145.0,      25.63,    23.63,    25.90,    25.54,    27.47
      146.0,      25.53,    23.55,    25.78,    25.41,    27.37
      147.0,      25.43,    23.47,    25.67,    25.29,    27.28
      148.0,      25.33,    23.40,    25.56,    25.17,    27.18
      149.0,      25.22,    23.32,    25.45,    25.05,    27.08
      150.0,      25.12,    23.25,    25.33,    24.92,    26.99
      151.0,      25.02,    23.17,    25.22,    24.80,    26.90
      152.0,      24.92,    23.10,    25.11,    24.69,    26.80
      153.0,      24.83,    23.02,    25.01,    24.57,    26.71
      154.0,      24.73,    22.95,    24.90,    24.45,    26.62
      155.0,      24.63,    22.88,    24.79,    24.33,    26.53
      156.0,      24.53,    22.80,    24.68,    24.22,    26.44
      157.0,      24.44,    22.73,    24.58,    24.10,    26.35
      158.0,      24.34,    22.66,    24.47,    23.99,    26.26
      159.0,      24.25,    22.59,    24.37,    23.87,    26.17
      160.0,      24.16,    22.52,    24.27,    23.76,    26.08
      161.0,      24.06,    22.45,    24.16,    23.65,    25.99
      162.0,      23.97,    22.38,    24.06,    23.54,    25.90
      163.0,      23.88,    22.31,    23.96,    23.43,    25.82
      164.0,      23.79,    22.24,    23.86,    23.31,    25.73
      165.0,      23.70,    22.17,    23.76,    23.21,    25.65
      166.0,      23.61,    22.10,    23.66,    23.10,    25.56
      167.0,      23.52,    22.03,    23.57,    22.99,    25.48
      168.0,      23.43,    21.96,    23.47,    22.88,    25.39
      169.0,      23.34,    21.90,    23.37,    22.77,    25.31
      170.0,      23.25,    21.83,    23.28,    22.67,    25.23
      171.0,      23.16,    21.76,    23.18,    22.56,    25.15
      172.0,      23.08,    21.70,    23.09,    22.46,    25.06
      173.0,      22.99,    21.63,    22.99,    22.35,    24.98
      174.0,      22.90,    21.56,    22.90,    22.25,    24.90
      175.0,      22.82,    21.50,    22.81,    22.15,    24.82
      176.0,      22.73,    21.43,    22.72,    22.04,    24.74
      177.0,      22.65,    21.37,    22.63,    21.94,    24.66
      178.0,      22.57,    21.30,    22.54,    21.84,    24.59
      179.0,      22.48,    21.24,    22.45,    21.74,    24.51
      180.0,      22.40,    21.17,    22.36,    21.64,    24.43
      181.0,      22.32,    21.11,    22.27,    21.54,    24.35
      182.0,      22.24,    21.05,    22.18,    21.44,    24.28
      183.0,      22.16,    20.98,    22.09,    21.34,    24.20
      184.0,      22.07,    20.92,    22.01,    21.25,    24.12
      185.0,      21.99,    20.86,    21.92,    21.15,    24.05
      186.0,      21.91,    20.79,    21.84,    21.05,    23.97
      187.0,      21.84,    20.73,    21.75,    20.96,    23.90
      188.0,      21.76,    20.67,    21.67,    20.86,    23.82
      189.0,      21.68,    20.61,    21.59,    20.77,    23.75
      190.0,      21.60,    20.54,    21.50,    20.67,    23.68
      191.0,      21.52,    20.48,    21.42,    20.58,    23.60
      192.0,      21.45,    20.42,    21.34,    20.49,    23.53
      193.0,      21.37,    20.36,    21.26,    20.40,    23.46
      194.0,      21.29,    20.30,    21.18,    20.30,    23.39
      195.0,      21.22,    20.24,    21.10,    20.21,    23.32
      196.0,      21.14,    20.18,    21.02,    20.12,    23.25
      197.0,      21.07,    20.12,    20.94,    20.03,    23.18
      198.0,      20.99,    20.06,    20.87,    19.94,    23.11
      199.0,      20.92,    20.00,    20.79,    19.85,    23.04
      200.0,      20.85,    19.94,    20.71,    19.76,    22.97
      201.0,      20.77,    19.88,    20.64,    19.68,    22.90
      202.0,      20.70,    19.82,    20.56,    19.59,    22.83
      203.0,      20.63,    19.76,    20.49,    19.50,    22.76
      204.0,      20.56,    19.70,    20.41,    19.42,    22.69
      205.0,      20.48,    19.65,    20.34,    19.33,    22.63
      206.0,      20.41,    19.59,    20.26,    19.24,    22.56
      207.0,      20.34,    19.53,    20.19,    19.16,    22.49
      208.0,      20.27,    19.47,    20.12,    19.07,    22.42
      209.0,      20.20,    19.41,    20.05,    18.99,    22.36
      210.0,      20.13,    19.36,    19.97,    18.91,    22.29
      211.0,      20.06,    19.30,    19.90,    18.82,    22.23
      212.0,      20.00,    19.24,    19.83,    18.74,    22.16
      213.0,      19.93,    19.19,    19.76,    18.66,    22.10
      214.0,      19.86,    19.13,    19.69,    18.58,    22.03
      215.0,      19.79,    19.07,    19.63,    18.50,    21.97
      216.0,      19.72,    19.02,    19.56,    18.42,    21.90
      217.0,      19.66,    18.96,    19.49,    18.34,    21.84
      218.0,      19.59,    18.91,    19.42,    18.26,    21.78
      219.0,      19.52,    18.85,    19.36,    18.18,    21.71
      220.0,      19.46,    18.79,    19.29,    18.10,    21.65
      221.0,      19.39,    18.74,    19.22,    18.02,    21.59
      222.0,      19.33,    18.68,    19.16,    17.94,    21.53
      223.0,      19.26,    18.63,    19.09,    17.86,    21.47
      224.0,      19.20,    18.57,    19.03,    17.79,    21.40
      225.0,      19.13,    18.52,    18.96,    17.71,    21.34
      226.0,      19.07,    18.46,    18.90,    17.63,    21.28
      227.0,      19.01,    18.41,    18.84,    17.56,    21.22
      228.0,      18.94,    18.36,    18.77,    17.48,    21.16
      229.0,      18.88,    18.30,    18.71,    17.41,    21.10
      230.0,      18.82,    18.25,    18.65,    17.33,    21.04
      231.0,      18.76,    18.19,    18.59,    17.26,    20.98
      232.0,      18.69,    18.14,    18.53,    17.18,    20.92
      233.0,      18.63,    18.09,    18.47,    17.11,    20.86
      234.0,      18.57,    18.03,    18.41,    17.04,    20.80
      235.0,      18.51,    17.98,    18.35,    16.97,    20.75
      236.0,      18.45,    17.93,    18.29,    16.89,    20.69
      237.0,      18.39,    17.88,    18.23,    16.82,    20.63
      238.0,      18.33,    17.82,    18.17,    16.75,    20.57
      239.0,      18.27,    17.77,    18.11,    16.68,    20.51
      240.0,      18.21,    17.72,    18.05,    16.61,    20.46
      241.0,      18.15,    17.67,    18.00,    16.54,    20.40
      242.0,      18.09,    17.62,    17.94,    16.47,    20.34
      243.0,      18.03,    17.56,    17.88,    16.40,    20.29
      244.0,      17.98,    17.51,    17.83,    16.33,    20.23
      245.0,      17.92,    17.46,    17.77,    16.26,    20.17
      246.0,      17.86,    17.41,    17.72,    16.19,    20.12
      247.0,      17.80,    17.36,    17.66,    16.13,    20.06
      248.0,      17.75,    17.31,    17.61,    16.06,    20.01
      249.0,      17.69,    17.26,    17.55,    15.99,    19.95
      250.0,      17.63,    17.21,    17.50,    15.92,    19.90
      251.0,      17.58,    17.16,    17.44,    15.86,    19.84
      252.0,      17.52,    17.11,    17.39,    15.79,    19.79
      253.0,      17.46,    17.06,    17.34,    15.73,    19.73
      254.0,      17.41,    17.01,    17.29,    15.66,    19.68
      255.0,      17.35,    16.96,    17.23,    15.60,    19.62
      256.0,      17.30,    16.91,    17.18,    15.53,    19.57
      257.0,      17.24,    16.86,    17.13,    15.47,    19.52
      258.0,      17.19,    16.81,    17.08,    15.40,    19.46
      259.0,      17.13,    16.76,    17.03,    15.34,    19.41
      260.0,      17.08,    16.71,    16.98,    15.28,    19.36
      261.0,      17.03,    16.66,    16.93,    15.21,    19.31
      262.0,      16.97,    16.61,    16.88,    15.15,    19.25
      263.0,      16.92,    16.56,    16.83,    15.09,    19.20
      264.0,      16.87,    16.52,    16.78,    15.03,    19.15
      265.0,      16.82,    16.47,    16.73,    14.96,    19.10
      266.0,      16.76,    16.42,    16.68,    14.90,    19.05
      267.0,      16.71,    16.37,    16.64,    14.84,    18.99
      268.0,      16.66,    16.32,    16.59,    14.78,    18.94
      269.0,      16.61,    16.28,    16.54,    14.72,    18.89
      270.0,      16.56,    16.23,    16.49,    14.66,    18.84
      271.0,      16.50,    16.18,    16.45,    14.60,    18.79
      272.0,      16.45,    16.13,    16.40,    14.54,    18.74
      273.0,      16.40,    16.09,    16.35,    14.48,    18.69
      274.0,      16.35,    16.04,    16.31,    14.42,    18.64
      275.0,      16.30,    15.99,    16.26,    14.36,    18.59
      276.0,      16.25,    15.94,    16.22,    14.31,    18.54
      277.0,      16.20,    15.90,    16.17,    14.25,    18.49
      278.0,      16.15,    15.85,    16.13,    14.19,    18.44
      279.0,      16.10,    15.81,    16.08,    14.13,    18.39
      280.0,      16.05,    15.76,    16.04,    14.08,    18.34
      281.0,      16.01,    15.71,    15.99,    14.02,    18.29
      282.0,      15.96,    15.67,    15.95,    13.96,    18.25
      283.0,      15.91,    15.62,    15.91,    13.91,    18.20
      284.0,      15.86,    15.58,    15.86,    13.85,    18.15
      285.0,      15.81,    15.53,    15.82,    13.79,    18.10
      286.0,      15.76,    15.48,    15.78,    13.74,    18.05
      287.0,      15.72,    15.44,    15.74,    13.68,    18.00
      288.0,      15.67,    15.39,    15.69,    13.63,    17.96
      289.0,      15.62,    15.35,    15.65,    13.58,    17.91
      290.0,      15.57,    15.30,    15.61,    13.52,    17.86
      291.0,      15.53,    15.26,    15.57,    13.47,    17.81
      292.0,      15.48,    15.21,    15.53,    13.41,    17.77
      293.0,      15.44,    15.17,    15.49,    13.36,    17.72
      294.0,      15.39,    15.13,    15.45,    13.31,    17.67
      295.0,      15.34,    15.08,    15.41,    13.25,    17.63
      296.0,      15.30,    15.04,    15.37,    13.20,    17.58
      297.0,      15.25,    14.99,    15.33,    13.15,    17.54
      298.0,      15.21,    14.95,    15.29,    13.10,    17.49
      299.0,      15.16,    14.91,    15.25,    13.04,    17.44
      300.0,      15.12,    14.86,    15.21,    12.99,    17.40
      301.0,      15.07,    14.82,    15.17,    12.94,    17.35
      302.0,      15.03,    14.78,    15.13,    12.89,    17.31
      303.0,      14.98,    14.73,    15.10,    12.84,    17.26
      304.0,      14.94,    14.69,    15.06,    12.79,    17.22
      305.0,      14.89,    14.65,    15.02,    12.74,    17.17
      306.0,      14.85,    14.60,    14.98,    12.69,    17.13
      307.0,      14.81,    14.56,    14.95,    12.64,    17.08
      308.0,      14.76,    14.52,    14.91,    12.59,    17.04
      309.0,      14.72,    14.48,    14.87,    12.54,    16.99
      310.0,      14.68,    14.43,    14.84,    12.49,    16.95
