Radius (km), Mean (m/s), NE (m/s), SE (m/s), SW (m/s), NW (m/s)
        0.0,       0.00,     0.00,     0.00,     0.00,     0.00
        1.0,       1.52,     1.59,     1.44,     1.44,     1.59
        2.0,       2.73,     2.82,     2.64,     2.64,     2.82
        3.0,       3.86,     3.95,     3.77,     3.77,     3.95
        4.0,       4.92,     5.01,     4.84,     4.84,     5.01
        5.0,       5.95,     6.02,     5.89,     5.89,     6.02
        6.0,       6.95,     7.00,     6.90,     6.90,     7.00
        7.0,       7.92,     7.95,     7.90,     7.90,     7.95
        8.0,       8.88,     8.87,     8.88,     8.88,     8.87
        9.0,       9.81,     9.78,     9.84,     9.84,     9.78
       10.0,      10.73,    10.67,    10.79,    10.79,    10.67
       11.0,      11.63,    11.55,    11.72,    11.72,    11.55
       12.0,      12.53,    12.41,    12.65,    12.65,    12.41
       13.0,      13.41,    13.25,    13.56,    13.56,    13.25
       14.0,      14.28,    14.09,    14.47,    14.47,    14.09
       15.0,      15.14,    14.92,    15.37,    15.37,    14.92
       16.0,      16.00,    15.73,    16.26,    16.26,    15.73
       17.0,      16.84,    16.54,    17.15,    17.15,    16.54
       18.0,      17.68,    17.34,    18.02,    18.02,    17.34
       19.0,      18.51,    18.13,    18.90,    18.90,    18.13
       20.0,      19.34,    18.92,    19.76,    19.76,    18.92
       21.0,      20.16,    19.70,    20.62,    20.62,    19.70
       22.0,      20.97,    20.47,    21.48,    21.48,    20.47
       23.0,      21.78,    21.24,    22.33,    22.33,    21.24
       24.0,      22.58,    22.00,    23.17,    23.17,    22.00
       25.0,      23.38,    22.75,    24.01,    24.01,    22.75
       26.0,      24.18,    23.50,    24.85,    24.85,    23.50
       27.0,      24.96,    24.24,    25.68,    25.68,    24.24
       28.0,      25.75,    24.98,    26.51,    26.51,    24.98
       29.0,      26.53,    25.72,    27.34,    27.34,    25.72
       30.0,      27.30,    26.45,    28.16,    28.16,    26.45
       31.0,      28.08,    27.18,    28.98,    28.98,    27.18
       32.0,      28.87,    27.93,    29.83,    29.79,    27.91
       33.0,      29.69,    28.74,    30.73,    30.62,    28.65
       34.0,      30.57,    29.64,    31.70,    31.47,    29.44
       35.0,      31.53,    30.66,    32.78,    32.38,    30.28
       36.0,      32.57,    31.78,    33.94,    33.36,    31.19
       37.0,      33.68,    32.99,    35.18,    34.42,    32.15
       38.0,      34.83,    34.22,    36.43,    35.54,    33.14
       39.0,      35.96,    35.41,    37.64,    36.68,    34.12
       40.0,      37.02,    36.47,    38.75,    37.79,    35.06
       41.0,      37.94,    37.35,    39.70,    38.81,    35.90
       42.0,      38.68,    37.98,    40.44,    39.68,    36.60
       43.0,      39.21,    38.35,    40.95,    40.37,    37.15
       44.0,      39.52,    38.45,    41.23,    40.84,    37.54
       45.0,      39.62,    38.31,    41.30,    41.10,    37.76
       46.0,      39.55,    37.98,    41.20,    41.16,    37.85
       47.0,      39.34,    37.51,    40.97,    41.05,    37.83
       48.0,      39.05,    36.97,    40.67,    40.81,    37.74
       49.0,      38.71,    36.39,    40.34,    40.51,    37.61
       50.0,      38.36,    35.82,    40.00,    40.17,    37.46
       51.0,      38.03,    35.28,    39.68,    39.83,    37.33
       52.0,      37.71,    34.77,    39.37,    39.52,    37.20
       53.0,      37.41,    34.28,    39.08,    39.22,    37.08
       54.0,      37.13,    33.81,    38.79,    38.94,    36.96
       55.0,      36.84,    33.36,    38.50,    38.67,    36.85
       56.0,      36.57,    32.92,    38.22,    38.40,    36.74
       57.0,      36.30,    32.50,    37.95,    38.13,    36.62
       58.0,      36.03,    32.09,    37.67,    37.86,    36.51
       59.0,      35.77,    31.69,    37.41,    37.60,    36.40
       60.0,      35.52,    31.30,    37.14,    37.34,    36.29
       61.0,      35.27,    30.93,    36.88,    37.09,    36.17
       62.0,      35.02,    30.57,    36.63,    36.83,    36.06
       63.0,      34.78,    30.22,    36.38,    36.58,    35.95
       64.0,      34.54,    29.88,    36.13,    36.33,    35.84
       65.0,      34.31,    29.55,    35.88,    36.08,    35.73
       66.0,      34.08,    29.23,    35.64,    35.84,    35.62
       67.0,      33.86,    28.92,    35.41,    35.60,    35.51
       68.0,      33.64,    28.62,    35.17,    35.36,    35.40
       69.0,      33.42,    28.33,    34.95,    35.12,    35.29
       70.0,      33.21,    28.05,    34.72,    34.89,    35.18
       71.0,      33.00,    27.78,    34.50,    34.66,    35.08
       72.0,      32.80,    27.52,    34.28,    34.43,    34.97
       73.0,      32.60,    27.26,    34.06,    34.20,    34.86
       74.0,      32.40,    27.02,    33.85,    33.97,    34.75
       75.0,      32.20,    26.78,    33.64,    33.75,    34.65
       76.0,      32.01,    26.54,    33.43,    33.53,    34.54
       77.0,      31.82,    26.32,    33.23,    33.31,    34.43
       78.0,      31.64,    26.10,    33.03,    33.10,    34.33
       79.0,      31.46,    25.89,    32.83,    32.88,    34.22
       80.0,      31.28,    25.68,    32.64,    32.67,    34.12
       81.0,      31.10,    25.48,    32.45,    32.46,    34.01
       82.0,      30.93,    25.29,    32.26,    32.25,    33.91
       83.0,      30.75,    25.10,    32.07,    32.04,    33.80
       84.0,      30.59,    24.92,    31.89,    31.84,    33.70
       85.0,      30.42,    24.74,    31.71,    31.64,    33.60
       86.0,      30.26,    24.57,    31.53,    31.44,    33.49
       87.0,      30.10,    24.40,    31.36,    31.24,    33.39
       88.0,      29.94,    24.24,    31.18,    31.04,    33.29
       89.0,      29.78,    24.08,    31.01,    30.85,    33.19
       90.0,      29.63,    23.92,    30.85,    30.66,    33.09
       91.0,      29.48,    23.78,    30.68,    30.46,    32.98
       92.0,      29.33,    23.63,    30.52,    30.28,    32.88
       93.0,      29.18,    23.49,    30.36,    30.09,    32.78
       94.0,      29.03,    23.35,    30.20,    29.90,    32.68
       95.0,      28.89,    23.22,    30.04,    29.72,    32.58
       96.0,      28.75,    23.09,    29.89,    29.54,    32.48
       97.0,      28.61,    22.96,    29.74,    29.36,    32.38
       98.0,      28.47,    22.84,    29.59,    29.18,    32.28
       99.0,      28.34,    22.72,    29.44,    29.00,    32.18
      100.0,      28.20,    22.61,    29.29,    28.83,    32.08
      101.0,      28.07,    22.49,    29.15,    28.65,    31.99
      102.0,      27.94,    22.38,    29.01,    28.48,    31.89
      103.0,      27.81,    22.28,    28.87,    28.31,    31.79
      104.0,      27.68,    22.17,    28.73,    28.14,    31.69
      105.0,      27.56,    22.07,    28.60,    27.97,    31.60
      106.0,      27.43,    21.97,    28.46,    27.81,    31.50
      107.0,      27.31,    21.87,    28.33,    27.64,    31.40
      108.0,      27.19,    21.78,    28.20,    27.48,    31.31
      109.0,      27.07,    21.69,    28.07,    27.32,    31.21
      110.0,      26.95,    21.60,    27.94,    27.16,    31.12
      111.0,      26.84,    21.51,    27.82,    27.00,    31.02
      112.0,      26.72,    21.43,    27.70,    26.84,    30.93
      113.0,      26.61,    21.34,    27.57,    26.69,    30.83
      114.0,      26.50,    21.26,    27.45,    26.53,    30.74
      115.0,      26.38,    21.18,    27.34,    26.38,    30.64
      116.0,      26.27,    21.10,    27.22,    26.23,    30.55
      117.0,      26.17,    21.03,    27.10,    26.08,    30.46
      118.0,      26.06,    20.95,    26.99,    25.93,    30.36
      119.0,      25.95,    20.88,    26.88,    25.78,    30.27
      120.0,      25.85,    20.81,    26.77,    25.64,    30.18
      121.0,      25.74,    20.74,    26.66,    25.49,    30.09
      122.0,      25.64,    20.67,    26.55,    25.35,    29.99
      123.0,      25.54,    20.61,    26.44,    25.20,    29.90
      124.0,      25.44,    20.54,    26.34,    25.06,    29.81
      125.0,      25.34,    20.48,    26.23,    24.92,    29.72
      126.0,      25.24,    20.42,    26.13,    24.78,    29.63
      127.0,      25.14,    20.36,    26.03,    24.65,    29.54
      128.0,      25.05,    20.30,    25.93,    24.51,    29.45
      129.0,      24.95,    20.24,    25.83,    24.37,    29.36
      130.0,      24.86,    20.18,    25.73,    24.24,    29.27
      131.0,      24.76,    20.12,    25.64,    24.11,    29.18
      132.0,      24.67,    20.07,    25.54,    23.98,    29.09
      133.0,      24.58,    20.01,    25.45,    23.85,    29.00
      134.0,      24.49,    19.96,    25.35,    23.72,    28.91
      135.0,      24.40,    19.91,    25.26,    23.59,    28.82
      136.0,      24.31,    19.86,    25.17,    23.46,    28.74
      137.0,      24.22,    19.81,    25.08,    23.33,    28.65
      138.0,      24.13,    19.76,    24.99,    23.21,    28.56
      139.0,      24.04,    19.71,    24.90,    23.08,    28.47
      140.0,      23.96,    19.66,    24.82,    22.96,    28.39
      141.0,      23.87,    19.61,    24.73,    22.84,    28.30
      142.0,      23.79,    19.57,    24.65,    22.72,    28.22
      143.0,      23.70,    19.52,    24.57,    22.60,    28.13
      144.0,      23.62,    19.48,    24.48,    22.48,    28.04
      145.0,      23.54,    19.43,    24.40,    22.36,    27.96
      146.0,      23.46,    19.39,    24.32,    22.24,    27.87
      147.0,      23.38,    19.34,    24.24,    22.13,    27.79
      148.0,      23.29,    19.30,    24.16,    22.01,    27.70
      149.0,      23.22,    19.26,    24.08,    21.90,    27.62
      150.0,      23.14,    19.22,    24.01,    21.78,    27.53
      151.0,      23.06,    19.18,    23.93,    21.67,    27.45
      152.0,      22.98,    19.14,    23.86,    21.56,    27.37
      153.0,      22.90,    19.10,    23.78,    21.45,    27.28
      154.0,      22.83,    19.06,    23.71,    21.34,    27.20
      155.0,      22.75,    19.02,    23.63,    21.23,    27.12
      156.0,      22.68,    18.98,    23.56,    21.12,    27.04
      157.0,      22.60,    18.95,    23.49,    21.02,    26.95
      158.0,      22.53,    18.91,    23.42,    20.91,    26.87
      159.0,      22.45,    18.87,    23.35,    20.80,    26.79
      160.0,      22.38,    18.84,    23.28,    20.70,    26.71
      161.0,      22.31,    18.80,    23.21,    20.59,    26.63
      162.0,      22.24,    18.77,    23.15,    20.49,    26.55
      163.0,      22.17,    18.73,    23.08,    20.39,    26.47
      164.0,      22.10,    18.70,    23.01,    20.29,    26.38
      165.0,      22.03,    18.66,    22.95,    20.19,    26.30
      166.0,      21.96,    18.63,    22.88,    20.09,    26.22
      167.0,      21.89,    18.60,    22.82,    19.99,    26.14
      168.0,      21.82,    18.56,    22.75,    19.89,    26.07
      169.0,      21.75,    18.53,    22.69,    19.79,    25.99
      170.0,      21.68,    18.50,    22.63,    19.69,    25.91
      171.0,      21.61,    18.46,    22.57,    19.60,    25.83
      172.0,      21.55,    18.43,    22.51,    19.50,    25.75
      173.0,      21.48,    18.40,    22.45,    19.41,    25.67
      174.0,      21.42,    18.37,    22.39,    19.31,    25.59
      175.0,      21.35,    18.34,    22.33,    19.22,    25.52
      176.0,      21.29,    18.31,    22.27,    19.13,    25.44
      177.0,      21.22,    18.28,    22.21,    19.04,    25.36
      178.0,      21.16,    18.25,    22.15,    18.94,    25.28
      179.0,      21.09,    18.22,    22.10,    18.85,    25.21
      180.0,      21.03,    18.19,    22.04,    18.76,    25.13
      181.0,      20.97,    18.16,    21.98,    18.67,    25.06
      182.0,      20.90,    18.13,    21.93,    18.59,    24.98
      183.0,      20.84,    18.10,    21.87,    18.50,    24.90
      184.0,      20.78,    18.07,    21.82,    18.41,    24.83
      185.0,      20.72,    18.04,    21.76,    18.32,    24.75
      186.0,      20.66,    18.01,    21.71,    18.24,    24.68
      187.0,      20.60,    17.98,    21.66,    18.15,    24.60
      188.0,      20.54,    17.95,    21.60,    18.07,    24.53
      189.0,      20.48,    17.93,    21.55,    17.98,    24.45
      190.0,      20.42,    17.90,    21.50,    17.90,    24.38
      191.0,      20.36,    17.87,    21.45,    17.82,    24.31
      192.0,      20.30,    17.84,    21.40,    17.73,    24.23
      193.0,      20.24,    17.81,    21.35,    17.65,    24.16
      194.0,      20.19,    17.79,    21.30,    17.57,    24.09
      195.0,      20.13,    17.76,    21.25,    17.49,    24.01
      196.0,      20.07,    17.73,    21.20,    17.41,    23.94
      197.0,      20.01,    17.71,    21.15,    17.33,    23.87
      198.0,      19.96,    17.68,    21.10,    17.25,    23.79
      199.0,      19.90,    17.65,    21.05,    17.17,    23.72
      200.0,      19.84,    17.63,    21.01,    17.09,    23.65
      201.0,      19.79,    17.60,    20.96,    17.02,    23.58
      202.0,      19.73,    17.57,    20.91,    16.94,    23.51
      203.0,      19.68,    17.55,    20.87,    16.86,    23.44
      204.0,      19.62,    17.52,    20.82,    16.79,    23.37
      205.0,      19.57,    17.49,    20.77,    16.71,    23.30
      206.0,      19.51,    17.47,    20.73,    16.64,    23.22
      207.0,      19.46,    17.44,    20.68,    16.56,    23.15
      208.0,      19.41,    17.42,    20.64,    16.49,    23.08
      209.0,      19.35,    17.39,    20.59,    16.42,    23.01
      210.0,      19.30,    17.37,    20.55,    16.34,    22.94
      211.0,      19.25,    17.34,    20.51,    16.27,    22.88
      212.0,      19.20,    17.32,    20.46,    16.20,    22.81
      213.0,      19.14,    17.29,    20.42,    16.13,    22.74
      214.0,      19.09,    17.27,    20.38,    16.06,    22.67
      215.0,      19.04,    17.24,    20.33,    15.99,    22.60
      216.0,      18.99,    17.22,    20.29,    15.92,    22.53
      217.0,      18.94,    17.19,    20.25,    15.85,    22.46
      218.0,      18.89,    17.17,    20.21,    15.78,    22.40
      219.0,      18.84,    17.14,    20.17,    15.71,    22.33
      220.0,      18.79,    17.12,    20.13,    15.64,    22.26
      221.0,      18.74,    17.09,    20.09,    15.57,    22.19
      222.0,      18.69,    17.07,    20.04,    15.50,    22.13
      223.0,      18.64,    17.04,    20.00,    15.44,    22.06
      224.0,      18.59,    17.02,    19.96,    15.37,    21.99
      225.0,      18.54,    17.00,    19.92,    15.30,    21.93
      226.0,      18.49,    16.97,    19.89,    15.24,    21.86
      227.0,      18.44,    16.95,    19.85,    15.17,    21.79
      228.0,      18.39,    16.92,    19.81,    15.11,    21.73
      229.0,      18.34,    16.90,    19.77,    15.04,    21.66
      230.0,      18.30,    16.88,    19.73,    14.98,    21.60
      231.0,      18.25,    16.85,    19.69,    14.92,    21.53
      232.0,      18.20,    16.83,    19.65,    14.85,    21.47
      233.0,      18.15,    16.80,    19.62,    14.79,    21.40
      234.0,      18.11,    16.78,    19.58,    14.73,    21.34
      235.0,      18.06,    16.76,    19.54,    14.67,    21.27
      236.0,      18.01,    16.73,    19.50,    14.60,    21.21
      237.0,      17.97,    16.71,    19.47,    14.54,    21.15
      238.0,      17.92,    16.69,    19.43,    14.48,    21.08
      239.0,      17.87,    16.66,    19.39,    14.42,    21.02
      240.0,      17.83,    16.64,    19.36,    14.36,    20.95
      241.0,      17.78,    16.62,    19.32,    14.30,    20.89
      242.0,      17.74,    16.59,    19.28,    14.24,    20.83
      243.0,      17.69,    16.57,    19.25,    14.18,    20.77
      244.0,      17.65,    16.55,    19.21,    14.12,    20.70
      245.0,      17.60,    16.53,    19.18,    14.07,    20.64
      246.0,      17.56,    16.50,    19.14,    14.01,    20.58
      247.0,      17.51,    16.48,    19.11,    13.95,    20.52
      248.0,      17.47,    16.46,    19.07,    13.89,    20.45
      249.0,      17.43,    16.43,    19.04,    13.83,    20.39
      250.0,      17.38,    16.41,    19.00,    13.78,    20.33
      251.0,      17.34,    16.39,    18.97,    13.72,    20.27
      252.0,      17.29,    16.37,    18.94,    13.67,    20.21
      253.0,      17.25,    16.34,    18.90,    13.61,    20.15
      254.0,      17.21,    16.32,    18.87,    13.55,    20.09
      255.0,      17.17,    16.30,    18.84,    13.50,    20.03
      256.0,      17.12,    16.28,    18.80,    13.44,    19.97
      257.0,      17.08,    16.25,    18.77,    13.39,    19.91
      258.0,      17.04,    16.23,    18.74,    13.34,    19.85
      259.0,      17.00,    16.21,    18.70,    13.28,    19.79
      260.0,      16.95,    16.19,    18.67,    13.23,    19.73
      261.0,      16.91,    16.16,    18.64,    13.17,    19.67
      262.0,      16.87,    16.14,    18.61,    13.12,    19.61
      263.0,      16.83,    16.12,    18.57,    13.07,    19.55
      264.0,      16.79,    16.10,    18.54,    13.02,    19.49
      265.0,      16.75,    16.08,    18.51,    12.96,    19.43
      266.0,      16.70,    16.05,    18.48,    12.91,    19.37
      267.0,      16.66,    16.03,    18.45,    12.86,    19.32
      268.0,      16.62,    16.01,    18.41,    12.81,    19.26
      269.0,      16.58,    15.99,    18.38,    12.76,    19.20
      270.0,      16.54,    15.97,    18.35,    12.71,    19.14
      271.0,      16.50,    15.94,    18.32,    12.66,    19.08
      272.0,      16.46,    15.92,    18.29,    12.61,    19.03
      273.0,      16.42,    15.90,    18.26,    12.56,    18.97
      274.0,      16.38,    15.88,    18.23,    12.51,    18.91
      275.0,      16.34,    15.86,    18.20,    12.46,    18.86
      276.0,      16.30,    15.84,    18.17,    12.41,    18.80
      277.0,      16.26,    15.81,    18.14,    12.36,    18.74
      278.0,      16.22,    15.79,    18.11,    12.31,    18.69
      279.0,      16.19,    15.77,    18.08,    12.26,    18.63
      280.0,      16.15,    15.75,    18.05,    12.22,    18.57
      281.0,      16.11,    15.73,    18.02,    12.17,    18.52
      282.0,      16.07,    15.71,    17.99,    12.12,    18.46
      283.0,      16.03,    15.68,    17.96,    12.07,    18.41
      284.0,      15.99,    15.66,    17.93,    12.03,    18.35
      285.0,      15.95,    15.64,    17.90,    11.98,    18.30
      286.0,      15.92,    15.62,    17.87,    11.93,    18.24
      287.0,      15.88,    15.60,    17.84,    11.89,    18.19
      288.0,      15.84,    15.58,    17.81,    11.84,    18.13
      289.0,      15.80,    15.56,    17.78,    11.80,    18.08
      290.0,      15.77,    15.54,    17.75,    11.75,    18.02
      291.0,      15.73,    15.51,    17.72,    11.70,    17.97
      292.0,      15.69,    15.49,    17.69,    11.66,    17.92
      293.0,      15.65,    15.47,    17.67,    11.61,    17.86
      294.0,      15.62,    15.45,    17.64,    11.57,    17.81
      295.0,      15.58,    15.43,    17.61,    11.53,    17.76
      296.0,      15.54,    15.41,    17.58,    11.48,    17.70
      297.0,      15.51,    15.39,    17.55,    11.44,    17.65
      298.0,      15.47,    15.37,    17.52,    11.39,    17.60
      299.0,      15.43,    15.35,    17.50,    11.35,    17.54
      300.0,      15.40,    15.33,    17.47,    11.31,    17.49
      301.0,      15.36,    15.30,    17.44,    11.26,    17.44
      302.0,      15.33,    15.28,    17.41,    11.22,    17.39
      303.0,      15.29,    15.26,    17.38,    11.18,    17.33
      304.0,      15.25,    15.24,    17.36,    11.14,    17.28
      305.0,      15.22,    15.22,    17.33,    11.09,    17.23
      306.0,      15.18,    15.20,    17.30,    11.05,    17.18
      307.0,      15.15,    15.18,    17.27,    11.01,    17.13
      308.0,      15.11,    15.16,    17.25,    10.97,    17.08
      309.0,      15.08,    15.14,    17.22,    10.93,    17.02
      310.0,      15.04,    15.12,    17.19,    10.89,    16.97
