Radius (km), Mean (m/s), NE (m/s), SE (m/s), SW (m/s), NW (m/s)
        0.0,       0.00,     0.00,     0.00,     0.00,     0.00
        1.0,       1.85,     1.87,     1.87,     1.87,     1.79
        2.0,       3.14,     3.16,     3.16,     3.16,     3.07
        3.0,       4.27,     4.29,     4.29,     4.29,     4.21
        4.0,       5.31,     5.33,     5.33,     5.33,     5.27
        5.0,       6.29,     6.30,     6.30,     6.30,     6.27
        6.0,       7.23,     7.23,     7.23,     7.23,     7.22
        7.0,       8.13,     8.12,     8.12,     8.12,     8.14
        8.0,       9.00,     8.98,     8.98,     8.98,     9.04
        9.0,       9.84,     9.82,     9.82,     9.82,     9.90
       10.0,      10.66,    10.63,    10.63,    10.63,    10.75
       11.0,      11.46,    11.42,    11.42,    11.42,    11.57
       12.0,      12.24,    12.19,    12.19,    12.19,    12.39
       13.0,      13.01,    12.95,    12.95,    12.95,    13.18
       14.0,      13.76,    13.70,    13.70,    13.70,    13.96
       15.0,      14.50,    14.43,    14.43,    14.43,    14.73
       16.0,      15.23,    15.15,    15.15,    15.15,    15.49
       17.0,      15.95,    15.85,    15.85,    15.85,    16.24
       18.0,      16.66,    16.55,    16.55,    16.55,    16.98
       19.0,      17.36,    17.24,    17.24,    17.24,    17.71
       20.0,      18.05,    17.92,    17.92,    17.92,    18.43
       21.0,      18.73,    18.59,    18.59,    18.59,    19.14
       22.0,      19.40,    19.26,    19.26,    19.26,    19.84
       23.0,      20.07,    19.91,    19.91,    19.91,    20.54
       24.0,      20.73,    20.56,    20.56,    20.56,    21.23
       25.0,      21.38,    21.21,    21.21,    21.21,    21.92
       26.0,      22.03,    21.84,    21.84,    21.84,    22.60
       27.0,      22.67,    22.47,    22.47,    22.47,    23.27
       28.0,      23.31,    23.10,    23.10,    23.10,    23.94
       29.0,      23.94,    23.72,    23.72,    23.72,    24.60
       30.0,      24.56,    24.33,    24.33,    24.33,    25.26
       31.0,      25.19,    24.94,    24.94,    24.94,    25.91
       32.0,      25.82,    25.57,    25.57,    25.56,    26.59
       33.0,      26.49,    26.25,    26.23,    26.20,    27.30
       34.0,      27.22,    26.99,    26.93,    26.89,    28.09
       35.0,      28.03,    27.81,    27.70,    27.64,    28.95
       36.0,      28.90,    28.72,    28.52,    28.45,    29.91
       37.0,      29.82,    29.68,    29.38,    29.31,    30.92
       38.0,      30.76,    30.65,    30.25,    30.18,    31.94
       39.0,      31.66,    31.58,    31.09,    31.04,    32.93
       40.0,      32.48,    32.42,    31.86,    31.83,    33.83
       41.0,      33.18,    33.12,    32.52,    32.51,    34.58
       42.0,      33.72,    33.63,    33.05,    33.07,    35.14
       43.0,      34.09,    33.95,    33.43,    33.46,    35.50
       44.0,      34.27,    34.07,    33.66,    33.70,    35.66
       45.0,      34.31,    34.02,    33.77,    33.80,    35.64
       46.0,      34.21,    33.83,    33.76,    33.77,    35.47
       47.0,      34.02,    33.54,    33.69,    33.66,    35.19
       48.0,      33.78,    33.19,    33.56,    33.49,    34.86
       49.0,      33.51,    32.82,    33.42,    33.30,    34.50
       50.0,      33.25,    32.47,    33.28,    33.10,    34.15
       51.0,      33.00,    32.12,    33.14,    32.91,    33.82
       52.0,      32.76,    31.80,    33.02,    32.74,    33.50
       53.0,      32.54,    31.50,    32.90,    32.57,    33.20
       54.0,      32.33,    31.21,    32.78,    32.41,    32.92
       55.0,      32.12,    30.93,    32.67,    32.26,    32.64
       56.0,      31.92,    30.65,    32.55,    32.11,    32.38
       57.0,      31.73,    30.39,    32.44,    31.96,    32.12
       58.0,      31.54,    30.14,    32.34,    31.81,    31.87
       59.0,      31.36,    29.89,    32.23,    31.67,    31.63
       60.0,      31.18,    29.65,    32.13,    31.54,    31.39
       61.0,      31.01,    29.42,    32.03,    31.40,    31.17
       62.0,      30.84,    29.20,    31.93,    31.27,    30.95
       63.0,      30.67,    28.99,    31.83,    31.14,    30.74
       64.0,      30.52,    28.78,    31.74,    31.02,    30.53
       65.0,      30.36,    28.58,    31.65,    30.89,    30.33
       66.0,      30.21,    28.38,    31.55,    30.77,    30.14
       67.0,      30.07,    28.20,    31.46,    30.65,    29.95
       68.0,      29.92,    28.01,    31.38,    30.54,    29.77
       69.0,      29.79,    27.84,    31.29,    30.42,    29.60
       70.0,      29.65,    27.67,    31.20,    30.31,    29.43
       71.0,      29.52,    27.50,    31.12,    30.20,    29.26
       72.0,      29.39,    27.34,    31.03,    30.10,    29.10
       73.0,      29.27,    27.18,    30.95,    29.99,    28.94
       74.0,      29.15,    27.03,    30.87,    29.89,    28.79
       75.0,      29.03,    26.89,    30.79,    29.79,    28.65
       76.0,      28.91,    26.75,    30.71,    29.69,    28.50
       77.0,      28.80,    26.61,    30.64,    29.59,    28.36
       78.0,      28.69,    26.47,    30.56,    29.49,    28.23
       79.0,      28.58,    26.34,    30.49,    29.40,    28.10
       80.0,      28.48,    26.22,    30.41,    29.31,    27.97
       81.0,      28.37,    26.09,    30.34,    29.21,    27.84
       82.0,      28.27,    25.98,    30.27,    29.12,    27.72
       83.0,      28.17,    25.86,    30.19,    29.03,    27.60
       84.0,      28.08,    25.75,    30.12,    28.95,    27.49
       85.0,      27.98,    25.64,    30.05,    28.86,    27.38
       86.0,      27.89,    25.53,    29.98,    28.77,    27.27
       87.0,      27.80,    25.43,    29.92,    28.69,    27.16
       88.0,      27.71,    25.33,    29.85,    28.61,    27.06
       89.0,      27.62,    25.23,    29.78,    28.52,    26.96
       90.0,      27.54,    25.13,    29.72,    28.44,    26.86
       91.0,      27.45,    25.04,    29.65,    28.36,    26.76
       92.0,      27.37,    24.95,    29.59,    28.29,    26.67
       93.0,      27.29,    24.86,    29.52,    28.21,    26.57
       94.0,      27.21,    24.77,    29.46,    28.13,    26.48
       95.0,      27.13,    24.68,    29.40,    28.05,    26.39
       96.0,      27.06,    24.60,    29.33,    27.98,    26.31
       97.0,      26.98,    24.52,    29.27,    27.90,    26.22
       98.0,      26.91,    24.44,    29.21,    27.83,    26.14
       99.0,      26.83,    24.36,    29.15,    27.76,    26.06
      100.0,      26.76,    24.29,    29.09,    27.69,    25.98
      101.0,      26.69,    24.22,    29.03,    27.61,    25.90
      102.0,      26.62,    24.14,    28.97,    27.54,    25.82
      103.0,      26.55,    24.07,    28.91,    27.47,    25.75
      104.0,      26.48,    24.00,    28.85,    27.40,    25.68
      105.0,      26.42,    23.93,    28.79,    27.33,    25.60
      106.0,      26.35,    23.87,    28.73,    27.27,    25.53
      107.0,      26.29,    23.80,    28.68,    27.20,    25.46
      108.0,      26.22,    23.74,    28.62,    27.13,    25.39
      109.0,      26.16,    23.67,    28.56,    27.07,    25.33
      110.0,      26.09,    23.61,    28.51,    27.00,    25.26
      111.0,      26.03,    23.55,    28.45,    26.93,    25.19
      112.0,      25.97,    23.49,    28.40,    26.87,    25.13
      113.0,      25.91,    23.43,    28.34,    26.80,    25.07
      114.0,      25.85,    23.38,    28.29,    26.74,    25.01
      115.0,      25.79,    23.32,    28.23,    26.68,    24.94
      116.0,      25.73,    23.26,    28.18,    26.61,    24.88
      117.0,      25.68,    23.21,    28.12,    26.55,    24.82
      118.0,      25.62,    23.16,    28.07,    26.49,    24.76
      119.0,      25.56,    23.10,    28.01,    26.43,    24.71
      120.0,      25.51,    23.05,    27.96,    26.37,    24.65
      121.0,      25.45,    23.00,    27.91,    26.30,    24.59
      122.0,      25.40,    22.95,    27.86,    26.24,    24.54
      123.0,      25.34,    22.90,    27.80,    26.18,    24.48
      124.0,      25.29,    22.85,    27.75,    26.12,    24.43
      125.0,      25.23,    22.80,    27.70,    26.06,    24.37
      126.0,      25.18,    22.75,    27.65,    26.00,    24.32
      127.0,      25.13,    22.70,    27.59,    25.95,    24.27
      128.0,      25.08,    22.66,    27.54,    25.89,    24.22
      129.0,      25.02,    22.61,    27.49,    25.83,    24.16
      130.0,      24.97,    22.56,    27.44,    25.77,    24.11
      131.0,      24.92,    22.52,    27.39,    25.71,    24.06
      132.0,      24.87,    22.47,    27.34,    25.65,    24.01
      133.0,      24.82,    22.43,    27.29,    25.60,    23.96
      134.0,      24.77,    22.39,    27.24,    25.54,    23.92
      135.0,      24.72,    22.34,    27.19,    25.48,    23.87
      136.0,      24.67,    22.30,    27.14,    25.43,    23.82
      137.0,      24.62,    22.26,    27.09,    25.37,    23.77
      138.0,      24.57,    22.21,    27.04,    25.32,    23.72
      139.0,      24.52,    22.17,    26.99,    25.26,    23.68
      140.0,      24.48,    22.13,    26.94,    25.20,    23.63
      141.0,      24.43,    22.09,    26.89,    25.15,    23.58
      142.0,      24.38,    22.05,    26.84,    25.09,    23.54
      143.0,      24.33,    22.01,    26.79,    25.04,    23.49
      144.0,      24.29,    21.97,    26.75,    24.98,    23.45
      145.0,      24.24,    21.93,    26.70,    24.93,    23.40
      146.0,      24.19,    21.89,    26.65,    24.88,    23.36
      147.0,      24.15,    21.85,    26.60,    24.82,    23.32
      148.0,      24.10,    21.81,    26.55,    24.77,    23.27
      149.0,      24.06,    21.77,    26.50,    24.72,    23.23
      150.0,      24.01,    21.74,    26.46,    24.66,    23.18
      151.0,      23.96,    21.70,    26.41,    24.61,    23.14
      152.0,      23.92,    21.66,    26.36,    24.56,    23.10
      153.0,      23.87,    21.62,    26.31,    24.50,    23.06
      154.0,      23.83,    21.59,    26.27,    24.45,    23.01
      155.0,      23.78,    21.55,    26.22,    24.40,    22.97
      156.0,      23.74,    21.51,    26.17,    24.35,    22.93
      157.0,      23.70,    21.48,    26.13,    24.29,    22.89
      158.0,      23.65,    21.44,    26.08,    24.24,    22.85
      159.0,      23.61,    21.40,    26.03,    24.19,    22.81
      160.0,      23.56,    21.37,    25.99,    24.14,    22.76
      161.0,      23.52,    21.33,    25.94,    24.09,    22.72
      162.0,      23.48,    21.30,    25.89,    24.04,    22.68
      163.0,      23.43,    21.26,    25.85,    23.98,    22.64
      164.0,      23.39,    21.23,    25.80,    23.93,    22.60
      165.0,      23.35,    21.19,    25.76,    23.88,    22.56
      166.0,      23.30,    21.16,    25.71,    23.83,    22.52
      167.0,      23.26,    21.12,    25.66,    23.78,    22.48
      168.0,      23.22,    21.09,    25.62,    23.73,    22.44
      169.0,      23.18,    21.05,    25.57,    23.68,    22.40
      170.0,      23.14,    21.02,    25.53,    23.63,    22.37
      171.0,      23.09,    20.98,    25.48,    23.58,    22.33
      172.0,      23.05,    20.95,    25.44,    23.53,    22.29
      173.0,      23.01,    20.92,    25.39,    23.48,    22.25
      174.0,      22.97,    20.88,    25.35,    23.43,    22.21
      175.0,      22.93,    20.85,    25.30,    23.38,    22.17
      176.0,      22.88,    20.82,    25.26,    23.33,    22.13
      177.0,      22.84,    20.78,    25.21,    23.28,    22.10
      178.0,      22.80,    20.75,    25.17,    23.23,    22.06
      179.0,      22.76,    20.72,    25.12,    23.18,    22.02
      180.0,      22.72,    20.68,    25.08,    23.14,    21.98
      181.0,      22.68,    20.65,    25.03,    23.09,    21.94
      182.0,      22.64,    20.62,    24.99,    23.04,    21.91
      183.0,      22.60,    20.59,    24.95,    22.99,    21.87
      184.0,      22.56,    20.55,    24.90,    22.94,    21.83
      185.0,      22.52,    20.52,    24.86,    22.89,    21.79
      186.0,      22.48,    20.49,    24.81,    22.85,    21.76
      187.0,      22.44,    20.46,    24.77,    22.80,    21.72
      188.0,      22.40,    20.42,    24.73,    22.75,    21.68
      189.0,      22.36,    20.39,    24.68,    22.70,    21.65
      190.0,      22.32,    20.36,    24.64,    22.65,    21.61
      191.0,      22.28,    20.33,    24.60,    22.61,    21.57
      192.0,      22.24,    20.30,    24.55,    22.56,    21.54
      193.0,      22.20,    20.27,    24.51,    22.51,    21.50
      194.0,      22.16,    20.23,    24.47,    22.47,    21.46
      195.0,      22.12,    20.20,    24.42,    22.42,    21.43
      196.0,      22.08,    20.17,    24.38,    22.37,    21.39
      197.0,      22.04,    20.14,    24.34,    22.32,    21.35
      198.0,      22.00,    20.11,    24.29,    22.28,    21.32
      199.0,      21.96,    20.08,    24.25,    22.23,    21.28
      200.0,      21.92,    20.05,    24.21,    22.18,    21.25
      201.0,      21.88,    20.01,    24.17,    22.14,    21.21
      202.0,      21.84,    19.98,    24.12,    22.09,    21.18
      203.0,      21.80,    19.95,    24.08,    22.05,    21.14
      204.0,      21.77,    19.92,    24.04,    22.00,    21.10
      205.0,      21.73,    19.89,    24.00,    21.95,    21.07
      206.0,      21.69,    19.86,    23.95,    21.91,    21.03
      207.0,      21.65,    19.83,    23.91,    21.86,    21.00
      208.0,      21.61,    19.80,    23.87,    21.82,    20.96
      209.0,      21.57,    19.77,    23.83,    21.77,    20.93
      210.0,      21.54,    19.74,    23.79,    21.73,    20.89
      211.0,      21.50,    19.71,    23.74,    21.68,    20.86
      212.0,      21.46,    19.68,    23.70,    21.63,    20.82
      213.0,      21.42,    19.65,    23.66,    21.59,    20.79
      214.0,      21.38,    19.62,    23.62,    21.54,    20.75
      215.0,      21.35,    19.59,    23.58,    21.50,    20.72
      216.0,      21.31,    19.56,    23.54,    21.45,    20.69
      217.0,      21.27,    19.53,    23.49,    21.41,    20.65
      218.0,      21.23,    19.50,    23.45,    21.37,    20.62
      219.0,      21.20,    19.47,    23.41,    21.32,    20.58
      220.0,      21.16,    19.44,    23.37,    21.28,    20.55
      221.0,      21.12,    19.41,    23.33,    21.23,    20.51
      222.0,      21.08,    19.38,    23.29,    21.19,    20.48
      223.0,      21.05,    19.35,    23.25,    21.14,    20.45
      224.0,      21.01,    19.32,    23.21,    21.10,    20.41
      225.0,      20.97,    19.29,    23.17,    21.06,    20.38
      226.0,      20.94,    19.26,    23.13,    21.01,    20.34
      227.0,      20.90,    19.23,    23.08,    20.97,    20.31
      228.0,      20.86,    19.20,    23.04,    20.92,    20.28
      229.0,      20.83,    19.17,    23.00,    20.88,    20.24
      230.0,      20.79,    19.14,    22.96,    20.84,    20.21
      231.0,      20.75,    19.12,    22.92,    20.79,    20.18
      232.0,      20.72,    19.09,    22.88,    20.75,    20.14
      233.0,      20.68,    19.06,    22.84,    20.71,    20.11
      234.0,      20.64,    19.03,    22.80,    20.66,    20.08
      235.0,      20.61,    19.00,    22.76,    20.62,    20.04
      236.0,      20.57,    18.97,    22.72,    20.58,    20.01
      237.0,      20.53,    18.94,    22.68,    20.54,    19.98
      238.0,      20.50,    18.91,    22.64,    20.49,    19.94
      239.0,      20.46,    18.88,    22.60,    20.45,    19.91
      240.0,      20.43,    18.86,    22.56,    20.41,    19.88
      241.0,      20.39,    18.83,    22.52,    20.36,    19.84
      242.0,      20.35,    18.80,    22.48,    20.32,    19.81
      243.0,      20.32,    18.77,    22.44,    20.28,    19.78
      244.0,      20.28,    18.74,    22.41,    20.24,    19.75
      245.0,      20.25,    18.71,    22.37,    20.20,    19.71
      246.0,      20.21,    18.68,    22.33,    20.15,    19.68
      247.0,      20.18,    18.66,    22.29,    20.11,    19.65
      248.0,      20.14,    18.63,    22.25,    20.07,    19.61
      249.0,      20.10,    18.60,    22.21,    20.03,    19.58
      250.0,      20.07,    18.57,    22.17,    19.99,    19.55
      251.0,      20.03,    18.54,    22.13,    19.94,    19.52
      252.0,      20.00,    18.51,    22.09,    19.90,    19.49
      253.0,      19.96,    18.49,    22.05,    19.86,    19.45
      254.0,      19.93,    18.46,    22.02,    19.82,    19.42
      255.0,      19.89,    18.43,    21.98,    19.78,    19.39
      256.0,      19.86,    18.40,    21.94,    19.74,    19.36
      257.0,      19.82,    18.37,    21.90,    19.70,    19.32
      258.0,      19.79,    18.35,    21.86,    19.66,    19.29
      259.0,      19.75,    18.32,    21.82,    19.61,    19.26
      260.0,      19.72,    18.29,    21.78,    19.57,    19.23
      261.0,      19.68,    18.26,    21.75,    19.53,    19.20
      262.0,      19.65,    18.24,    21.71,    19.49,    19.17
      263.0,      19.62,    18.21,    21.67,    19.45,    19.13
      264.0,      19.58,    18.18,    21.63,    19.41,    19.10
      265.0,      19.55,    18.15,    21.59,    19.37,    19.07
      266.0,      19.51,    18.13,    21.56,    19.33,    19.04
      267.0,      19.48,    18.10,    21.52,    19.29,    19.01
      268.0,      19.44,    18.07,    21.48,    19.25,    18.98
      269.0,      19.41,    18.04,    21.44,    19.21,    18.94
      270.0,      19.38,    18.02,    21.41,    19.17,    18.91
      271.0,      19.34,    17.99,    21.37,    19.13,    18.88
      272.0,      19.31,    17.96,    21.33,    19.09,    18.85
      273.0,      19.27,    17.93,    21.29,    19.05,    18.82
      274.0,      19.24,    17.91,    21.26,    19.01,    18.79
      275.0,      19.21,    17.88,    21.22,    18.97,    18.76
      276.0,      19.17,    17.85,    21.18,    18.93,    18.73
      277.0,      19.14,    17.83,    21.14,    18.89,    18.70
      278.0,      19.11,    17.80,    21.11,    18.85,    18.67
      279.0,      19.07,    17.77,    21.07,    18.81,    18.63
      280.0,      19.04,    17.74,    21.03,    18.78,    18.60
      281.0,      19.01,    17.72,    21.00,    18.74,    18.57
      282.0,      18.97,    17.69,    20.96,    18.70,    18.54
      283.0,      18.94,    17.66,    20.92,    18.66,    18.51
      284.0,      18.91,    17.64,    20.89,    18.62,    18.48
      285.0,      18.87,    17.61,    20.85,    18.58,    18.45
      286.0,      18.84,    17.58,    20.81,    18.54,    18.42
      287.0,      18.81,    17.56,    20.78,    18.50,    18.39
      288.0,      18.77,    17.53,    20.74,    18.47,    18.36
      289.0,      18.74,    17.50,    20.70,    18.43,    18.33
      290.0,      18.71,    17.48,    20.67,    18.39,    18.30
      291.0,      18.68,    17.45,    20.63,    18.35,    18.27
      292.0,      18.64,    17.43,    20.59,    18.31,    18.24
      293.0,      18.61,    17.40,    20.56,    18.27,    18.21
      294.0,      18.58,    17.37,    20.52,    18.24,    18.18
      295.0,      18.54,    17.35,    20.49,    18.20,    18.15
      296.0,      18.51,    17.32,    20.45,    18.16,    18.12
      297.0,      18.48,    17.29,    20.41,    18.12,    18.09
      298.0,      18.45,    17.27,    20.38,    18.08,    18.06
      299.0,      18.41,    17.24,    20.34,    18.05,    18.03
      300.0,      18.38,    17.22,    20.31,    18.01,    18.00
      301.0,      18.35,    17.19,    20.27,    17.97,    17.97
      302.0,      18.32,    17.16,    20.24,    17.93,    17.94
      303.0,      18.29,    17.14,    20.20,    17.90,    17.91
      304.0,      18.25,    17.11,    20.16,    17.86,    17.88
      305.0,      18.22,    17.09,    20.13,    17.82,    17.85
      306.0,      18.19,    17.06,    20.09,    17.79,    17.82
      307.0,      18.16,    17.03,    20.06,    17.75,    17.79
      308.0,      18.13,    17.01,    20.02,    17.71,    17.76
      309.0,      18.09,    16.98,    19.99,    17.68,    17.73
      310.0,      18.06,    16.96,    19.95,    17.64,    17.70
