Radius (km), Mean (m/s), NE (m/s), SE (m/s), SW (m/s), NW (m/s)
        0.0,      17.22,    18.22,    16.48,    16.14,    18.05
        1.0,      24.94,    26.07,    23.99,    23.76,    25.94
        2.0,      31.20,    32.57,    29.93,    29.81,    32.50
        3.0,      36.16,    37.76,    34.58,    34.57,    37.74
        4.0,      39.80,    41.58,    37.98,    38.05,    41.60
        5.0,      42.18,    44.08,    40.19,    40.33,    44.14
        6.0,      43.45,    45.42,    41.37,    41.53,    45.50
        7.0,      43.83,    45.83,    41.73,    41.88,    45.90
        8.0,      43.57,    45.56,    41.51,    41.61,    45.60
        9.0,      42.91,    44.87,    40.93,    40.95,    44.88
       10.0,      42.06,    43.99,    40.18,    40.11,    43.95
       11.0,      41.16,    43.05,    39.39,    39.21,    42.97
       12.0,      40.28,    42.14,    38.62,    38.34,    42.01
       13.0,      39.45,    41.28,    37.89,    37.52,    41.10
       14.0,      38.65,    40.46,    37.20,    36.73,    40.23
       15.0,      37.89,    39.67,    36.53,    35.97,    39.40
       16.0,      37.16,    38.91,    35.89,    35.24,    38.60
       17.0,      36.45,    38.18,    35.27,    34.55,    37.83
       18.0,      35.78,    37.47,    34.67,    33.87,    37.09
       19.0,      35.13,    36.80,    34.10,    33.23,    36.38
       20.0,      34.50,    36.15,    33.55,    32.60,    35.69
       21.0,      33.89,    35.52,    33.02,    32.01,    35.03
       22.0,      33.31,    34.92,    32.51,    31.43,    34.40
       23.0,      32.76,    34.34,    32.02,    30.88,    33.79
       24.0,      32.22,    33.78,    31.55,    30.34,    33.20
       25.0,      31.70,    33.25,    31.09,    29.83,    32.64
       26.0,      31.20,    32.73,    30.65,    29.34,    32.09
       27.0,      30.73,    32.23,    30.23,    28.86,    31.57
       28.0,      30.26,    31.76,    29.83,    28.41,    31.07
       29.0,      29.82,    31.30,    29.44,    27.97,    30.59
       30.0,      29.39,    30.85,    29.06,    27.54,    30.12
       31.0,      28.98,    30.43,    28.70,    27.14,    29.67
       32.0,      28.59,    30.02,    28.35,    26.75,    29.24
       33.0,      28.21,    29.62,    28.02,    26.37,    28.83
       34.0,      27.84,    29.24,    27.69,    26.01,    28.43
       35.0,      27.49,    28.88,    27.38,    25.66,    28.04
       36.0,      27.15,    28.52,    27.08,    25.32,    27.67
       37.0,      26.82,    28.18,    26.79,    25.00,    27.32
       38.0,      26.51,    27.86,    26.51,    24.69,    26.97
       39.0,      26.20,    27.54,    26.25,    24.39,    26.64
       40.0,      25.91,    27.24,    25.99,    24.10,    26.32
       41.0,      25.63,    26.95,    25.74,    23.82,    26.02
       42.0,      25.36,    26.66,    25.50,    23.55,    25.72
       43.0,      25.10,    26.39,    25.27,    23.29,    25.44
       44.0,      24.85,    26.13,    25.04,    23.04,    25.17
       45.0,      24.60,    25.88,    24.83,    22.80,    24.90
       46.0,      24.37,    25.64,    24.62,    22.57,    24.65
       47.0,      24.14,    25.40,    24.42,    22.35,    24.40
       48.0,      23.93,    25.18,    24.23,    22.13,    24.17
       49.0,      23.72,    24.96,    24.04,    21.93,    23.94
       50.0,      23.52,    24.75,    23.86,    21.73,    23.72
       51.0,      23.32,    24.55,    23.69,    21.54,    23.51
       52.0,      23.13,    24.35,    23.52,    21.35,    23.30
       53.0,      22.95,    24.16,    23.36,    21.17,    23.11
       54.0,      22.78,    23.98,    23.21,    21.00,    22.92
       55.0,      22.61,    23.81,    23.05,    20.83,    22.74
       56.0,      22.44,    23.64,    22.91,    20.67,    22.56
       57.0,      22.29,    23.47,    22.77,    20.52,    22.39
       58.0,      22.14,    23.32,    22.63,    20.37,    22.22
       59.0,      21.99,    23.16,    22.50,    20.23,    22.07
       60.0,      21.85,    23.02,    22.37,    20.09,    21.91
       61.0,      21.71,    22.88,    22.25,    19.95,    21.76
       62.0,      21.58,    22.74,    22.13,    19.82,    21.62
       63.0,      21.45,    22.61,    22.02,    19.70,    21.48
       64.0,      21.33,    22.48,    21.91,    19.58,    21.35
       65.0,      21.21,    22.35,    21.80,    19.46,    21.22
       66.0,      21.09,    22.23,    21.70,    19.35,    21.10
       67.0,      20.98,    22.12,    21.60,    19.24,    20.98
       68.0,      20.87,    22.01,    21.50,    19.13,    20.86
       69.0,      20.77,    21.90,    21.40,    19.03,    20.75
       70.0,      20.67,    21.79,    21.31,    18.93,    20.64
       71.0,      20.57,    21.69,    21.22,    18.83,    20.54
       72.0,      20.48,    21.59,    21.14,    18.74,    20.44
       73.0,      20.39,    21.50,    21.06,    18.65,    20.34
       74.0,      20.30,    21.40,    20.98,    18.57,    20.24
       75.0,      20.21,    21.32,    20.90,    18.48,    20.15
       76.0,      20.13,    21.23,    20.82,    18.40,    20.06
       77.0,      20.05,    21.14,    20.75,    18.32,    19.97
       78.0,      19.97,    21.06,    20.68,    18.25,    19.89
       79.0,      19.89,    20.98,    20.61,    18.17,    19.81
       80.0,      19.82,    20.91,    20.54,    18.10,    19.73
       81.0,      19.75,    20.83,    20.47,    18.03,    19.65
       82.0,      19.68,    20.76,    20.41,    17.96,    19.58
       83.0,      19.61,    20.69,    20.35,    17.90,    19.51
       84.0,      19.55,    20.62,    20.29,    17.84,    19.44
       85.0,      19.48,    20.56,    20.23,    17.77,    19.37
       86.0,      19.42,    20.49,    20.17,    17.71,    19.31
       87.0,      19.36,    20.43,    20.12,    17.66,    19.24
       88.0,      19.30,    20.37,    20.06,    17.60,    19.18
       89.0,      19.25,    20.31,    20.01,    17.54,    19.12
       90.0,      19.19,    20.25,    19.96,    17.49,    19.06
       91.0,      19.14,    20.20,    19.91,    17.44,    19.00
       92.0,      19.08,    20.14,    19.86,    17.39,    18.95
       93.0,      19.03,    20.09,    19.81,    17.34,    18.89
       94.0,      18.98,    20.04,    19.76,    17.29,    18.84
       95.0,      18.94,    19.99,    19.72,    17.25,    18.79
       96.0,      18.89,    19.94,    19.67,    17.20,    18.74
       97.0,      18.84,    19.89,    19.63,    17.16,    18.69
       98.0,      18.80,    19.84,    19.59,    17.11,    18.65
       99.0,      18.75,    19.79,    19.55,    17.07,    18.60
      100.0,      18.71,    19.75,    19.51,    17.03,    18.55
      101.0,      18.67,    19.71,    19.47,    16.99,    18.51
      102.0,      18.63,    19.66,    19.43,    16.95,    18.47
      103.0,      18.59,    19.62,    19.39,    16.91,    18.43
      104.0,      18.55,    19.58,    19.35,    16.87,    18.38
      105.0,      18.51,    19.54,    19.32,    16.84,    18.34
      106.0,      18.47,    19.50,    19.28,    16.80,    18.31
      107.0,      18.44,    19.46,    19.25,    16.77,    18.27
      108.0,      18.40,    19.43,    19.21,    16.73,    18.23
      109.0,      18.36,    19.39,    19.18,    16.70,    18.19
      110.0,      18.33,    19.35,    19.14,    16.67,    18.16
      111.0,      18.30,    19.32,    19.11,    16.63,    18.12
      112.0,      18.26,    19.28,    19.08,    16.60,    18.09
      113.0,      18.23,    19.25,    19.05,    16.57,    18.05
      114.0,      18.20,    19.21,    19.02,    16.54,    18.02
      115.0,      18.17,    19.18,    18.99,    16.51,    17.99
      116.0,      18.14,    19.15,    18.96,    16.48,    17.96
      117.0,      18.11,    19.12,    18.93,    16.45,    17.92
      118.0,      18.08,    19.09,    18.90,    16.43,    17.89
      119.0,      18.05,    19.06,    18.87,    16.40,    17.86
      120.0,      18.02,    19.03,    18.84,    16.37,    17.83
      121.0,      17.99,    19.00,    18.81,    16.35,    17.80
      122.0,      17.96,    18.97,    18.78,    16.32,    17.78
      123.0,      17.93,    18.94,    18.76,    16.29,    17.75
      124.0,      17.91,    18.91,    18.73,    16.27,    17.72
      125.0,      17.88,    18.88,    18.70,    16.24,    17.69
      126.0,      17.85,    18.85,    18.68,    16.22,    17.67
      127.0,      17.83,    18.83,    18.65,    16.19,    17.64
      128.0,      17.80,    18.80,    18.63,    16.17,    17.61
      129.0,      17.78,    18.77,    18.60,    16.15,    17.59
      130.0,      17.75,    18.75,    18.58,    16.12,    17.56
      131.0,      17.73,    18.72,    18.55,    16.10,    17.54
      132.0,      17.70,    18.69,    18.53,    16.08,    17.51
      133.0,      17.68,    18.67,    18.50,    16.05,    17.49
      134.0,      17.65,    18.64,    18.48,    16.03,    17.46
      135.0,      17.63,    18.62,    18.46,    16.01,    17.44
      136.0,      17.61,    18.59,    18.43,    15.99,    17.41
      137.0,      17.58,    18.57,    18.41,    15.97,    17.39
      138.0,      17.56,    18.55,    18.39,    15.95,    17.37
      139.0,      17.54,    18.52,    18.36,    15.92,    17.34
      140.0,      17.52,    18.50,    18.34,    15.90,    17.32
      141.0,      17.49,    18.47,    18.32,    15.88,    17.30
      142.0,      17.47,    18.45,    18.30,    15.86,    17.28
      143.0,      17.45,    18.43,    18.27,    15.84,    17.26
      144.0,      17.43,    18.41,    18.25,    15.82,    17.23
      145.0,      17.41,    18.38,    18.23,    15.80,    17.21
      146.0,      17.39,    18.36,    18.21,    15.78,    17.19
      147.0,      17.36,    18.34,    18.19,    15.76,    17.17
      148.0,      17.34,    18.32,    18.17,    15.74,    17.15
      149.0,      17.32,    18.30,    18.14,    15.73,    17.13
      150.0,      17.30,    18.27,    18.12,    15.71,    17.11
      151.0,      17.28,    18.25,    18.10,    15.69,    17.09
      152.0,      17.26,    18.23,    18.08,    15.67,    17.07
      153.0,      17.24,    18.21,    18.06,    15.65,    17.05
      154.0,      17.22,    18.19,    18.04,    15.63,    17.03
      155.0,      17.20,    18.17,    18.02,    15.61,    17.01
      156.0,      17.18,    18.15,    18.00,    15.60,    16.99
      157.0,      17.16,    18.13,    17.98,    15.58,    16.97
      158.0,      17.14,    18.11,    17.96,    15.56,    16.95
      159.0,      17.12,    18.08,    17.94,    15.54,    16.93
      160.0,      17.10,    18.06,    17.92,    15.52,    16.91
      161.0,      17.08,    18.04,    17.90,    15.51,    16.89
      162.0,      17.07,    18.02,    17.88,    15.49,    16.87
      163.0,      17.05,    18.00,    17.86,    15.47,    16.85
      164.0,      17.03,    17.98,    17.84,    15.45,    16.83
      165.0,      17.01,    17.96,    17.82,    15.44,    16.81
      166.0,      16.99,    17.94,    17.80,    15.42,    16.79
      167.0,      16.97,    17.93,    17.78,    15.40,    16.78
      168.0,      16.95,    17.91,    17.76,    15.39,    16.76
      169.0,      16.93,    17.89,    17.75,    15.37,    16.74
      170.0,      16.92,    17.87,    17.73,    15.35,    16.72
      171.0,      16.90,    17.85,    17.71,    15.34,    16.70
      172.0,      16.88,    17.83,    17.69,    15.32,    16.68
      173.0,      16.86,    17.81,    17.67,    15.30,    16.67
      174.0,      16.84,    17.79,    17.65,    15.29,    16.65
      175.0,      16.83,    17.77,    17.63,    15.27,    16.63
      176.0,      16.81,    17.75,    17.61,    15.25,    16.61
      177.0,      16.79,    17.73,    17.60,    15.24,    16.59
      178.0,      16.77,    17.71,    17.58,    15.22,    16.58
      179.0,      16.75,    17.70,    17.56,    15.20,    16.56
      180.0,      16.74,    17.68,    17.54,    15.19,    16.54
      181.0,      16.72,    17.66,    17.52,    15.17,    16.52
      182.0,      16.70,    17.64,    17.50,    15.16,    16.51
      183.0,      16.68,    17.62,    17.48,    15.14,    16.49
      184.0,      16.67,    17.60,    17.47,    15.12,    16.47
      185.0,      16.65,    17.58,    17.45,    15.11,    16.45
      186.0,      16.63,    17.57,    17.43,    15.09,    16.44
      187.0,      16.61,    17.55,    17.41,    15.08,    16.42
      188.0,      16.60,    17.53,    17.39,    15.06,    16.40
      189.0,      16.58,    17.51,    17.38,    15.04,    16.38
      190.0,      16.56,    17.49,    17.36,    15.03,    16.37
      191.0,      16.54,    17.47,    17.34,    15.01,    16.35
      192.0,      16.53,    17.46,    17.32,    15.00,    16.33
      193.0,      16.51,    17.44,    17.30,    14.98,    16.32
      194.0,      16.49,    17.42,    17.29,    14.97,    16.30
      195.0,      16.48,    17.40,    17.27,    14.95,    16.28
      196.0,      16.46,    17.38,    17.25,    14.94,    16.27
      197.0,      16.44,    17.37,    17.23,    14.92,    16.25
      198.0,      16.43,    17.35,    17.22,    14.90,    16.23
      199.0,      16.41,    17.33,    17.20,    14.89,    16.22
      200.0,      16.39,    17.31,    17.18,    14.87,    16.20
      201.0,      16.37,    17.30,    17.16,    14.86,    16.18
      202.0,      16.36,    17.28,    17.15,    14.84,    16.17
      203.0,      16.34,    17.26,    17.13,    14.83,    16.15
      204.0,      16.32,    17.24,    17.11,    14.81,    16.13
      205.0,      16.31,    17.22,    17.09,    14.80,    16.12
      206.0,      16.29,    17.21,    17.08,    14.78,    16.10
      207.0,      16.27,    17.19,    17.06,    14.77,    16.08
      208.0,      16.26,    17.17,    17.04,    14.75,    16.07
      209.0,      16.24,    17.15,    17.02,    14.74,    16.05
      210.0,      16.23,    17.14,    17.01,    14.72,    16.03
      211.0,      16.21,    17.12,    16.99,    14.71,    16.02
      212.0,      16.19,    17.10,    16.97,    14.69,    16.00
      213.0,      16.18,    17.08,    16.96,    14.68,    15.99
      214.0,      16.16,    17.07,    16.94,    14.66,    15.97
      215.0,      16.14,    17.05,    16.92,    14.65,    15.95
      216.0,      16.13,    17.03,    16.90,    14.63,    15.94
      217.0,      16.11,    17.02,    16.89,    14.62,    15.92
      218.0,      16.09,    17.00,    16.87,    14.60,    15.90
      219.0,      16.08,    16.98,    16.85,    14.59,    15.89
      220.0,      16.06,    16.96,    16.84,    14.57,    15.87
      221.0,      16.04,    16.95,    16.82,    14.56,    15.86
      222.0,      16.03,    16.93,    16.80,    14.54,    15.84
      223.0,      16.01,    16.91,    16.78,    14.53,    15.82
      224.0,      16.00,    16.90,    16.77,    14.51,    15.81
      225.0,      15.98,    16.88,    16.75,    14.50,    15.79
      226.0,      15.96,    16.86,    16.73,    14.49,    15.78
      227.0,      15.95,    16.84,    16.72,    14.47,    15.76
      228.0,      15.93,    16.83,    16.70,    14.46,    15.74
      229.0,      15.92,    16.81,    16.68,    14.44,    15.73
      230.0,      15.90,    16.79,    16.67,    14.43,    15.71
      231.0,      15.88,    16.78,    16.65,    14.41,    15.70
      232.0,      15.87,    16.76,    16.63,    14.40,    15.68
      233.0,      15.85,    16.74,    16.62,    14.38,    15.66
      234.0,      15.84,    16.73,    16.60,    14.37,    15.65
      235.0,      15.82,    16.71,    16.58,    14.35,    15.63
      236.0,      15.80,    16.69,    16.57,    14.34,    15.62
      237.0,      15.79,    16.68,    16.55,    14.33,    15.60
      238.0,      15.77,    16.66,    16.53,    14.31,    15.59
      239.0,      15.76,    16.64,    16.52,    14.30,    15.57
      240.0,      15.74,    16.63,    16.50,    14.28,    15.55
      241.0,      15.72,    16.61,    16.48,    14.27,    15.54
      242.0,      15.71,    16.59,    16.47,    14.25,    15.52
      243.0,      15.69,    16.58,    16.45,    14.24,    15.51
      244.0,      15.68,    16.56,    16.43,    14.22,    15.49
      245.0,      15.66,    16.54,    16.42,    14.21,    15.48
      246.0,      15.65,    16.53,    16.40,    14.20,    15.46
      247.0,      15.63,    16.51,    16.38,    14.18,    15.45
      248.0,      15.61,    16.49,    16.37,    14.17,    15.43
      249.0,      15.60,    16.48,    16.35,    14.15,    15.41
      250.0,      15.58,    16.46,    16.34,    14.14,    15.40
      251.0,      15.57,    16.44,    16.32,    14.13,    15.38
      252.0,      15.55,    16.43,    16.30,    14.11,    15.37
      253.0,      15.54,    16.41,    16.29,    14.10,    15.35
      254.0,      15.52,    16.39,    16.27,    14.08,    15.34
      255.0,      15.51,    16.38,    16.25,    14.07,    15.32
      256.0,      15.49,    16.36,    16.24,    14.05,    15.31
      257.0,      15.47,    16.34,    16.22,    14.04,    15.29
      258.0,      15.46,    16.33,    16.20,    14.03,    15.28
      259.0,      15.44,    16.31,    16.19,    14.01,    15.26
      260.0,      15.43,    16.29,    16.17,    14.00,    15.25
      261.0,      15.41,    16.28,    16.16,    13.98,    15.23
      262.0,      15.40,    16.26,    16.14,    13.97,    15.21
      263.0,      15.38,    16.25,    16.12,    13.96,    15.20
      264.0,      15.37,    16.23,    16.11,    13.94,    15.18
      265.0,      15.35,    16.21,    16.09,    13.93,    15.17
      266.0,      15.34,    16.20,    16.08,    13.91,    15.15
      267.0,      15.32,    16.18,    16.06,    13.90,    15.14
      268.0,      15.30,    16.16,    16.04,    13.89,    15.12
      269.0,      15.29,    16.15,    16.03,    13.87,    15.11
      270.0,      15.27,    16.13,    16.01,    13.86,    15.09
      271.0,      15.26,    16.12,    15.99,    13.84,    15.08
      272.0,      15.24,    16.10,    15.98,    13.83,    15.06
      273.0,      15.23,    16.08,    15.96,    13.82,    15.05
      274.0,      15.21,    16.07,    15.95,    13.80,    15.03
      275.0,      15.20,    16.05,    15.93,    13.79,    15.02
      276.0,      15.18,    16.04,    15.92,    13.78,    15.00
      277.0,      15.17,    16.02,    15.90,    13.76,    14.99
      278.0,      15.15,    16.00,    15.88,    13.75,    14.97
      279.0,      15.14,    15.99,    15.87,    13.73,    14.96
      280.0,      15.12,    15.97,    15.85,    13.72,    14.94
      281.0,      15.11,    15.96,    15.84,    13.71,    14.93
      282.0,      15.09,    15.94,    15.82,    13.69,    14.91
      283.0,      15.08,    15.92,    15.80,    13.68,    14.90
      284.0,      15.06,    15.91,    15.79,    13.67,    14.88
      285.0,      15.05,    15.89,    15.77,    13.65,    14.87
      286.0,      15.03,    15.88,    15.76,    13.64,    14.85
      287.0,      15.02,    15.86,    15.74,    13.62,    14.84
      288.0,      15.00,    15.84,    15.73,    13.61,    14.82
      289.0,      14.99,    15.83,    15.71,    13.60,    14.81
      290.0,      14.97,    15.81,    15.69,    13.58,    14.79
      291.0,      14.96,    15.80,    15.68,    13.57,    14.78
      292.0,      14.94,    15.78,    15.66,    13.56,    14.76
      293.0,      14.93,    15.77,    15.65,    13.54,    14.75
      294.0,      14.91,    15.75,    15.63,    13.53,    14.74
      295.0,      14.90,    15.73,    15.62,    13.52,    14.72
      296.0,      14.88,    15.72,    15.60,    13.50,    14.71
      297.0,      14.87,    15.70,    15.58,    13.49,    14.69
      298.0,      14.85,    15.69,    15.57,    13.48,    14.68
      299.0,      14.84,    15.67,    15.55,    13.46,    14.66
      300.0,      14.82,    15.66,    15.54,    13.45,    14.65
      301.0,      14.81,    15.64,    15.52,    13.44,    14.63
      302.0,      14.79,    15.62,    15.51,    13.42,    14.62
      303.0,      14.78,    15.61,    15.49,    13.41,    14.60
      304.0,      14.76,    15.59,    15.48,    13.39,    14.59
      305.0,      14.75,    15.58,    15.46,    13.38,    14.57
      306.0,      14.73,    15.56,    15.44,    13.37,    14.56
      307.0,      14.72,    15.55,    15.43,    13.35,    14.54
      308.0,      14.70,    15.53,    15.41,    13.34,    14.53
      309.0,      14.69,    15.51,    15.40,    13.33,    14.52
      310.0,      14.67,    15.50,    15.38,    13.31,    14.50
