Radius (km), Mean (m/s), NE (m/s), SE (m/s), SW (m/s), NW (m/s)
        0.0,       0.00,     0.00,     0.00,     0.00,     0.00
        1.0,       1.75,     1.75,     1.69,     1.80,     1.75
        2.0,       2.73,     2.73,     2.67,     2.77,     2.73
        3.0,       3.54,     3.54,     3.49,     3.58,     3.54
        4.0,       4.26,     4.26,     4.22,     4.28,     4.26
        5.0,       4.91,     4.92,     4.89,     4.93,     4.92
        6.0,       5.52,     5.53,     5.52,     5.52,     5.53
        7.0,       6.10,     6.10,     6.11,     6.08,     6.10
        8.0,       6.64,     6.64,     6.67,     6.61,     6.64
        9.0,       7.17,     7.17,     7.21,     7.12,     7.16
       10.0,       7.67,     7.67,     7.73,     7.61,     7.66
       11.0,       8.15,     8.15,     8.23,     8.08,     8.15
       12.0,       8.62,     8.62,     8.72,     8.53,     8.61
       13.0,       9.07,     9.07,     9.19,     8.97,     9.07
       14.0,       9.52,     9.51,     9.65,     9.39,     9.51
       15.0,       9.95,     9.94,    10.10,     9.81,     9.94
       16.0,      10.37,    10.36,    10.54,    10.21,    10.36
       17.0,      10.78,    10.77,    10.97,    10.61,    10.77
       18.0,      11.18,    11.17,    11.39,    11.00,    11.17
       19.0,      11.58,    11.57,    11.81,    11.38,    11.56
       20.0,      11.97,    11.96,    12.21,    11.75,    11.95
       21.0,      12.35,    12.34,    12.61,    12.11,    12.33
       22.0,      12.72,    12.71,    13.01,    12.47,    12.70
       23.0,      13.09,    13.08,    13.39,    12.82,    13.07
       24.0,      13.45,    13.44,    13.78,    13.17,    13.43
       25.0,      13.81,    13.79,    14.15,    13.51,    13.79
       26.0,      14.16,    14.15,    14.52,    13.85,    14.14
       27.0,      14.51,    14.49,    14.89,    14.18,    14.48
       28.0,      14.85,    14.83,    15.25,    14.51,    14.83
       29.0,      15.19,    15.17,    15.61,    14.83,    15.16
       30.0,      15.53,    15.50,    15.96,    15.15,    15.50
       31.0,      15.86,    15.83,    16.31,    15.46,    15.83
       32.0,      16.18,    16.16,    16.66,    15.77,    16.15
       33.0,      16.51,    16.48,    17.00,    16.08,    16.47
       34.0,      16.83,    16.80,    17.34,    16.38,    16.79
       35.0,      17.14,    17.11,    17.67,    16.69,    17.11
       36.0,      17.46,    17.43,    18.00,    16.98,    17.42
       37.0,      17.77,    17.74,    18.33,    17.28,    17.73
       38.0,      18.07,    18.04,    18.66,    17.57,    18.03
       39.0,      18.38,    18.34,    18.98,    17.86,    18.33
       40.0,      18.68,    18.64,    19.30,    18.14,    18.63
       41.0,      18.98,    18.94,    19.62,    18.43,    18.93
       42.0,      19.27,    19.24,    19.93,    18.71,    19.23
       43.0,      19.57,    19.53,    20.24,    18.98,    19.52
       44.0,      19.86,    19.82,    20.55,    19.26,    19.81
       45.0,      20.15,    20.11,    20.86,    19.53,    20.09
       46.0,      20.43,    20.39,    21.16,    19.80,    20.38
       47.0,      20.72,    20.68,    21.47,    20.07,    20.66
       48.0,      21.00,    20.96,    21.77,    20.34,    20.94
       49.0,      21.28,    21.24,    22.06,    20.60,    21.22
       50.0,      21.56,    21.51,    22.36,    20.87,    21.50
       51.0,      21.84,    21.79,    22.65,    21.13,    21.77
       52.0,      22.11,    22.06,    22.95,    21.39,    22.04
       53.0,      22.38,    22.33,    23.24,    21.64,    22.32
       54.0,      22.65,    22.60,    23.52,    21.90,    22.58
       55.0,      22.92,    22.87,    23.81,    22.15,    22.85
       56.0,      23.19,    23.13,    24.10,    22.40,    23.12
       57.0,      23.45,    23.40,    24.38,    22.65,    23.38
       58.0,      23.72,    23.66,    24.66,    22.90,    23.64
       59.0,      23.98,    23.92,    24.94,    23.15,    23.90
       60.0,      24.25,    24.18,    25.24,    23.41,    24.16
       61.0,      24.53,    24.46,    25.55,    23.68,    24.42
       62.0,      24.83,    24.76,    25.90,    23.98,    24.68
       63.0,      25.17,    25.09,    26.30,    24.31,    24.97
       64.0,      25.54,    25.46,    26.73,    24.67,    25.29
       65.0,      25.94,    25.86,    27.19,    25.06,    25.65
       66.0,      26.36,    26.29,    27.66,    25.45,    26.06
       67.0,      26.78,    26.70,    28.10,    25.82,    26.49
       68.0,      27.16,    27.09,    28.49,    26.16,    26.92
       69.0,      27.49,    27.41,    28.81,    26.43,    27.32
       70.0,      27.74,    27.65,    29.04,    26.64,    27.63
       71.0,      27.89,    27.80,    29.16,    26.76,    27.84
       72.0,      27.94,    27.85,    29.19,    26.81,    27.92
       73.0,      27.90,    27.81,    29.12,    26.79,    27.87
       74.0,      27.77,    27.69,    28.99,    26.71,    27.68
       75.0,      27.57,    27.51,    28.82,    26.59,    27.37
       76.0,      27.34,    27.30,    28.62,    26.45,    26.98
       77.0,      27.08,    27.07,    28.41,    26.30,    26.54
       78.0,      26.82,    26.84,    28.20,    26.15,    26.07
       79.0,      26.56,    26.62,    28.01,    26.01,    25.61
       80.0,      26.32,    26.41,    27.82,    25.88,    25.18
       81.0,      26.10,    26.22,    27.65,    25.75,    24.77
       82.0,      25.88,    26.03,    27.48,    25.63,    24.39
       83.0,      25.68,    25.85,    27.32,    25.51,    24.04
       84.0,      25.49,    25.68,    27.16,    25.40,    23.70
       85.0,      25.30,    25.51,    27.01,    25.29,    23.37
       86.0,      25.11,    25.35,    26.87,    25.18,    23.05
       87.0,      24.93,    25.20,    26.73,    25.07,    22.75
       88.0,      24.76,    25.04,    26.59,    24.97,    22.45
       89.0,      24.60,    24.90,    26.46,    24.87,    22.17
       90.0,      24.44,    24.76,    26.33,    24.77,    21.89
       91.0,      24.28,    24.62,    26.20,    24.67,    21.62
       92.0,      24.13,    24.48,    26.08,    24.58,    21.36
       93.0,      23.98,    24.35,    25.97,    24.49,    21.11
       94.0,      23.84,    24.23,    25.86,    24.40,    20.87
       95.0,      23.70,    24.11,    25.75,    24.31,    20.64
       96.0,      23.57,    23.99,    25.64,    24.23,    20.41
       97.0,      23.44,    23.87,    25.54,    24.15,    20.19
       98.0,      23.31,    23.76,    25.44,    24.07,    19.98
       99.0,      23.19,    23.65,    25.34,    23.99,    19.78
      100.0,      23.07,    23.55,    25.25,    23.91,    19.58
      101.0,      22.96,    23.45,    25.16,    23.84,    19.39
      102.0,      22.85,    23.35,    25.07,    23.76,    19.20
      103.0,      22.74,    23.25,    24.99,    23.69,    19.02
      104.0,      22.63,    23.16,    24.90,    23.62,    18.85
      105.0,      22.53,    23.06,    24.82,    23.56,    18.68
      106.0,      22.43,    22.98,    24.74,    23.49,    18.51
      107.0,      22.33,    22.89,    24.67,    23.43,    18.35
      108.0,      22.24,    22.80,    24.59,    23.36,    18.20
      109.0,      22.15,    22.72,    24.52,    23.30,    18.05
      110.0,      22.06,    22.64,    24.45,    23.24,    17.90
      111.0,      21.97,    22.56,    24.38,    23.18,    17.76
      112.0,      21.89,    22.49,    24.32,    23.12,    17.62
      113.0,      21.81,    22.41,    24.25,    23.07,    17.49
      114.0,      21.73,    22.34,    24.19,    23.01,    17.36
      115.0,      21.65,    22.27,    24.13,    22.96,    17.24
      116.0,      21.57,    22.20,    24.07,    22.90,    17.11
      117.0,      21.50,    22.13,    24.01,    22.85,    17.00
      118.0,      21.42,    22.06,    23.95,    22.80,    16.88
      119.0,      21.35,    22.00,    23.90,    22.75,    16.77
      120.0,      21.28,    21.94,    23.84,    22.70,    16.66
      121.0,      21.22,    21.87,    23.79,    22.65,    16.55
      122.0,      21.15,    21.81,    23.74,    22.60,    16.45
      123.0,      21.09,    21.75,    23.69,    22.56,    16.35
      124.0,      21.02,    21.69,    23.64,    22.51,    16.25
      125.0,      20.96,    21.64,    23.59,    22.47,    16.16
      126.0,      20.90,    21.58,    23.54,    22.42,    16.06
      127.0,      20.84,    21.53,    23.49,    22.38,    15.97
      128.0,      20.79,    21.47,    23.45,    22.34,    15.88
      129.0,      20.73,    21.42,    23.40,    22.29,    15.80
      130.0,      20.67,    21.37,    23.36,    22.25,    15.71
      131.0,      20.62,    21.32,    23.32,    22.21,    15.63
      132.0,      20.57,    21.27,    23.27,    22.17,    15.55
      133.0,      20.51,    21.22,    23.23,    22.13,    15.47
      134.0,      20.46,    21.17,    23.19,    22.09,    15.40
      135.0,      20.41,    21.12,    23.15,    22.06,    15.32
      136.0,      20.36,    21.07,    23.11,    22.02,    15.25
      137.0,      20.32,    21.03,    23.07,    21.98,    15.18
      138.0,      20.27,    20.98,    23.04,    21.95,    15.11
      139.0,      20.22,    20.94,    23.00,    21.91,    15.04
      140.0,      20.18,    20.89,    22.96,    21.87,    14.97
      141.0,      20.13,    20.85,    22.93,    21.84,    14.91
      142.0,      20.09,    20.80,    22.89,    21.81,    14.84
      143.0,      20.04,    20.76,    22.86,    21.77,    14.78
      144.0,      20.00,    20.72,    22.82,    21.74,    14.72
      145.0,      19.96,    20.68,    22.79,    21.70,    14.66
      146.0,      19.92,    20.64,    22.75,    21.67,    14.60
      147.0,      19.88,    20.60,    22.72,    21.64,    14.54
      148.0,      19.83,    20.56,    22.69,    21.61,    14.49
      149.0,      19.79,    20.52,    22.66,    21.58,    14.43
      150.0,      19.76,    20.48,    22.62,    21.55,    14.37
      151.0,      19.72,    20.44,    22.59,    21.51,    14.32
      152.0,      19.68,    20.40,    22.56,    21.48,    14.27
      153.0,      19.64,    20.37,    22.53,    21.45,    14.22
      154.0,      19.60,    20.33,    22.50,    21.42,    14.16
      155.0,      19.57,    20.29,    22.47,    21.39,    14.11
      156.0,      19.53,    20.25,    22.44,    21.37,    14.06
      157.0,      19.50,    20.22,    22.41,    21.34,    14.01
      158.0,      19.46,    20.18,    22.38,    21.31,    13.97
      159.0,      19.42,    20.15,    22.35,    21.28,    13.92
      160.0,      19.39,    20.11,    22.32,    21.25,    13.87
      161.0,      19.36,    20.08,    22.30,    21.22,    13.83
      162.0,      19.32,    20.04,    22.27,    21.20,    13.78
      163.0,      19.29,    20.01,    22.24,    21.17,    13.74
      164.0,      19.26,    19.97,    22.21,    21.14,    13.69
      165.0,      19.22,    19.94,    22.19,    21.11,    13.65
      166.0,      19.19,    19.91,    22.16,    21.09,    13.61
      167.0,      19.16,    19.87,    22.13,    21.06,    13.56
      168.0,      19.13,    19.84,    22.10,    21.03,    13.52
      169.0,      19.09,    19.81,    22.08,    21.01,    13.48
      170.0,      19.06,    19.78,    22.05,    20.98,    13.44
      171.0,      19.03,    19.74,    22.03,    20.96,    13.40
      172.0,      19.00,    19.71,    22.00,    20.93,    13.36
      173.0,      18.97,    19.68,    21.97,    20.91,    13.32
      174.0,      18.94,    19.65,    21.95,    20.88,    13.28
      175.0,      18.91,    19.62,    21.92,    20.86,    13.24
      176.0,      18.88,    19.58,    21.90,    20.83,    13.20
      177.0,      18.85,    19.55,    21.87,    20.81,    13.17
      178.0,      18.82,    19.52,    21.85,    20.78,    13.13
      179.0,      18.79,    19.49,    21.82,    20.76,    13.09
      180.0,      18.76,    19.46,    21.80,    20.73,    13.06
      181.0,      18.73,    19.43,    21.78,    20.71,    13.02
      182.0,      18.70,    19.40,    21.75,    20.69,    12.98
      183.0,      18.68,    19.37,    21.73,    20.66,    12.95
      184.0,      18.65,    19.34,    21.70,    20.64,    12.91
      185.0,      18.62,    19.31,    21.68,    20.61,    12.88
      186.0,      18.59,    19.28,    21.65,    20.59,    12.84
      187.0,      18.56,    19.25,    21.63,    20.57,    12.81
      188.0,      18.54,    19.22,    21.61,    20.54,    12.78
      189.0,      18.51,    19.19,    21.58,    20.52,    12.74
      190.0,      18.48,    19.16,    21.56,    20.50,    12.71
      191.0,      18.45,    19.13,    21.54,    20.48,    12.67
      192.0,      18.43,    19.10,    21.51,    20.45,    12.64
      193.0,      18.40,    19.07,    21.49,    20.43,    12.61
      194.0,      18.37,    19.05,    21.47,    20.41,    12.58
      195.0,      18.35,    19.02,    21.44,    20.39,    12.54
      196.0,      18.32,    18.99,    21.42,    20.36,    12.51
      197.0,      18.29,    18.96,    21.40,    20.34,    12.48
      198.0,      18.27,    18.93,    21.38,    20.32,    12.45
      199.0,      18.24,    18.90,    21.35,    20.30,    12.42
      200.0,      18.22,    18.87,    21.33,    20.27,    12.38
      201.0,      18.19,    18.85,    21.31,    20.25,    12.35
      202.0,      18.16,    18.82,    21.29,    20.23,    12.32
      203.0,      18.14,    18.79,    21.26,    20.21,    12.29
      204.0,      18.11,    18.76,    21.24,    20.19,    12.26
      205.0,      18.09,    18.73,    21.22,    20.16,    12.23
      206.0,      18.06,    18.71,    21.20,    20.14,    12.20
      207.0,      18.04,    18.68,    21.17,    20.12,    12.17
      208.0,      18.01,    18.65,    21.15,    20.10,    12.14
      209.0,      17.99,    18.62,    21.13,    20.08,    12.11
      210.0,      17.96,    18.60,    21.11,    20.06,    12.08
      211.0,      17.94,    18.57,    21.09,    20.04,    12.05
      212.0,      17.91,    18.54,    21.07,    20.02,    12.02
      213.0,      17.89,    18.51,    21.04,    19.99,    11.99
      214.0,      17.86,    18.49,    21.02,    19.97,    11.96
      215.0,      17.84,    18.46,    21.00,    19.95,    11.94
      216.0,      17.81,    18.43,    20.98,    19.93,    11.91
      217.0,      17.79,    18.41,    20.96,    19.91,    11.88
      218.0,      17.76,    18.38,    20.93,    19.89,    11.85
      219.0,      17.74,    18.35,    20.91,    19.87,    11.82
      220.0,      17.71,    18.33,    20.89,    19.85,    11.79
      221.0,      17.69,    18.30,    20.87,    19.83,    11.77
      222.0,      17.67,    18.27,    20.85,    19.81,    11.74
      223.0,      17.64,    18.25,    20.83,    19.79,    11.71
      224.0,      17.62,    18.22,    20.81,    19.77,    11.68
      225.0,      17.59,    18.19,    20.79,    19.74,    11.65
      226.0,      17.57,    18.17,    20.76,    19.72,    11.63
      227.0,      17.55,    18.14,    20.74,    19.70,    11.60
      228.0,      17.52,    18.11,    20.72,    19.68,    11.57
      229.0,      17.50,    18.09,    20.70,    19.66,    11.54
      230.0,      17.48,    18.06,    20.68,    19.64,    11.52
      231.0,      17.45,    18.04,    20.66,    19.62,    11.49
      232.0,      17.43,    18.01,    20.64,    19.60,    11.46
      233.0,      17.40,    17.98,    20.62,    19.58,    11.44
      234.0,      17.38,    17.96,    20.60,    19.56,    11.41
      235.0,      17.36,    17.93,    20.57,    19.54,    11.38
      236.0,      17.33,    17.91,    20.55,    19.52,    11.36
      237.0,      17.31,    17.88,    20.53,    19.50,    11.33
      238.0,      17.29,    17.85,    20.51,    19.48,    11.30
      239.0,      17.26,    17.83,    20.49,    19.46,    11.28
      240.0,      17.24,    17.80,    20.47,    19.44,    11.25
      241.0,      17.22,    17.78,    20.45,    19.42,    11.23
      242.0,      17.20,    17.75,    20.43,    19.40,    11.20
      243.0,      17.17,    17.73,    20.41,    19.38,    11.17
      244.0,      17.15,    17.70,    20.39,    19.36,    11.15
      245.0,      17.13,    17.67,    20.37,    19.34,    11.12
      246.0,      17.10,    17.65,    20.35,    19.32,    11.10
      247.0,      17.08,    17.62,    20.33,    19.30,    11.07
      248.0,      17.06,    17.60,    20.31,    19.28,    11.05
      249.0,      17.04,    17.57,    20.29,    19.26,    11.02
      250.0,      17.01,    17.55,    20.27,    19.24,    10.99
      251.0,      16.99,    17.52,    20.24,    19.23,    10.97
      252.0,      16.97,    17.50,    20.22,    19.21,    10.94
      253.0,      16.95,    17.47,    20.20,    19.19,    10.92
      254.0,      16.92,    17.45,    20.18,    19.17,    10.89
      255.0,      16.90,    17.42,    20.16,    19.15,    10.87
      256.0,      16.88,    17.40,    20.14,    19.13,    10.84
      257.0,      16.86,    17.37,    20.12,    19.11,    10.82
      258.0,      16.83,    17.35,    20.10,    19.09,    10.79
      259.0,      16.81,    17.32,    20.08,    19.07,    10.77
      260.0,      16.79,    17.30,    20.06,    19.05,    10.74
      261.0,      16.77,    17.27,    20.04,    19.03,    10.72
      262.0,      16.74,    17.25,    20.02,    19.01,    10.70
      263.0,      16.72,    17.22,    20.00,    18.99,    10.67
      264.0,      16.70,    17.20,    19.98,    18.97,    10.65
      265.0,      16.68,    17.17,    19.96,    18.95,    10.62
      266.0,      16.66,    17.15,    19.94,    18.94,    10.60
      267.0,      16.63,    17.13,    19.92,    18.92,    10.57
      268.0,      16.61,    17.10,    19.90,    18.90,    10.55
      269.0,      16.59,    17.08,    19.88,    18.88,    10.53
      270.0,      16.57,    17.05,    19.86,    18.86,    10.50
      271.0,      16.55,    17.03,    19.84,    18.84,    10.48
      272.0,      16.53,    17.00,    19.82,    18.82,    10.45
      273.0,      16.50,    16.98,    19.80,    18.80,    10.43
      274.0,      16.48,    16.96,    19.78,    18.78,    10.41
      275.0,      16.46,    16.93,    19.76,    18.76,    10.38
      276.0,      16.44,    16.91,    19.74,    18.75,    10.36
      277.0,      16.42,    16.88,    19.72,    18.73,    10.34
      278.0,      16.40,    16.86,    19.70,    18.71,    10.31
      279.0,      16.37,    16.83,    19.68,    18.69,    10.29
      280.0,      16.35,    16.81,    19.66,    18.67,    10.27
      281.0,      16.33,    16.79,    19.64,    18.65,    10.24
      282.0,      16.31,    16.76,    19.62,    18.63,    10.22
      283.0,      16.29,    16.74,    19.60,    18.61,    10.20
      284.0,      16.27,    16.71,    19.58,    18.60,    10.17
      285.0,      16.25,    16.69,    19.57,    18.58,    10.15
      286.0,      16.22,    16.67,    19.55,    18.56,    10.13
      287.0,      16.20,    16.64,    19.53,    18.54,    10.10
      288.0,      16.18,    16.62,    19.51,    18.52,    10.08
      289.0,      16.16,    16.60,    19.49,    18.50,    10.06
      290.0,      16.14,    16.57,    19.47,    18.48,    10.03
      291.0,      16.12,    16.55,    19.45,    18.46,    10.01
      292.0,      16.10,    16.52,    19.43,    18.45,     9.99
      293.0,      16.08,    16.50,    19.41,    18.43,     9.97
      294.0,      16.05,    16.48,    19.39,    18.41,     9.94
      295.0,      16.03,    16.45,    19.37,    18.39,     9.92
      296.0,      16.01,    16.43,    19.35,    18.37,     9.90
      297.0,      15.99,    16.41,    19.33,    18.35,     9.88
      298.0,      15.97,    16.38,    19.31,    18.34,     9.85
      299.0,      15.95,    16.36,    19.29,    18.32,     9.83
      300.0,      15.93,    16.34,    19.27,    18.30,     9.81
      301.0,      15.91,    16.31,    19.25,    18.28,     9.79
      302.0,      15.89,    16.29,    19.23,    18.26,     9.76
      303.0,      15.87,    16.27,    19.22,    18.24,     9.74
      304.0,      15.85,    16.24,    19.20,    18.23,     9.72
      305.0,      15.83,    16.22,    19.18,    18.21,     9.70
      306.0,      15.81,    16.20,    19.16,    18.19,     9.68
      307.0,      15.78,    16.17,    19.14,    18.17,     9.65
      308.0,      15.76,    16.15,    19.12,    18.15,     9.63
      309.0,      15.74,    16.13,    19.10,    18.13,     9.61
      310.0,      15.72,    16.11,    19.08,    18.12,     9.59
