Radius (km), Mean (m/s), NE (m/s), SE (m/s), SW (m/s), NW (m/s)
        0.0,       0.00,     0.00,     0.00,     0.00,     0.00
        1.0,       3.14,     2.90,     3.21,     3.54,     2.89
        2.0,       5.76,     5.62,     5.84,     5.98,     5.59
        3.0,       8.33,     8.41,     8.38,     8.20,     8.34
        4.0,      11.01,    11.42,    11.00,    10.37,    11.26
        5.0,      13.89,    14.73,    13.77,    12.62,    14.44
        6.0,      17.01,    18.37,    16.77,    14.97,    17.94
        7.0,      20.35,    22.30,    19.95,    17.42,    21.71
        8.0,      23.81,    26.39,    23.25,    19.93,    25.66
        9.0,      27.27,    30.48,    26.56,    22.40,    29.63
       10.0,      30.56,    34.36,    29.70,    24.73,    33.43
       11.0,      33.53,    37.84,    32.55,    26.83,    36.89
       12.0,      36.04,    40.76,    34.98,    28.59,    39.84
       13.0,      38.01,    43.01,    36.88,    29.98,    42.17
       14.0,      39.39,    44.55,    38.23,    30.96,    43.83
       15.0,      40.21,    45.41,    39.05,    31.54,    44.85
       16.0,      40.53,    45.68,    39.38,    31.79,    45.28
       17.0,      40.46,    45.48,    39.33,    31.77,    45.25
       18.0,      40.11,    44.97,    39.01,    31.55,    44.89
       19.0,      39.59,    44.27,    38.53,    31.23,    44.34
       20.0,      39.01,    43.51,    37.97,    30.85,    43.70
       21.0,      38.41,    42.74,    37.40,    30.47,    43.04
       22.0,      37.84,    42.01,    36.85,    30.11,    42.41
       23.0,      37.30,    41.32,    36.33,    29.76,    41.80
       24.0,      36.78,    40.65,    35.82,    29.43,    41.22
       25.0,      36.28,    40.02,    35.33,    29.11,    40.65
       26.0,      35.79,    39.40,    34.86,    28.81,    40.10
       27.0,      35.32,    38.81,    34.40,    28.51,    39.56
       28.0,      34.86,    38.24,    33.95,    28.23,    39.04
       29.0,      34.42,    37.70,    33.51,    27.95,    38.53
       30.0,      33.99,    37.17,    33.09,    27.69,    38.03
       31.0,      33.58,    36.66,    32.68,    27.43,    37.55
       32.0,      33.18,    36.18,    32.27,    27.18,    37.08
       33.0,      32.79,    35.71,    31.89,    26.95,    36.63
       34.0,      32.42,    35.25,    31.51,    26.72,    36.19
       35.0,      32.05,    34.82,    31.14,    26.49,    35.75
       36.0,      31.70,    34.40,    30.78,    26.28,    35.34
       37.0,      31.36,    33.99,    30.44,    26.07,    34.93
       38.0,      31.03,    33.61,    30.10,    25.87,    34.53
       39.0,      30.71,    33.23,    29.77,    25.68,    34.14
       40.0,      30.40,    32.87,    29.45,    25.49,    33.77
       41.0,      30.09,    32.52,    29.14,    25.31,    33.40
       42.0,      29.80,    32.19,    28.84,    25.14,    33.04
       43.0,      29.52,    31.86,    28.55,    24.97,    32.70
       44.0,      29.25,    31.55,    28.26,    24.81,    32.36
       45.0,      28.98,    31.25,    27.99,    24.65,    32.03
       46.0,      28.72,    30.96,    27.72,    24.49,    31.71
       47.0,      28.47,    30.69,    27.45,    24.35,    31.40
       48.0,      28.23,    30.42,    27.20,    24.20,    31.10
       49.0,      27.99,    30.16,    26.95,    24.07,    30.80
       50.0,      27.77,    29.91,    26.71,    23.93,    30.52
       51.0,      27.55,    29.67,    26.48,    23.80,    30.24
       52.0,      27.33,    29.44,    26.25,    23.68,    29.96
       53.0,      27.12,    29.21,    26.03,    23.56,    29.70
       54.0,      26.92,    28.99,    25.81,    23.44,    29.44
       55.0,      26.72,    28.79,    25.60,    23.32,    29.19
       56.0,      26.53,    28.58,    25.40,    23.21,    28.94
       57.0,      26.35,    28.39,    25.20,    23.10,    28.70
       58.0,      26.17,    28.20,    25.01,    23.00,    28.47
       59.0,      26.00,    28.02,    24.82,    22.90,    28.24
       60.0,      25.83,    27.85,    24.63,    22.80,    28.02
       61.0,      25.66,    27.68,    24.46,    22.71,    27.81
       62.0,      25.50,    27.51,    24.28,    22.61,    27.60
       63.0,      25.35,    27.35,    24.11,    22.52,    27.40
       64.0,      25.20,    27.20,    23.95,    22.44,    27.20
       65.0,      25.05,    27.05,    23.79,    22.35,    27.00
       66.0,      24.91,    26.91,    23.63,    22.27,    26.81
       67.0,      24.77,    26.77,    23.48,    22.19,    26.63
       68.0,      24.63,    26.64,    23.33,    22.11,    26.45
       69.0,      24.50,    26.51,    23.19,    22.04,    26.28
       70.0,      24.37,    26.38,    23.05,    21.96,    26.10
       71.0,      24.25,    26.26,    22.91,    21.89,    25.94
       72.0,      24.13,    26.15,    22.78,    21.82,    25.78
       73.0,      24.01,    26.03,    22.65,    21.75,    25.62
       74.0,      23.90,    25.92,    22.52,    21.69,    25.46
       75.0,      23.79,    25.82,    22.40,    21.62,    25.31
       76.0,      23.68,    25.71,    22.28,    21.56,    25.17
       77.0,      23.57,    25.61,    22.16,    21.50,    25.02
       78.0,      23.47,    25.51,    22.05,    21.44,    24.88
       79.0,      23.37,    25.42,    21.93,    21.38,    24.75
       80.0,      23.27,    25.33,    21.82,    21.32,    24.61
       81.0,      23.18,    25.24,    21.72,    21.26,    24.48
       82.0,      23.08,    25.15,    21.62,    21.21,    24.36
       83.0,      22.99,    25.07,    21.51,    21.16,    24.23
       84.0,      22.91,    24.99,    21.42,    21.10,    24.11
       85.0,      22.82,    24.91,    21.32,    21.05,    24.00
       86.0,      22.74,    24.83,    21.23,    21.00,    23.88
       87.0,      22.65,    24.76,    21.13,    20.95,    23.77
       88.0,      22.57,    24.68,    21.05,    20.91,    23.66
       89.0,      22.49,    24.61,    20.96,    20.86,    23.55
       90.0,      22.42,    24.54,    20.87,    20.81,    23.45
       91.0,      22.34,    24.48,    20.79,    20.77,    23.34
       92.0,      22.27,    24.41,    20.71,    20.72,    23.24
       93.0,      22.20,    24.35,    20.63,    20.68,    23.15
       94.0,      22.13,    24.29,    20.55,    20.64,    23.05
       95.0,      22.06,    24.23,    20.48,    20.59,    22.96
       96.0,      22.00,    24.17,    20.40,    20.55,    22.87
       97.0,      21.93,    24.11,    20.33,    20.51,    22.78
       98.0,      21.87,    24.05,    20.26,    20.47,    22.69
       99.0,      21.81,    24.00,    20.19,    20.43,    22.60
      100.0,      21.74,    23.94,    20.12,    20.40,    22.52
      101.0,      21.69,    23.89,    20.05,    20.36,    22.44
      102.0,      21.63,    23.84,    19.99,    20.32,    22.36
      103.0,      21.57,    23.79,    19.93,    20.28,    22.28
      104.0,      21.51,    23.74,    19.86,    20.25,    22.20
      105.0,      21.46,    23.69,    19.80,    20.21,    22.13
      106.0,      21.41,    23.65,    19.74,    20.18,    22.06
      107.0,      21.35,    23.60,    19.69,    20.14,    21.98
      108.0,      21.30,    23.55,    19.63,    20.11,    21.91
      109.0,      21.25,    23.51,    19.57,    20.07,    21.84
      110.0,      21.20,    23.47,    19.52,    20.04,    21.78
      111.0,      21.15,    23.42,    19.46,    20.01,    21.71
      112.0,      21.10,    23.38,    19.41,    19.98,    21.65
      113.0,      21.06,    23.34,    19.36,    19.94,    21.58
      114.0,      21.01,    23.30,    19.31,    19.91,    21.52
      115.0,      20.97,    23.26,    19.26,    19.88,    21.46
      116.0,      20.92,    23.22,    19.21,    19.85,    21.40
      117.0,      20.88,    23.18,    19.16,    19.82,    21.34
      118.0,      20.83,    23.15,    19.12,    19.79,    21.28
      119.0,      20.79,    23.11,    19.07,    19.76,    21.23
      120.0,      20.75,    23.07,    19.02,    19.73,    21.17
      121.0,      20.71,    23.04,    18.98,    19.70,    21.12
      122.0,      20.67,    23.00,    18.94,    19.67,    21.06
      123.0,      20.63,    22.97,    18.89,    19.64,    21.01
      124.0,      20.59,    22.93,    18.85,    19.61,    20.96
      125.0,      20.55,    22.90,    18.81,    19.59,    20.91
      126.0,      20.51,    22.87,    18.77,    19.56,    20.86
      127.0,      20.48,    22.83,    18.73,    19.53,    20.81
      128.0,      20.44,    22.80,    18.69,    19.50,    20.76
      129.0,      20.40,    22.77,    18.65,    19.48,    20.71
      130.0,      20.37,    22.74,    18.61,    19.45,    20.67
      131.0,      20.33,    22.70,    18.58,    19.42,    20.62
      132.0,      20.30,    22.67,    18.54,    19.40,    20.58
      133.0,      20.26,    22.64,    18.50,    19.37,    20.53
      134.0,      20.23,    22.61,    18.47,    19.34,    20.49
      135.0,      20.19,    22.58,    18.43,    19.32,    20.45
      136.0,      20.16,    22.55,    18.40,    19.29,    20.40
      137.0,      20.13,    22.52,    18.37,    19.27,    20.36
      138.0,      20.10,    22.49,    18.33,    19.24,    20.32
      139.0,      20.07,    22.47,    18.30,    19.21,    20.28
      140.0,      20.03,    22.44,    18.27,    19.19,    20.24
      141.0,      20.00,    22.41,    18.23,    19.16,    20.20
      142.0,      19.97,    22.38,    18.20,    19.14,    20.17
      143.0,      19.94,    22.35,    18.17,    19.11,    20.13
      144.0,      19.91,    22.33,    18.14,    19.09,    20.09
      145.0,      19.88,    22.30,    18.11,    19.06,    20.05
      146.0,      19.85,    22.27,    18.08,    19.04,    20.02
      147.0,      19.82,    22.25,    18.05,    19.02,    19.98
      148.0,      19.79,    22.22,    18.02,    18.99,    19.95
      149.0,      19.77,    22.19,    17.99,    18.97,    19.91
      150.0,      19.74,    22.17,    17.96,    18.94,    19.88
      151.0,      19.71,    22.14,    17.93,    18.92,    19.84
      152.0,      19.68,    22.11,    17.91,    18.90,    19.81
      153.0,      19.65,    22.09,    17.88,    18.87,    19.78
      154.0,      19.63,    22.06,    17.85,    18.85,    19.74
      155.0,      19.60,    22.04,    17.83,    18.83,    19.71
      156.0,      19.57,    22.01,    17.80,    18.80,    19.68
      157.0,      19.55,    21.99,    17.77,    18.78,    19.65
      158.0,      19.52,    21.96,    17.75,    18.76,    19.62
      159.0,      19.49,    21.94,    17.72,    18.73,    19.59
      160.0,      19.47,    21.91,    17.69,    18.71,    19.56
      161.0,      19.44,    21.89,    17.67,    18.69,    19.53
      162.0,      19.42,    21.86,    17.64,    18.66,    19.50
      163.0,      19.39,    21.84,    17.62,    18.64,    19.47
      164.0,      19.37,    21.82,    17.59,    18.62,    19.44
      165.0,      19.34,    21.79,    17.57,    18.60,    19.41
      166.0,      19.32,    21.77,    17.55,    18.57,    19.38
      167.0,      19.29,    21.74,    17.52,    18.55,    19.35
      168.0,      19.27,    21.72,    17.50,    18.53,    19.32
      169.0,      19.24,    21.70,    17.48,    18.51,    19.30
      170.0,      19.22,    21.67,    17.45,    18.48,    19.27
      171.0,      19.20,    21.65,    17.43,    18.46,    19.24
      172.0,      19.17,    21.63,    17.41,    18.44,    19.21
      173.0,      19.15,    21.60,    17.38,    18.42,    19.19
      174.0,      19.12,    21.58,    17.36,    18.40,    19.16
      175.0,      19.10,    21.56,    17.34,    18.37,    19.13
      176.0,      19.08,    21.53,    17.32,    18.35,    19.11
      177.0,      19.05,    21.51,    17.29,    18.33,    19.08
      178.0,      19.03,    21.49,    17.27,    18.31,    19.06
      179.0,      19.01,    21.47,    17.25,    18.29,    19.03
      180.0,      18.99,    21.44,    17.23,    18.26,    19.01
      181.0,      18.96,    21.42,    17.21,    18.24,    18.98
      182.0,      18.94,    21.40,    17.19,    18.22,    18.96
      183.0,      18.92,    21.38,    17.17,    18.20,    18.93
      184.0,      18.90,    21.35,    17.14,    18.18,    18.91
      185.0,      18.87,    21.33,    17.12,    18.16,    18.88
      186.0,      18.85,    21.31,    17.10,    18.13,    18.86
      187.0,      18.83,    21.29,    17.08,    18.11,    18.84
      188.0,      18.81,    21.26,    17.06,    18.09,    18.81
      189.0,      18.79,    21.24,    17.04,    18.07,    18.79
      190.0,      18.76,    21.22,    17.02,    18.05,    18.77
      191.0,      18.74,    21.20,    17.00,    18.03,    18.74
      192.0,      18.72,    21.18,    16.98,    18.01,    18.72
      193.0,      18.70,    21.15,    16.96,    17.99,    18.70
      194.0,      18.68,    21.13,    16.94,    17.96,    18.67
      195.0,      18.66,    21.11,    16.92,    17.94,    18.65
      196.0,      18.64,    21.09,    16.90,    17.92,    18.63
      197.0,      18.61,    21.07,    16.88,    17.90,    18.61
      198.0,      18.59,    21.05,    16.86,    17.88,    18.58
      199.0,      18.57,    21.02,    16.84,    17.86,    18.56
      200.0,      18.55,    21.00,    16.83,    17.84,    18.54
      201.0,      18.53,    20.98,    16.81,    17.82,    18.52
      202.0,      18.51,    20.96,    16.79,    17.80,    18.50
      203.0,      18.49,    20.94,    16.77,    17.78,    18.47
      204.0,      18.47,    20.92,    16.75,    17.76,    18.45
      205.0,      18.45,    20.90,    16.73,    17.73,    18.43
      206.0,      18.43,    20.87,    16.71,    17.71,    18.41
      207.0,      18.41,    20.85,    16.69,    17.69,    18.39
      208.0,      18.39,    20.83,    16.67,    17.67,    18.37
      209.0,      18.37,    20.81,    16.66,    17.65,    18.35
      210.0,      18.35,    20.79,    16.64,    17.63,    18.33
      211.0,      18.33,    20.77,    16.62,    17.61,    18.31
      212.0,      18.31,    20.75,    16.60,    17.59,    18.28
      213.0,      18.29,    20.73,    16.58,    17.57,    18.26
      214.0,      18.27,    20.70,    16.57,    17.55,    18.24
      215.0,      18.25,    20.68,    16.55,    17.53,    18.22
      216.0,      18.23,    20.66,    16.53,    17.51,    18.20
      217.0,      18.21,    20.64,    16.51,    17.49,    18.18
      218.0,      18.19,    20.62,    16.49,    17.47,    18.16
      219.0,      18.17,    20.60,    16.48,    17.45,    18.14
      220.0,      18.15,    20.58,    16.46,    17.43,    18.12
      221.0,      18.13,    20.56,    16.44,    17.41,    18.10
      222.0,      18.11,    20.54,    16.42,    17.39,    18.08
      223.0,      18.09,    20.52,    16.40,    17.37,    18.06
      224.0,      18.07,    20.50,    16.39,    17.35,    18.04
      225.0,      18.05,    20.48,    16.37,    17.33,    18.02
      226.0,      18.03,    20.46,    16.35,    17.31,    18.00
      227.0,      18.01,    20.43,    16.33,    17.29,    17.98
      228.0,      17.99,    20.41,    16.32,    17.27,    17.96
      229.0,      17.97,    20.39,    16.30,    17.25,    17.94
      230.0,      17.95,    20.37,    16.28,    17.23,    17.93
      231.0,      17.93,    20.35,    16.27,    17.21,    17.91
      232.0,      17.91,    20.33,    16.25,    17.19,    17.89
      233.0,      17.89,    20.31,    16.23,    17.17,    17.87
      234.0,      17.88,    20.29,    16.21,    17.15,    17.85
      235.0,      17.86,    20.27,    16.20,    17.13,    17.83
      236.0,      17.84,    20.25,    16.18,    17.11,    17.81
      237.0,      17.82,    20.23,    16.16,    17.09,    17.79
      238.0,      17.80,    20.21,    16.15,    17.07,    17.77
      239.0,      17.78,    20.19,    16.13,    17.05,    17.75
      240.0,      17.76,    20.17,    16.11,    17.03,    17.73
      241.0,      17.74,    20.15,    16.10,    17.01,    17.72
      242.0,      17.72,    20.13,    16.08,    16.99,    17.70
      243.0,      17.70,    20.11,    16.06,    16.97,    17.68
      244.0,      17.69,    20.09,    16.05,    16.95,    17.66
      245.0,      17.67,    20.07,    16.03,    16.93,    17.64
      246.0,      17.65,    20.05,    16.01,    16.91,    17.62
      247.0,      17.63,    20.03,    16.00,    16.89,    17.60
      248.0,      17.61,    20.01,    15.98,    16.87,    17.59
      249.0,      17.59,    19.99,    15.96,    16.85,    17.57
      250.0,      17.57,    19.97,    15.95,    16.83,    17.55
      251.0,      17.56,    19.95,    15.93,    16.81,    17.53
      252.0,      17.54,    19.93,    15.91,    16.79,    17.51
      253.0,      17.52,    19.91,    15.90,    16.77,    17.49
      254.0,      17.50,    19.89,    15.88,    16.75,    17.48
      255.0,      17.48,    19.87,    15.86,    16.74,    17.46
      256.0,      17.46,    19.85,    15.85,    16.72,    17.44
      257.0,      17.44,    19.83,    15.83,    16.70,    17.42
      258.0,      17.43,    19.81,    15.82,    16.68,    17.40
      259.0,      17.41,    19.79,    15.80,    16.66,    17.39
      260.0,      17.39,    19.77,    15.78,    16.64,    17.37
      261.0,      17.37,    19.75,    15.77,    16.62,    17.35
      262.0,      17.35,    19.73,    15.75,    16.60,    17.33
      263.0,      17.33,    19.71,    15.74,    16.58,    17.31
      264.0,      17.32,    19.69,    15.72,    16.56,    17.30
      265.0,      17.30,    19.67,    15.70,    16.54,    17.28
      266.0,      17.28,    19.65,    15.69,    16.52,    17.26
      267.0,      17.26,    19.63,    15.67,    16.51,    17.24
      268.0,      17.24,    19.61,    15.66,    16.49,    17.22
      269.0,      17.23,    19.59,    15.64,    16.47,    17.21
      270.0,      17.21,    19.57,    15.62,    16.45,    17.19
      271.0,      17.19,    19.55,    15.61,    16.43,    17.17
      272.0,      17.17,    19.53,    15.59,    16.41,    17.15
      273.0,      17.15,    19.51,    15.58,    16.39,    17.14
      274.0,      17.14,    19.49,    15.56,    16.37,    17.12
      275.0,      17.12,    19.47,    15.54,    16.35,    17.10
      276.0,      17.10,    19.45,    15.53,    16.33,    17.08
      277.0,      17.08,    19.43,    15.51,    16.32,    17.07
      278.0,      17.06,    19.41,    15.50,    16.30,    17.05
      279.0,      17.05,    19.40,    15.48,    16.28,    17.03
      280.0,      17.03,    19.38,    15.47,    16.26,    17.01
      281.0,      17.01,    19.36,    15.45,    16.24,    17.00
      282.0,      16.99,    19.34,    15.43,    16.22,    16.98
      283.0,      16.98,    19.32,    15.42,    16.20,    16.96
      284.0,      16.96,    19.30,    15.40,    16.18,    16.95
      285.0,      16.94,    19.28,    15.39,    16.17,    16.93
      286.0,      16.92,    19.26,    15.37,    16.15,    16.91
      287.0,      16.90,    19.24,    15.36,    16.13,    16.89
      288.0,      16.89,    19.22,    15.34,    16.11,    16.88
      289.0,      16.87,    19.20,    15.33,    16.09,    16.86
      290.0,      16.85,    19.18,    15.31,    16.07,    16.84
      291.0,      16.83,    19.16,    15.29,    16.05,    16.82
      292.0,      16.82,    19.14,    15.28,    16.04,    16.81
      293.0,      16.80,    19.13,    15.26,    16.02,    16.79
      294.0,      16.78,    19.11,    15.25,    16.00,    16.77
      295.0,      16.76,    19.09,    15.23,    15.98,    16.76
      296.0,      16.75,    19.07,    15.22,    15.96,    16.74
      297.0,      16.73,    19.05,    15.20,    15.94,    16.72
      298.0,      16.71,    19.03,    15.19,    15.92,    16.71
      299.0,      16.69,    19.01,    15.17,    15.91,    16.69
      300.0,      16.68,    18.99,    15.16,    15.89,    16.67
      301.0,      16.66,    18.97,    15.14,    15.87,    16.66
      302.0,      16.64,    18.95,    15.13,    15.85,    16.64
      303.0,      16.63,    18.93,    15.11,    15.83,    16.62
      304.0,      16.61,    18.92,    15.09,    15.81,    16.60
      305.0,      16.59,    18.90,    15.08,    15.80,    16.59
      306.0,      16.57,    18.88,    15.06,    15.78,    16.57
      307.0,      16.56,    18.86,    15.05,    15.76,    16.55
      308.0,      16.54,    18.84,    15.03,    15.74,    16.54
      309.0,      16.52,    18.82,    15.02,    15.72,    16.52
      310.0,      16.50,    18.80,    15.00,    15.71,    16.50
