Radius (km), Mean (m/s), NE (m/s), SE (m/s), SW (m/s), NW (m/s)
        0.0,       0.00,     0.00,     0.00,     0.00,     0.00
        1.0,       3.64,     3.59,     3.61,     3.77,     3.59
        2.0,       6.12,     6.12,     6.15,     6.09,     6.11
        3.0,       8.35,     8.41,     8.50,     8.10,     8.38
        4.0,      10.52,    10.64,    10.83,    10.00,    10.59
        5.0,      12.73,    12.93,    13.26,    11.89,    12.84
        6.0,      15.04,    15.32,    15.81,    13.84,    15.20
        7.0,      17.46,    17.82,    18.48,    15.85,    17.67
        8.0,      19.93,    20.39,    21.20,    17.91,    20.23
        9.0,      22.40,    22.95,    23.88,    19.95,    22.80
       10.0,      24.75,    25.41,    26.39,    21.91,    25.28
       11.0,      26.89,    27.66,    28.62,    23.70,    27.56
       12.0,      28.72,    29.60,    30.49,    25.25,    29.54
       13.0,      30.19,    31.17,    31.92,    26.50,    31.15
       14.0,      31.26,    32.33,    32.92,    27.43,    32.35
       15.0,      31.94,    33.09,    33.49,    28.03,    33.14
       16.0,      32.27,    33.49,    33.70,    28.34,    33.55
       17.0,      32.32,    33.60,    33.62,    28.41,    33.65
       18.0,      32.16,    33.49,    33.34,    28.30,    33.51
       19.0,      31.88,    33.25,    32.95,    28.08,    33.22
       20.0,      31.53,    32.94,    32.52,    27.80,    32.87
       21.0,      31.17,    32.61,    32.09,    27.51,    32.49
       22.0,      30.83,    32.30,    31.67,    27.23,    32.12
       23.0,      30.50,    32.00,    31.28,    26.96,    31.77
       24.0,      30.20,    31.72,    30.90,    26.71,    31.45
       25.0,      29.90,    31.45,    30.54,    26.47,    31.13
       26.0,      29.61,    31.19,    30.19,    26.24,    30.83
       27.0,      29.34,    30.94,    29.85,    26.01,    30.54
       28.0,      29.07,    30.70,    29.53,    25.79,    30.26
       29.0,      28.81,    30.46,    29.22,    25.58,    29.98
       30.0,      28.56,    30.23,    28.92,    25.38,    29.72
       31.0,      28.32,    30.01,    28.63,    25.18,    29.46
       32.0,      28.09,    29.80,    28.35,    24.99,    29.22
       33.0,      27.86,    29.59,    28.08,    24.81,    28.98
       34.0,      27.65,    29.39,    27.82,    24.63,    28.75
       35.0,      27.44,    29.20,    27.57,    24.45,    28.52
       36.0,      27.23,    29.01,    27.33,    24.29,    28.30
       37.0,      27.04,    28.83,    27.09,    24.12,    28.09
       38.0,      26.85,    28.65,    26.87,    23.97,    27.89
       39.0,      26.66,    28.48,    26.65,    23.81,    27.69
       40.0,      26.48,    28.31,    26.45,    23.67,    27.50
       41.0,      26.31,    28.15,    26.24,    23.52,    27.32
       42.0,      26.14,    28.00,    26.05,    23.38,    27.14
       43.0,      25.98,    27.85,    25.86,    23.25,    26.96
       44.0,      25.82,    27.70,    25.68,    23.12,    26.80
       45.0,      25.67,    27.55,    25.51,    22.99,    26.63
       46.0,      25.52,    27.42,    25.34,    22.87,    26.47
       47.0,      25.38,    27.28,    25.18,    22.75,    26.32
       48.0,      25.24,    27.15,    25.02,    22.63,    26.17
       49.0,      25.11,    27.02,    24.87,    22.52,    26.02
       50.0,      24.98,    26.90,    24.72,    22.41,    25.88
       51.0,      24.85,    26.78,    24.58,    22.30,    25.74
       52.0,      24.73,    26.66,    24.44,    22.20,    25.61
       53.0,      24.61,    26.54,    24.31,    22.10,    25.48
       54.0,      24.49,    26.43,    24.18,    22.00,    25.35
       55.0,      24.38,    26.32,    24.06,    21.90,    25.23
       56.0,      24.27,    26.22,    23.94,    21.81,    25.11
       57.0,      24.16,    26.11,    23.82,    21.72,    25.00
       58.0,      24.06,    26.01,    23.71,    21.63,    24.88
       59.0,      23.96,    25.91,    23.60,    21.55,    24.77
       60.0,      23.86,    25.82,    23.49,    21.46,    24.66
       61.0,      23.76,    25.72,    23.39,    21.38,    24.56
       62.0,      23.67,    25.63,    23.29,    21.30,    24.45
       63.0,      23.58,    25.54,    23.20,    21.22,    24.35
       64.0,      23.49,    25.45,    23.10,    21.14,    24.26
       65.0,      23.40,    25.37,    23.01,    21.07,    24.16
       66.0,      23.32,    25.28,    22.93,    21.00,    24.07
       67.0,      23.24,    25.20,    22.84,    20.92,    23.98
       68.0,      23.16,    25.12,    22.76,    20.85,    23.89
       69.0,      23.08,    25.04,    22.68,    20.79,    23.80
       70.0,      23.00,    24.96,    22.60,    20.72,    23.71
       71.0,      22.92,    24.89,    22.53,    20.65,    23.63
       72.0,      22.85,    24.81,    22.45,    20.59,    23.55
       73.0,      22.78,    24.74,    22.38,    20.53,    23.47
       74.0,      22.71,    24.67,    22.31,    20.46,    23.39
       75.0,      22.64,    24.60,    22.25,    20.40,    23.31
       76.0,      22.57,    24.53,    22.18,    20.35,    23.24
       77.0,      22.51,    24.46,    22.12,    20.29,    23.16
       78.0,      22.44,    24.40,    22.06,    20.23,    23.09
       79.0,      22.38,    24.33,    22.00,    20.17,    23.02
       80.0,      22.32,    24.27,    21.94,    20.12,    22.95
       81.0,      22.26,    24.21,    21.88,    20.06,    22.88
       82.0,      22.20,    24.14,    21.82,    20.01,    22.81
       83.0,      22.14,    24.08,    21.77,    19.96,    22.75
       84.0,      22.08,    24.02,    21.72,    19.91,    22.68
       85.0,      22.03,    23.96,    21.66,    19.86,    22.62
       86.0,      21.97,    23.90,    21.61,    19.81,    22.55
       87.0,      21.91,    23.85,    21.56,    19.76,    22.49
       88.0,      21.86,    23.79,    21.52,    19.71,    22.43
       89.0,      21.81,    23.73,    21.47,    19.66,    22.37
       90.0,      21.76,    23.68,    21.42,    19.61,    22.31
       91.0,      21.71,    23.62,    21.38,    19.57,    22.25
       92.0,      21.65,    23.57,    21.33,    19.52,    22.19
       93.0,      21.61,    23.52,    21.29,    19.48,    22.14
       94.0,      21.56,    23.46,    21.25,    19.43,    22.08
       95.0,      21.51,    23.41,    21.21,    19.39,    22.02
       96.0,      21.46,    23.36,    21.17,    19.34,    21.97
       97.0,      21.41,    23.31,    21.13,    19.30,    21.92
       98.0,      21.37,    23.26,    21.09,    19.26,    21.86
       99.0,      21.32,    23.21,    21.05,    19.22,    21.81
      100.0,      21.28,    23.16,    21.01,    19.18,    21.76
      101.0,      21.23,    23.11,    20.97,    19.13,    21.71
      102.0,      21.19,    23.07,    20.94,    19.09,    21.65
      103.0,      21.14,    23.02,    20.90,    19.05,    21.60
      104.0,      21.10,    22.97,    20.87,    19.01,    21.55
      105.0,      21.06,    22.92,    20.83,    18.97,    21.51
      106.0,      21.02,    22.88,    20.80,    18.94,    21.46
      107.0,      20.98,    22.83,    20.77,    18.90,    21.41
      108.0,      20.93,    22.79,    20.73,    18.86,    21.36
      109.0,      20.89,    22.74,    20.70,    18.82,    21.31
      110.0,      20.85,    22.70,    20.67,    18.78,    21.27
      111.0,      20.81,    22.65,    20.64,    18.75,    21.22
      112.0,      20.77,    22.61,    20.61,    18.71,    21.17
      113.0,      20.74,    22.56,    20.58,    18.67,    21.13
      114.0,      20.70,    22.52,    20.55,    18.64,    21.08
      115.0,      20.66,    22.48,    20.52,    18.60,    21.04
      116.0,      20.62,    22.43,    20.49,    18.56,    20.99
      117.0,      20.58,    22.39,    20.46,    18.53,    20.95
      118.0,      20.54,    22.35,    20.43,    18.49,    20.90
      119.0,      20.51,    22.31,    20.40,    18.46,    20.86
      120.0,      20.47,    22.27,    20.38,    18.42,    20.82
      121.0,      20.43,    22.23,    20.35,    18.39,    20.77
      122.0,      20.40,    22.18,    20.32,    18.35,    20.73
      123.0,      20.36,    22.14,    20.29,    18.32,    20.69
      124.0,      20.33,    22.10,    20.27,    18.29,    20.64
      125.0,      20.29,    22.06,    20.24,    18.25,    20.60
      126.0,      20.25,    22.02,    20.21,    18.22,    20.56
      127.0,      20.22,    21.98,    20.19,    18.19,    20.52
      128.0,      20.18,    21.94,    20.16,    18.15,    20.48
      129.0,      20.15,    21.90,    20.14,    18.12,    20.44
      130.0,      20.11,    21.86,    20.11,    18.09,    20.40
      131.0,      20.08,    21.82,    20.09,    18.05,    20.36
      132.0,      20.05,    21.79,    20.06,    18.02,    20.32
      133.0,      20.01,    21.75,    20.04,    17.99,    20.28
      134.0,      19.98,    21.71,    20.01,    17.96,    20.24
      135.0,      19.95,    21.67,    19.99,    17.93,    20.20
      136.0,      19.91,    21.63,    19.97,    17.89,    20.16
      137.0,      19.88,    21.59,    19.94,    17.86,    20.12
      138.0,      19.85,    21.55,    19.92,    17.83,    20.08
      139.0,      19.81,    21.52,    19.90,    17.80,    20.04
      140.0,      19.78,    21.48,    19.87,    17.77,    20.00
      141.0,      19.75,    21.44,    19.85,    17.74,    19.96
      142.0,      19.72,    21.40,    19.83,    17.71,    19.92
      143.0,      19.68,    21.37,    19.80,    17.67,    19.89
      144.0,      19.65,    21.33,    19.78,    17.64,    19.85
      145.0,      19.62,    21.29,    19.76,    17.61,    19.81
      146.0,      19.59,    21.26,    19.74,    17.58,    19.77
      147.0,      19.55,    21.22,    19.71,    17.55,    19.73
      148.0,      19.52,    21.18,    19.69,    17.52,    19.70
      149.0,      19.49,    21.15,    19.67,    17.49,    19.66
      150.0,      19.46,    21.11,    19.65,    17.46,    19.62
      151.0,      19.43,    21.07,    19.63,    17.43,    19.58
      152.0,      19.40,    21.04,    19.60,    17.40,    19.55
      153.0,      19.37,    21.00,    19.58,    17.37,    19.51
      154.0,      19.34,    20.97,    19.56,    17.34,    19.47
      155.0,      19.30,    20.93,    19.54,    17.31,    19.44
      156.0,      19.27,    20.89,    19.52,    17.28,    19.40
      157.0,      19.24,    20.86,    19.50,    17.25,    19.36
      158.0,      19.21,    20.82,    19.48,    17.22,    19.33
      159.0,      19.18,    20.79,    19.46,    17.19,    19.29
      160.0,      19.15,    20.75,    19.43,    17.17,    19.26
      161.0,      19.12,    20.72,    19.41,    17.14,    19.22
      162.0,      19.09,    20.68,    19.39,    17.11,    19.18
      163.0,      19.06,    20.65,    19.37,    17.08,    19.15
      164.0,      19.03,    20.61,    19.35,    17.05,    19.11
      165.0,      19.00,    20.58,    19.33,    17.02,    19.08
      166.0,      18.97,    20.54,    19.31,    16.99,    19.04
      167.0,      18.94,    20.51,    19.29,    16.96,    19.01
      168.0,      18.91,    20.47,    19.27,    16.93,    18.97
      169.0,      18.88,    20.44,    19.25,    16.91,    18.94
      170.0,      18.85,    20.41,    19.23,    16.88,    18.90
      171.0,      18.82,    20.37,    19.21,    16.85,    18.87
      172.0,      18.79,    20.34,    19.19,    16.82,    18.83
      173.0,      18.77,    20.30,    19.17,    16.79,    18.80
      174.0,      18.74,    20.27,    19.15,    16.76,    18.76
      175.0,      18.71,    20.24,    19.13,    16.74,    18.73
      176.0,      18.68,    20.20,    19.11,    16.71,    18.69
      177.0,      18.65,    20.17,    19.09,    16.68,    18.66
      178.0,      18.62,    20.13,    19.07,    16.65,    18.62
      179.0,      18.59,    20.10,    19.05,    16.62,    18.59
      180.0,      18.56,    20.07,    19.03,    16.60,    18.56
      181.0,      18.53,    20.03,    19.01,    16.57,    18.52
      182.0,      18.51,    20.00,    18.99,    16.54,    18.49
      183.0,      18.48,    19.97,    18.97,    16.51,    18.45
      184.0,      18.45,    19.93,    18.95,    16.49,    18.42
      185.0,      18.42,    19.90,    18.93,    16.46,    18.39
      186.0,      18.39,    19.87,    18.91,    16.43,    18.35
      187.0,      18.36,    19.83,    18.89,    16.40,    18.32
      188.0,      18.33,    19.80,    18.87,    16.38,    18.29
      189.0,      18.31,    19.77,    18.85,    16.35,    18.25
      190.0,      18.28,    19.73,    18.84,    16.32,    18.22
      191.0,      18.25,    19.70,    18.82,    16.30,    18.19
      192.0,      18.22,    19.67,    18.80,    16.27,    18.15
      193.0,      18.19,    19.64,    18.78,    16.24,    18.12
      194.0,      18.17,    19.60,    18.76,    16.21,    18.09
      195.0,      18.14,    19.57,    18.74,    16.19,    18.05
      196.0,      18.11,    19.54,    18.72,    16.16,    18.02
      197.0,      18.08,    19.51,    18.70,    16.13,    17.99
      198.0,      18.05,    19.47,    18.68,    16.11,    17.96
      199.0,      18.03,    19.44,    18.66,    16.08,    17.92
      200.0,      18.00,    19.41,    18.64,    16.05,    17.89
      201.0,      17.97,    19.38,    18.63,    16.03,    17.86
      202.0,      17.94,    19.34,    18.61,    16.00,    17.83
      203.0,      17.92,    19.31,    18.59,    15.97,    17.79
      204.0,      17.89,    19.28,    18.57,    15.95,    17.76
      205.0,      17.86,    19.25,    18.55,    15.92,    17.73
      206.0,      17.83,    19.22,    18.53,    15.89,    17.70
      207.0,      17.81,    19.19,    18.51,    15.87,    17.66
      208.0,      17.78,    19.15,    18.49,    15.84,    17.63
      209.0,      17.75,    19.12,    18.47,    15.82,    17.60
      210.0,      17.73,    19.09,    18.46,    15.79,    17.57
      211.0,      17.70,    19.06,    18.44,    15.76,    17.54
      212.0,      17.67,    19.03,    18.42,    15.74,    17.50
      213.0,      17.64,    19.00,    18.40,    15.71,    17.47
      214.0,      17.62,    18.96,    18.38,    15.69,    17.44
      215.0,      17.59,    18.93,    18.36,    15.66,    17.41
      216.0,      17.56,    18.90,    18.34,    15.63,    17.38
      217.0,      17.54,    18.87,    18.33,    15.61,    17.35
      218.0,      17.51,    18.84,    18.31,    15.58,    17.31
      219.0,      17.48,    18.81,    18.29,    15.56,    17.28
      220.0,      17.46,    18.78,    18.27,    15.53,    17.25
      221.0,      17.43,    18.75,    18.25,    15.50,    17.22
      222.0,      17.40,    18.71,    18.23,    15.48,    17.19
      223.0,      17.38,    18.68,    18.22,    15.45,    17.16
      224.0,      17.35,    18.65,    18.20,    15.43,    17.13
      225.0,      17.32,    18.62,    18.18,    15.40,    17.10
      226.0,      17.30,    18.59,    18.16,    15.38,    17.07
      227.0,      17.27,    18.56,    18.14,    15.35,    17.03
      228.0,      17.25,    18.53,    18.12,    15.33,    17.00
      229.0,      17.22,    18.50,    18.11,    15.30,    16.97
      230.0,      17.19,    18.47,    18.09,    15.28,    16.94
      231.0,      17.17,    18.44,    18.07,    15.25,    16.91
      232.0,      17.14,    18.41,    18.05,    15.23,    16.88
      233.0,      17.12,    18.38,    18.03,    15.20,    16.85
      234.0,      17.09,    18.35,    18.02,    15.18,    16.82
      235.0,      17.06,    18.32,    18.00,    15.15,    16.79
      236.0,      17.04,    18.29,    17.98,    15.13,    16.76
      237.0,      17.01,    18.26,    17.96,    15.10,    16.73
      238.0,      16.99,    18.23,    17.94,    15.08,    16.70
      239.0,      16.96,    18.20,    17.93,    15.05,    16.67
      240.0,      16.93,    18.17,    17.91,    15.03,    16.64
      241.0,      16.91,    18.14,    17.89,    15.00,    16.61
      242.0,      16.88,    18.11,    17.87,    14.98,    16.58
      243.0,      16.86,    18.08,    17.85,    14.95,    16.55
      244.0,      16.83,    18.05,    17.84,    14.93,    16.52
      245.0,      16.81,    18.02,    17.82,    14.90,    16.49
      246.0,      16.78,    17.99,    17.80,    14.88,    16.46
      247.0,      16.76,    17.96,    17.78,    14.85,    16.43
      248.0,      16.73,    17.93,    17.76,    14.83,    16.40
      249.0,      16.70,    17.90,    17.75,    14.80,    16.37
      250.0,      16.68,    17.87,    17.73,    14.78,    16.34
      251.0,      16.65,    17.84,    17.71,    14.76,    16.31
      252.0,      16.63,    17.81,    17.69,    14.73,    16.28
      253.0,      16.60,    17.78,    17.68,    14.71,    16.25
      254.0,      16.58,    17.75,    17.66,    14.68,    16.22
      255.0,      16.55,    17.72,    17.64,    14.66,    16.19
      256.0,      16.53,    17.69,    17.62,    14.63,    16.16
      257.0,      16.50,    17.66,    17.60,    14.61,    16.13
      258.0,      16.48,    17.63,    17.59,    14.59,    16.10
      259.0,      16.45,    17.60,    17.57,    14.56,    16.08
      260.0,      16.43,    17.58,    17.55,    14.54,    16.05
      261.0,      16.40,    17.55,    17.53,    14.51,    16.02
      262.0,      16.38,    17.52,    17.52,    14.49,    15.99
      263.0,      16.35,    17.49,    17.50,    14.47,    15.96
      264.0,      16.33,    17.46,    17.48,    14.44,    15.93
      265.0,      16.30,    17.43,    17.46,    14.42,    15.90
      266.0,      16.28,    17.40,    17.45,    14.40,    15.87
      267.0,      16.25,    17.37,    17.43,    14.37,    15.84
      268.0,      16.23,    17.34,    17.41,    14.35,    15.82
      269.0,      16.21,    17.32,    17.39,    14.32,    15.79
      270.0,      16.18,    17.29,    17.38,    14.30,    15.76
      271.0,      16.16,    17.26,    17.36,    14.28,    15.73
      272.0,      16.13,    17.23,    17.34,    14.25,    15.70
      273.0,      16.11,    17.20,    17.32,    14.23,    15.67
      274.0,      16.08,    17.17,    17.31,    14.21,    15.64
      275.0,      16.06,    17.15,    17.29,    14.18,    15.62
      276.0,      16.03,    17.12,    17.27,    14.16,    15.59
      277.0,      16.01,    17.09,    17.26,    14.14,    15.56
      278.0,      15.99,    17.06,    17.24,    14.11,    15.53
      279.0,      15.96,    17.03,    17.22,    14.09,    15.50
      280.0,      15.94,    17.00,    17.20,    14.07,    15.48
      281.0,      15.91,    16.98,    17.19,    14.04,    15.45
      282.0,      15.89,    16.95,    17.17,    14.02,    15.42
      283.0,      15.87,    16.92,    17.15,    14.00,    15.39
      284.0,      15.84,    16.89,    17.14,    13.97,    15.36
      285.0,      15.82,    16.86,    17.12,    13.95,    15.34
      286.0,      15.79,    16.84,    17.10,    13.93,    15.31
      287.0,      15.77,    16.81,    17.08,    13.91,    15.28
      288.0,      15.75,    16.78,    17.07,    13.88,    15.25
      289.0,      15.72,    16.75,    17.05,    13.86,    15.23
      290.0,      15.70,    16.73,    17.03,    13.84,    15.20
      291.0,      15.67,    16.70,    17.02,    13.81,    15.17
      292.0,      15.65,    16.67,    17.00,    13.79,    15.14
      293.0,      15.63,    16.64,    16.98,    13.77,    15.12
      294.0,      15.60,    16.62,    16.96,    13.75,    15.09
      295.0,      15.58,    16.59,    16.95,    13.72,    15.06
      296.0,      15.56,    16.56,    16.93,    13.70,    15.03
      297.0,      15.53,    16.53,    16.91,    13.68,    15.01
      298.0,      15.51,    16.51,    16.90,    13.66,    14.98
      299.0,      15.49,    16.48,    16.88,    13.63,    14.95
      300.0,      15.46,    16.45,    16.86,    13.61,    14.93
      301.0,      15.44,    16.43,    16.85,    13.59,    14.90
      302.0,      15.42,    16.40,    16.83,    13.57,    14.87
      303.0,      15.39,    16.37,    16.81,    13.54,    14.85
      304.0,      15.37,    16.34,    16.80,    13.52,    14.82
      305.0,      15.35,    16.32,    16.78,    13.50,    14.79
      306.0,      15.32,    16.29,    16.76,    13.48,    14.77
      307.0,      15.30,    16.26,    16.75,    13.45,    14.74
      308.0,      15.28,    16.24,    16.73,    13.43,    14.71
      309.0,      15.25,    16.21,    16.71,    13.41,    14.69
      310.0,      15.23,    16.18,    16.70,    13.39,    14.66
