Radius (km), Mean (m/s), NE (m/s), SE (m/s), SW (m/s), NW (m/s)
        0.0,       0.00,     0.00,     0.00,     0.00,     0.00
        1.0,       1.87,     1.80,     1.91,     1.93,     1.84
        2.0,       2.99,     2.93,     3.02,     3.04,     2.96
        3.0,       3.93,     3.89,     3.96,     3.97,     3.92
        4.0,       4.78,     4.76,     4.79,     4.80,     4.77
        5.0,       5.56,     5.56,     5.56,     5.56,     5.57
        6.0,       6.29,     6.32,     6.28,     6.26,     6.31
        7.0,       6.99,     7.04,     6.95,     6.93,     7.01
        8.0,       7.65,     7.73,     7.60,     7.57,     7.69
        9.0,       8.28,     8.40,     8.22,     8.18,     8.34
       10.0,       8.90,     9.04,     8.81,     8.77,     8.96
       11.0,       9.49,     9.66,     9.39,     9.33,     9.57
       12.0,      10.07,    10.27,     9.95,     9.88,    10.16
       13.0,      10.63,    10.86,    10.49,    10.42,    10.74
       14.0,      11.18,    11.44,    11.02,    10.94,    11.30
       15.0,      11.71,    12.01,    11.54,    11.45,    11.85
       16.0,      12.23,    12.57,    12.05,    11.94,    12.38
       17.0,      12.75,    13.11,    12.54,    12.43,    12.91
       18.0,      13.25,    13.65,    13.03,    12.91,    13.43
       19.0,      13.75,    14.17,    13.50,    13.37,    13.94
       20.0,      14.23,    14.69,    13.97,    13.83,    14.44
       21.0,      14.71,    15.20,    14.43,    14.28,    14.93
       22.0,      15.18,    15.71,    14.88,    14.73,    15.42
       23.0,      15.65,    16.20,    15.33,    15.16,    15.90
       24.0,      16.11,    16.70,    15.77,    15.60,    16.37
       25.0,      16.56,    17.18,    16.20,    16.02,    16.83
       26.0,      17.01,    17.66,    16.63,    16.44,    17.29
       27.0,      17.45,    18.13,    17.05,    16.85,    17.75
       28.0,      17.88,    18.60,    17.47,    17.26,    18.20
       29.0,      18.31,    19.06,    17.88,    17.66,    18.64
       30.0,      18.74,    19.52,    18.29,    18.06,    19.08
       31.0,      19.16,    19.98,    18.70,    18.46,    19.52
       32.0,      19.58,    20.42,    19.09,    18.85,    19.95
       33.0,      19.99,    20.87,    19.49,    19.23,    20.37
       34.0,      20.40,    21.31,    19.88,    19.61,    20.80
       35.0,      20.80,    21.75,    20.27,    19.99,    21.22
       36.0,      21.21,    22.18,    20.65,    20.36,    21.63
       37.0,      21.60,    22.61,    21.03,    20.73,    22.04
       38.0,      22.00,    23.04,    21.40,    21.10,    22.45
       39.0,      22.39,    23.46,    21.78,    21.47,    22.85
       40.0,      22.78,    23.89,    22.15,    21.83,    23.26
       41.0,      23.17,    24.32,    22.53,    22.19,    23.66
       42.0,      23.59,    24.79,    22.95,    22.55,    24.07
       43.0,      24.03,    25.31,    23.40,    22.93,    24.49
       44.0,      24.52,    25.89,    23.92,    23.34,    24.95
       45.0,      25.05,    26.53,    24.48,    23.77,    25.44
       46.0,      25.62,    27.21,    25.08,    24.23,    25.96
       47.0,      26.20,    27.91,    25.70,    24.71,    26.49
       48.0,      26.77,    28.58,    26.29,    25.19,    27.03
       49.0,      27.30,    29.19,    26.82,    25.65,    27.54
       50.0,      27.76,    29.69,    27.26,    26.07,    28.01
       51.0,      28.12,    30.07,    27.58,    26.43,    28.41
       52.0,      28.38,    30.30,    27.77,    26.71,    28.72
       53.0,      28.52,    30.38,    27.84,    26.92,    28.95
       54.0,      28.56,    30.34,    27.79,    27.04,    29.08
       55.0,      28.52,    30.19,    27.66,    27.09,    29.15
       56.0,      28.41,    29.96,    27.46,    27.09,    29.15
       57.0,      28.26,    29.69,    27.22,    27.04,    29.10
       58.0,      28.09,    29.40,    26.97,    26.97,    29.04
       59.0,      27.92,    29.12,    26.72,    26.89,    28.96
       60.0,      27.76,    28.84,    26.48,    26.82,    28.89
       61.0,      27.60,    28.59,    26.26,    26.74,    28.82
       62.0,      27.45,    28.34,    26.05,    26.68,    28.75
       63.0,      27.31,    28.10,    25.84,    26.61,    28.69
       64.0,      27.17,    27.87,    25.65,    26.55,    28.63
       65.0,      27.04,    27.64,    25.46,    26.49,    28.57
       66.0,      26.91,    27.43,    25.27,    26.42,    28.51
       67.0,      26.78,    27.22,    25.10,    26.36,    28.45
       68.0,      26.65,    27.01,    24.93,    26.30,    28.39
       69.0,      26.53,    26.81,    24.76,    26.23,    28.33
       70.0,      26.41,    26.62,    24.60,    26.17,    28.27
       71.0,      26.30,    26.43,    24.45,    26.11,    28.21
       72.0,      26.19,    26.25,    24.30,    26.05,    28.15
       73.0,      26.08,    26.07,    24.16,    25.99,    28.09
       74.0,      25.97,    25.90,    24.02,    25.93,    28.03
       75.0,      25.86,    25.74,    23.88,    25.86,    27.97
       76.0,      25.76,    25.58,    23.76,    25.80,    27.91
       77.0,      25.66,    25.42,    23.63,    25.74,    27.85
       78.0,      25.56,    25.27,    23.51,    25.68,    27.79
       79.0,      25.47,    25.12,    23.39,    25.62,    27.73
       80.0,      25.37,    24.98,    23.28,    25.56,    27.67
       81.0,      25.28,    24.84,    23.17,    25.50,    27.61
       82.0,      25.19,    24.70,    23.06,    25.44,    27.55
       83.0,      25.10,    24.57,    22.96,    25.38,    27.49
       84.0,      25.02,    24.44,    22.86,    25.32,    27.44
       85.0,      24.93,    24.32,    22.76,    25.26,    27.38
       86.0,      24.85,    24.20,    22.67,    25.21,    27.32
       87.0,      24.77,    24.08,    22.58,    25.15,    27.26
       88.0,      24.69,    23.97,    22.49,    25.09,    27.20
       89.0,      24.61,    23.86,    22.41,    25.03,    27.15
       90.0,      24.53,    23.75,    22.32,    24.97,    27.09
       91.0,      24.46,    23.64,    22.24,    24.91,    27.03
       92.0,      24.38,    23.54,    22.17,    24.86,    26.97
       93.0,      24.31,    23.44,    22.09,    24.80,    26.92
       94.0,      24.24,    23.34,    22.02,    24.74,    26.86
       95.0,      24.17,    23.25,    21.94,    24.69,    26.80
       96.0,      24.10,    23.16,    21.88,    24.63,    26.75
       97.0,      24.03,    23.07,    21.81,    24.57,    26.69
       98.0,      23.97,    22.98,    21.74,    24.52,    26.63
       99.0,      23.90,    22.89,    21.68,    24.46,    26.58
      100.0,      23.84,    22.81,    21.62,    24.40,    26.52
      101.0,      23.77,    22.73,    21.56,    24.35,    26.47
      102.0,      23.71,    22.65,    21.50,    24.29,    26.41
      103.0,      23.65,    22.57,    21.44,    24.24,    26.35
      104.0,      23.59,    22.50,    21.38,    24.18,    26.30
      105.0,      23.53,    22.43,    21.33,    24.13,    26.24
      106.0,      23.47,    22.36,    21.28,    24.07,    26.19
      107.0,      23.41,    22.29,    21.22,    24.02,    26.13
      108.0,      23.36,    22.22,    21.17,    23.96,    26.08
      109.0,      23.30,    22.15,    21.12,    23.91,    26.02
      110.0,      23.25,    22.09,    21.08,    23.85,    25.97
      111.0,      23.19,    22.02,    21.03,    23.80,    25.91
      112.0,      23.14,    21.96,    20.98,    23.74,    25.86
      113.0,      23.08,    21.90,    20.94,    23.69,    25.81
      114.0,      23.03,    21.84,    20.89,    23.64,    25.75
      115.0,      22.98,    21.78,    20.85,    23.58,    25.70
      116.0,      22.93,    21.73,    20.81,    23.53,    25.64
      117.0,      22.88,    21.67,    20.77,    23.48,    25.59
      118.0,      22.83,    21.62,    20.73,    23.43,    25.54
      119.0,      22.78,    21.56,    20.69,    23.37,    25.48
      120.0,      22.73,    21.51,    20.65,    23.32,    25.43
      121.0,      22.68,    21.46,    20.61,    23.27,    25.37
      122.0,      22.63,    21.41,    20.57,    23.22,    25.32
      123.0,      22.58,    21.36,    20.54,    23.16,    25.27
      124.0,      22.54,    21.31,    20.50,    23.11,    25.22
      125.0,      22.49,    21.27,    20.46,    23.06,    25.16
      126.0,      22.44,    21.22,    20.43,    23.01,    25.11
      127.0,      22.40,    21.17,    20.40,    22.96,    25.06
      128.0,      22.35,    21.13,    20.36,    22.91,    25.01
      129.0,      22.31,    21.09,    20.33,    22.86,    24.95
      130.0,      22.26,    21.04,    20.30,    22.80,    24.90
      131.0,      22.22,    21.00,    20.26,    22.75,    24.85
      132.0,      22.17,    20.96,    20.23,    22.70,    24.80
      133.0,      22.13,    20.92,    20.20,    22.65,    24.75
      134.0,      22.09,    20.88,    20.17,    22.60,    24.69
      135.0,      22.04,    20.84,    20.14,    22.55,    24.64
      136.0,      22.00,    20.80,    20.11,    22.50,    24.59
      137.0,      21.96,    20.76,    20.08,    22.45,    24.54
      138.0,      21.92,    20.73,    20.05,    22.40,    24.49
      139.0,      21.88,    20.69,    20.02,    22.35,    24.44
      140.0,      21.84,    20.65,    20.00,    22.30,    24.39
      141.0,      21.79,    20.62,    19.97,    22.26,    24.34
      142.0,      21.75,    20.58,    19.94,    22.21,    24.28
      143.0,      21.71,    20.55,    19.91,    22.16,    24.23
      144.0,      21.67,    20.51,    19.89,    22.11,    24.18
      145.0,      21.63,    20.48,    19.86,    22.06,    24.13
      146.0,      21.59,    20.45,    19.83,    22.01,    24.08
      147.0,      21.56,    20.42,    19.81,    21.96,    24.03
      148.0,      21.52,    20.38,    19.78,    21.92,    23.98
      149.0,      21.48,    20.35,    19.76,    21.87,    23.93
      150.0,      21.44,    20.32,    19.73,    21.82,    23.88
      151.0,      21.40,    20.29,    19.71,    21.77,    23.83
      152.0,      21.36,    20.26,    19.68,    21.73,    23.78
      153.0,      21.32,    20.23,    19.66,    21.68,    23.73
      154.0,      21.29,    20.20,    19.63,    21.63,    23.69
      155.0,      21.25,    20.17,    19.61,    21.58,    23.64
      156.0,      21.21,    20.14,    19.59,    21.54,    23.59
      157.0,      21.18,    20.11,    19.56,    21.49,    23.54
      158.0,      21.14,    20.08,    19.54,    21.44,    23.49
      159.0,      21.10,    20.05,    19.51,    21.40,    23.44
      160.0,      21.07,    20.03,    19.49,    21.35,    23.39
      161.0,      21.03,    20.00,    19.47,    21.30,    23.34
      162.0,      20.99,    19.97,    19.45,    21.26,    23.30
      163.0,      20.96,    19.94,    19.42,    21.21,    23.25
      164.0,      20.92,    19.92,    19.40,    21.17,    23.20
      165.0,      20.89,    19.89,    19.38,    21.12,    23.15
      166.0,      20.85,    19.86,    19.36,    21.08,    23.10
      167.0,      20.81,    19.84,    19.33,    21.03,    23.06
      168.0,      20.78,    19.81,    19.31,    20.98,    23.01
      169.0,      20.74,    19.79,    19.29,    20.94,    22.96
      170.0,      20.71,    19.76,    19.27,    20.89,    22.91
      171.0,      20.67,    19.74,    19.25,    20.85,    22.87
      172.0,      20.64,    19.71,    19.23,    20.80,    22.82
      173.0,      20.61,    19.69,    19.20,    20.76,    22.77
      174.0,      20.57,    19.66,    19.18,    20.72,    22.72
      175.0,      20.54,    19.64,    19.16,    20.67,    22.68
      176.0,      20.50,    19.61,    19.14,    20.63,    22.63
      177.0,      20.47,    19.59,    19.12,    20.58,    22.58
      178.0,      20.43,    19.57,    19.10,    20.54,    22.54
      179.0,      20.40,    19.54,    19.08,    20.49,    22.49
      180.0,      20.37,    19.52,    19.06,    20.45,    22.44
      181.0,      20.33,    19.49,    19.04,    20.41,    22.40
      182.0,      20.30,    19.47,    19.02,    20.36,    22.35
      183.0,      20.27,    19.45,    19.00,    20.32,    22.31
      184.0,      20.23,    19.43,    18.97,    20.28,    22.26
      185.0,      20.20,    19.40,    18.95,    20.23,    22.21
      186.0,      20.17,    19.38,    18.93,    20.19,    22.17
      187.0,      20.14,    19.36,    18.91,    20.15,    22.12
      188.0,      20.10,    19.34,    18.89,    20.10,    22.08
      189.0,      20.07,    19.31,    18.87,    20.06,    22.03
      190.0,      20.04,    19.29,    18.85,    20.02,    21.99
      191.0,      20.01,    19.27,    18.83,    19.98,    21.94
      192.0,      19.97,    19.25,    18.81,    19.93,    21.90
      193.0,      19.94,    19.23,    18.79,    19.89,    21.85
      194.0,      19.91,    19.20,    18.77,    19.85,    21.81
      195.0,      19.88,    19.18,    18.76,    19.81,    21.76
      196.0,      19.84,    19.16,    18.74,    19.77,    21.72
      197.0,      19.81,    19.14,    18.72,    19.73,    21.67
      198.0,      19.78,    19.12,    18.70,    19.68,    21.63
      199.0,      19.75,    19.10,    18.68,    19.64,    21.58
      200.0,      19.72,    19.08,    18.66,    19.60,    21.54
      201.0,      19.69,    19.05,    18.64,    19.56,    21.49
      202.0,      19.66,    19.03,    18.62,    19.52,    21.45
      203.0,      19.62,    19.01,    18.60,    19.48,    21.41
      204.0,      19.59,    18.99,    18.58,    19.44,    21.36
      205.0,      19.56,    18.97,    18.56,    19.40,    21.32
      206.0,      19.53,    18.95,    18.54,    19.35,    21.28
      207.0,      19.50,    18.93,    18.52,    19.31,    21.23
      208.0,      19.47,    18.91,    18.50,    19.27,    21.19
      209.0,      19.44,    18.89,    18.48,    19.23,    21.14
      210.0,      19.41,    18.87,    18.47,    19.19,    21.10
      211.0,      19.38,    18.85,    18.45,    19.15,    21.06
      212.0,      19.35,    18.83,    18.43,    19.11,    21.02
      213.0,      19.32,    18.81,    18.41,    19.07,    20.97
      214.0,      19.29,    18.79,    18.39,    19.03,    20.93
      215.0,      19.25,    18.77,    18.37,    18.99,    20.89
      216.0,      19.22,    18.75,    18.35,    18.95,    20.84
      217.0,      19.19,    18.73,    18.33,    18.91,    20.80
      218.0,      19.16,    18.71,    18.32,    18.87,    20.76
      219.0,      19.13,    18.69,    18.30,    18.83,    20.72
      220.0,      19.10,    18.67,    18.28,    18.80,    20.67
      221.0,      19.07,    18.65,    18.26,    18.76,    20.63
      222.0,      19.04,    18.63,    18.24,    18.72,    20.59
      223.0,      19.01,    18.61,    18.22,    18.68,    20.55
      224.0,      18.99,    18.59,    18.20,    18.64,    20.51
      225.0,      18.96,    18.57,    18.19,    18.60,    20.46
      226.0,      18.93,    18.55,    18.17,    18.56,    20.42
      227.0,      18.90,    18.53,    18.15,    18.52,    20.38
      228.0,      18.87,    18.51,    18.13,    18.49,    20.34
      229.0,      18.84,    18.49,    18.11,    18.45,    20.30
      230.0,      18.81,    18.47,    18.09,    18.41,    20.26
      231.0,      18.78,    18.46,    18.08,    18.37,    20.22
      232.0,      18.75,    18.44,    18.06,    18.33,    20.17
      233.0,      18.72,    18.42,    18.04,    18.29,    20.13
      234.0,      18.69,    18.40,    18.02,    18.26,    20.09
      235.0,      18.66,    18.38,    18.00,    18.22,    20.05
      236.0,      18.63,    18.36,    17.98,    18.18,    20.01
      237.0,      18.61,    18.34,    17.97,    18.14,    19.97
      238.0,      18.58,    18.32,    17.95,    18.11,    19.93
      239.0,      18.55,    18.30,    17.93,    18.07,    19.89
      240.0,      18.52,    18.28,    17.91,    18.03,    19.85
      241.0,      18.49,    18.27,    17.89,    18.00,    19.81
      242.0,      18.46,    18.25,    17.88,    17.96,    19.77
      243.0,      18.43,    18.23,    17.86,    17.92,    19.73
      244.0,      18.41,    18.21,    17.84,    17.88,    19.69
      245.0,      18.38,    18.19,    17.82,    17.85,    19.65
      246.0,      18.35,    18.17,    17.80,    17.81,    19.61
      247.0,      18.32,    18.15,    17.79,    17.77,    19.57
      248.0,      18.29,    18.14,    17.77,    17.74,    19.53
      249.0,      18.26,    18.12,    17.75,    17.70,    19.49
      250.0,      18.24,    18.10,    17.73,    17.66,    19.45
      251.0,      18.21,    18.08,    17.71,    17.63,    19.41
      252.0,      18.18,    18.06,    17.70,    17.59,    19.37
      253.0,      18.15,    18.04,    17.68,    17.56,    19.33
      254.0,      18.12,    18.02,    17.66,    17.52,    19.29
      255.0,      18.10,    18.01,    17.64,    17.48,    19.25
      256.0,      18.07,    17.99,    17.63,    17.45,    19.21
      257.0,      18.04,    17.97,    17.61,    17.41,    19.18
      258.0,      18.01,    17.95,    17.59,    17.38,    19.14
      259.0,      17.99,    17.93,    17.57,    17.34,    19.10
      260.0,      17.96,    17.92,    17.56,    17.31,    19.06
      261.0,      17.93,    17.90,    17.54,    17.27,    19.02
      262.0,      17.90,    17.88,    17.52,    17.24,    18.98
      263.0,      17.88,    17.86,    17.50,    17.20,    18.94
      264.0,      17.85,    17.84,    17.48,    17.17,    18.91
      265.0,      17.82,    17.82,    17.47,    17.13,    18.87
      266.0,      17.80,    17.81,    17.45,    17.10,    18.83
      267.0,      17.77,    17.79,    17.43,    17.06,    18.79
      268.0,      17.74,    17.77,    17.41,    17.03,    18.75
      269.0,      17.71,    17.75,    17.40,    16.99,    18.72
      270.0,      17.69,    17.73,    17.38,    16.96,    18.68
      271.0,      17.66,    17.72,    17.36,    16.92,    18.64
      272.0,      17.63,    17.70,    17.35,    16.89,    18.60
      273.0,      17.61,    17.68,    17.33,    16.85,    18.56
      274.0,      17.58,    17.66,    17.31,    16.82,    18.53
      275.0,      17.55,    17.65,    17.29,    16.79,    18.49
      276.0,      17.53,    17.63,    17.28,    16.75,    18.45
      277.0,      17.50,    17.61,    17.26,    16.72,    18.42
      278.0,      17.47,    17.59,    17.24,    16.68,    18.38
      279.0,      17.45,    17.57,    17.22,    16.65,    18.34
      280.0,      17.42,    17.56,    17.21,    16.62,    18.30
      281.0,      17.39,    17.54,    17.19,    16.58,    18.27
      282.0,      17.37,    17.52,    17.17,    16.55,    18.23
      283.0,      17.34,    17.50,    17.15,    16.52,    18.19
      284.0,      17.32,    17.49,    17.14,    16.48,    18.16
      285.0,      17.29,    17.47,    17.12,    16.45,    18.12
      286.0,      17.26,    17.45,    17.10,    16.42,    18.08
      287.0,      17.24,    17.43,    17.09,    16.38,    18.05
      288.0,      17.21,    17.42,    17.07,    16.35,    18.01
      289.0,      17.19,    17.40,    17.05,    16.32,    17.98
      290.0,      17.16,    17.38,    17.04,    16.28,    17.94
      291.0,      17.13,    17.36,    17.02,    16.25,    17.90
      292.0,      17.11,    17.35,    17.00,    16.22,    17.87
      293.0,      17.08,    17.33,    16.98,    16.19,    17.83
      294.0,      17.06,    17.31,    16.97,    16.15,    17.80
      295.0,      17.03,    17.29,    16.95,    16.12,    17.76
      296.0,      17.01,    17.28,    16.93,    16.09,    17.72
      297.0,      16.98,    17.26,    16.92,    16.06,    17.69
      298.0,      16.95,    17.24,    16.90,    16.02,    17.65
      299.0,      16.93,    17.22,    16.88,    15.99,    17.62
      300.0,      16.90,    17.21,    16.87,    15.96,    17.58
      301.0,      16.88,    17.19,    16.85,    15.93,    17.55
      302.0,      16.85,    17.17,    16.83,    15.89,    17.51
      303.0,      16.83,    17.16,    16.81,    15.86,    17.48
      304.0,      16.80,    17.14,    16.80,    15.83,    17.44
      305.0,      16.78,    17.12,    16.78,    15.80,    17.41
      306.0,      16.75,    17.10,    16.76,    15.77,    17.37
      307.0,      16.73,    17.09,    16.75,    15.74,    17.34
      308.0,      16.70,    17.07,    16.73,    15.70,    17.30
      309.0,      16.68,    17.05,    16.71,    15.67,    17.27
      310.0,      16.65,    17.04,    16.70,    15.64,    17.23
