Radius (km), Mean (m/s), NE (m/s), SE (m/s), SW (m/s), NW (m/s)
        0.0,       1.50,     1.76,     1.68,     1.31,     1.27
        1.0,       6.80,     7.14,     7.06,     6.61,     6.38
        2.0,      11.46,    12.02,    11.66,    11.16,    10.99
        3.0,      16.03,    16.84,    16.11,    15.63,    15.55
        4.0,      20.47,    21.53,    20.37,    19.97,    20.02
        5.0,      24.65,    25.93,    24.32,    24.07,    24.27
        6.0,      28.40,    29.87,    27.83,    27.76,    28.15
        7.0,      31.59,    33.20,    30.78,    30.90,    31.51
        8.0,      34.14,    35.82,    33.09,    33.38,    34.26
        9.0,      35.99,    37.70,    34.75,    35.17,    36.35
       10.0,      37.18,    38.88,    35.79,    36.27,    37.78
       11.0,      37.78,    39.44,    36.31,    36.76,    38.63
       12.0,      37.92,    39.52,    36.40,    36.75,    39.00
       13.0,      37.72,    39.25,    36.20,    36.39,    39.02
       14.0,      37.31,    38.78,    35.84,    35.81,    38.81
       15.0,      36.81,    38.22,    35.40,    35.12,    38.49
       16.0,      36.28,    37.65,    34.94,    34.41,    38.12
       17.0,      35.77,    37.10,    34.50,    33.72,    37.77
       18.0,      35.29,    36.57,    34.09,    33.07,    37.42
       19.0,      34.83,    36.07,    33.70,    32.45,    37.09
       20.0,      34.38,    35.59,    33.31,    31.85,    36.77
       21.0,      33.95,    35.12,    32.95,    31.27,    36.45
       22.0,      33.53,    34.68,    32.59,    30.71,    36.14
       23.0,      33.13,    34.25,    32.25,    30.17,    35.83
       24.0,      32.73,    33.83,    31.93,    29.65,    35.53
       25.0,      32.36,    33.43,    31.61,    29.15,    35.23
       26.0,      31.99,    33.05,    31.31,    28.67,    34.94
       27.0,      31.64,    32.68,    31.01,    28.21,    34.65
       28.0,      31.29,    32.32,    30.73,    27.76,    34.37
       29.0,      30.96,    31.98,    30.46,    27.32,    34.09
       30.0,      30.64,    31.65,    30.19,    26.91,    33.81
       31.0,      30.33,    31.33,    29.94,    26.50,    33.54
       32.0,      30.03,    31.02,    29.69,    26.12,    33.28
       33.0,      29.74,    30.73,    29.46,    25.74,    33.02
       34.0,      29.45,    30.44,    29.23,    25.38,    32.76
       35.0,      29.18,    30.16,    29.01,    25.03,    32.51
       36.0,      28.92,    29.90,    28.80,    24.70,    32.27
       37.0,      28.66,    29.64,    28.59,    24.37,    32.02
       38.0,      28.41,    29.40,    28.40,    24.06,    31.78
       39.0,      28.17,    29.16,    28.21,    23.76,    31.55
       40.0,      27.93,    28.93,    28.02,    23.47,    31.32
       41.0,      27.71,    28.71,    27.84,    23.19,    31.09
       42.0,      27.49,    28.49,    27.67,    22.91,    30.87
       43.0,      27.27,    28.28,    27.51,    22.65,    30.65
       44.0,      27.06,    28.08,    27.35,    22.40,    30.43
       45.0,      26.86,    27.89,    27.19,    22.16,    30.22
       46.0,      26.67,    27.71,    27.04,    21.92,    30.01
       47.0,      26.48,    27.53,    26.90,    21.69,    29.80
       48.0,      26.30,    27.35,    26.76,    21.47,    29.60
       49.0,      26.12,    27.18,    26.62,    21.26,    29.40
       50.0,      25.94,    27.02,    26.49,    21.06,    29.20
       51.0,      25.77,    26.87,    26.36,    20.86,    29.01
       52.0,      25.61,    26.71,    26.24,    20.67,    28.82
       53.0,      25.45,    26.57,    26.12,    20.48,    28.64
       54.0,      25.30,    26.43,    26.00,    20.30,    28.45
       55.0,      25.15,    26.29,    25.89,    20.13,    28.27
       56.0,      25.00,    26.16,    25.78,    19.96,    28.09
       57.0,      24.86,    26.03,    25.68,    19.80,    27.92
       58.0,      24.72,    25.90,    25.58,    19.65,    27.75
       59.0,      24.58,    25.78,    25.48,    19.50,    27.58
       60.0,      24.45,    25.67,    25.38,    19.35,    27.41
       61.0,      24.33,    25.55,    25.29,    19.21,    27.25
       62.0,      24.20,    25.45,    25.20,    19.08,    27.08
       63.0,      24.08,    25.34,    25.11,    18.94,    26.93
       64.0,      23.96,    25.24,    25.03,    18.82,    26.77
       65.0,      23.85,    25.14,    24.95,    18.69,    26.62
       66.0,      23.74,    25.04,    24.87,    18.57,    26.46
       67.0,      23.63,    24.95,    24.79,    18.46,    26.31
       68.0,      23.52,    24.85,    24.71,    18.35,    26.17
       69.0,      23.42,    24.77,    24.64,    18.24,    26.02
       70.0,      23.32,    24.68,    24.57,    18.13,    25.88
       71.0,      23.22,    24.60,    24.50,    18.03,    25.74
       72.0,      23.12,    24.52,    24.43,    17.93,    25.60
       73.0,      23.03,    24.44,    24.36,    17.84,    25.47
       74.0,      22.94,    24.36,    24.30,    17.75,    25.33
       75.0,      22.85,    24.29,    24.24,    17.66,    25.20
       76.0,      22.76,    24.21,    24.18,    17.57,    25.07
       77.0,      22.67,    24.14,    24.12,    17.49,    24.95
       78.0,      22.59,    24.07,    24.06,    17.40,    24.82
       79.0,      22.51,    24.01,    24.00,    17.33,    24.70
       80.0,      22.43,    23.94,    23.95,    17.25,    24.57
       81.0,      22.35,    23.88,    23.89,    17.17,    24.45
       82.0,      22.27,    23.82,    23.84,    17.10,    24.34
       83.0,      22.20,    23.76,    23.79,    17.03,    24.22
       84.0,      22.13,    23.70,    23.74,    16.96,    24.10
       85.0,      22.05,    23.64,    23.69,    16.90,    23.99
       86.0,      21.98,    23.58,    23.64,    16.83,    23.88
       87.0,      21.92,    23.53,    23.59,    16.77,    23.77
       88.0,      21.85,    23.47,    23.54,    16.71,    23.66
       89.0,      21.78,    23.42,    23.50,    16.65,    23.56
       90.0,      21.72,    23.37,    23.45,    16.59,    23.45
       91.0,      21.65,    23.32,    23.41,    16.54,    23.35
       92.0,      21.59,    23.27,    23.37,    16.48,    23.25
       93.0,      21.53,    23.22,    23.33,    16.43,    23.15
       94.0,      21.47,    23.18,    23.28,    16.38,    23.05
       95.0,      21.41,    23.13,    23.24,    16.33,    22.95
       96.0,      21.36,    23.08,    23.20,    16.28,    22.85
       97.0,      21.30,    23.04,    23.16,    16.23,    22.76
       98.0,      21.24,    23.00,    23.13,    16.19,    22.67
       99.0,      21.19,    22.95,    23.09,    16.14,    22.57
      100.0,      21.14,    22.91,    23.05,    16.10,    22.48
      101.0,      21.08,    22.87,    23.01,    16.05,    22.39
      102.0,      21.03,    22.83,    22.98,    16.01,    22.31
      103.0,      20.98,    22.79,    22.94,    15.97,    22.22
      104.0,      20.93,    22.75,    22.91,    15.93,    22.13
      105.0,      20.88,    22.71,    22.87,    15.89,    22.05
      106.0,      20.83,    22.67,    22.84,    15.85,    21.97
      107.0,      20.79,    22.64,    22.81,    15.82,    21.88
      108.0,      20.74,    22.60,    22.77,    15.78,    21.80
      109.0,      20.69,    22.56,    22.74,    15.74,    21.72
      110.0,      20.65,    22.53,    22.71,    15.71,    21.64
      111.0,      20.60,    22.49,    22.68,    15.68,    21.57
      112.0,      20.56,    22.46,    22.64,    15.64,    21.49
      113.0,      20.52,    22.42,    22.61,    15.61,    21.41
      114.0,      20.47,    22.39,    22.58,    15.58,    21.34
      115.0,      20.43,    22.36,    22.55,    15.55,    21.27
      116.0,      20.39,    22.32,    22.52,    15.51,    21.19
      117.0,      20.35,    22.29,    22.49,    15.48,    21.12
      118.0,      20.31,    22.26,    22.46,    15.45,    21.05
      119.0,      20.27,    22.23,    22.43,    15.43,    20.98
      120.0,      20.23,    22.20,    22.41,    15.40,    20.91
      121.0,      20.19,    22.17,    22.38,    15.37,    20.84
      122.0,      20.15,    22.14,    22.35,    15.34,    20.78
      123.0,      20.11,    22.11,    22.32,    15.31,    20.71
      124.0,      20.08,    22.08,    22.29,    15.29,    20.64
      125.0,      20.04,    22.05,    22.27,    15.26,    20.58
      126.0,      20.00,    22.02,    22.24,    15.24,    20.52
      127.0,      19.97,    21.99,    22.21,    15.21,    20.45
      128.0,      19.93,    21.96,    22.18,    15.19,    20.39
      129.0,      19.89,    21.93,    22.16,    15.16,    20.33
      130.0,      19.86,    21.90,    22.13,    15.14,    20.27
      131.0,      19.83,    21.87,    22.11,    15.11,    20.21
      132.0,      19.79,    21.85,    22.08,    15.09,    20.15
      133.0,      19.76,    21.82,    22.05,    15.07,    20.09
      134.0,      19.72,    21.79,    22.03,    15.04,    20.03
      135.0,      19.69,    21.76,    22.00,    15.02,    19.98
      136.0,      19.66,    21.74,    21.98,    15.00,    19.92
      137.0,      19.63,    21.71,    21.95,    14.98,    19.86
      138.0,      19.59,    21.68,    21.93,    14.95,    19.81
      139.0,      19.56,    21.66,    21.90,    14.93,    19.76
      140.0,      19.53,    21.63,    21.88,    14.91,    19.70
      141.0,      19.50,    21.61,    21.85,    14.89,    19.65
      142.0,      19.47,    21.58,    21.83,    14.87,    19.60
      143.0,      19.44,    21.55,    21.80,    14.85,    19.54
      144.0,      19.41,    21.53,    21.78,    14.83,    19.49
      145.0,      19.38,    21.50,    21.76,    14.81,    19.44
      146.0,      19.35,    21.48,    21.73,    14.79,    19.39
      147.0,      19.32,    21.45,    21.71,    14.77,    19.34
      148.0,      19.29,    21.43,    21.68,    14.75,    19.29
      149.0,      19.26,    21.40,    21.66,    14.73,    19.24
      150.0,      19.23,    21.38,    21.64,    14.71,    19.20
      151.0,      19.20,    21.35,    21.61,    14.69,    19.15
      152.0,      19.17,    21.33,    21.59,    14.68,    19.10
      153.0,      19.15,    21.30,    21.57,    14.66,    19.06
      154.0,      19.12,    21.28,    21.54,    14.64,    19.01
      155.0,      19.09,    21.26,    21.52,    14.62,    18.96
      156.0,      19.06,    21.23,    21.50,    14.60,    18.92
      157.0,      19.04,    21.21,    21.47,    14.58,    18.88
      158.0,      19.01,    21.18,    21.45,    14.57,    18.83
      159.0,      18.98,    21.16,    21.43,    14.55,    18.79
      160.0,      18.95,    21.14,    21.41,    14.53,    18.74
      161.0,      18.93,    21.11,    21.38,    14.51,    18.70
      162.0,      18.90,    21.09,    21.36,    14.50,    18.66
      163.0,      18.88,    21.07,    21.34,    14.48,    18.62
      164.0,      18.85,    21.04,    21.32,    14.46,    18.58
      165.0,      18.82,    21.02,    21.29,    14.45,    18.54
      166.0,      18.80,    21.00,    21.27,    14.43,    18.50
      167.0,      18.77,    20.97,    21.25,    14.41,    18.45
      168.0,      18.75,    20.95,    21.23,    14.40,    18.42
      169.0,      18.72,    20.93,    21.20,    14.38,    18.38
      170.0,      18.70,    20.90,    21.18,    14.36,    18.34
      171.0,      18.67,    20.88,    21.16,    14.35,    18.30
      172.0,      18.65,    20.86,    21.14,    14.33,    18.26
      173.0,      18.62,    20.84,    21.12,    14.32,    18.22
      174.0,      18.60,    20.81,    21.10,    14.30,    18.18
      175.0,      18.57,    20.79,    21.07,    14.28,    18.15
      176.0,      18.55,    20.77,    21.05,    14.27,    18.11
      177.0,      18.53,    20.75,    21.03,    14.25,    18.07
      178.0,      18.50,    20.72,    21.01,    14.24,    18.04
      179.0,      18.48,    20.70,    20.99,    14.22,    18.00
      180.0,      18.45,    20.68,    20.97,    14.20,    17.97
      181.0,      18.43,    20.66,    20.94,    14.19,    17.93
      182.0,      18.41,    20.63,    20.92,    14.17,    17.90
      183.0,      18.38,    20.61,    20.90,    14.16,    17.86
      184.0,      18.36,    20.59,    20.88,    14.14,    17.83
      185.0,      18.34,    20.57,    20.86,    14.13,    17.79
      186.0,      18.31,    20.55,    20.84,    14.11,    17.76
      187.0,      18.29,    20.52,    20.82,    14.10,    17.73
      188.0,      18.27,    20.50,    20.79,    14.08,    17.69
      189.0,      18.25,    20.48,    20.77,    14.07,    17.66
      190.0,      18.22,    20.46,    20.75,    14.05,    17.63
      191.0,      18.20,    20.44,    20.73,    14.04,    17.59
      192.0,      18.18,    20.42,    20.71,    14.02,    17.56
      193.0,      18.15,    20.39,    20.69,    14.01,    17.53
      194.0,      18.13,    20.37,    20.67,    13.99,    17.50
      195.0,      18.11,    20.35,    20.65,    13.98,    17.47
      196.0,      18.09,    20.33,    20.63,    13.96,    17.44
      197.0,      18.07,    20.31,    20.60,    13.95,    17.40
      198.0,      18.04,    20.29,    20.58,    13.93,    17.37
      199.0,      18.02,    20.26,    20.56,    13.92,    17.34
      200.0,      18.00,    20.24,    20.54,    13.90,    17.31
      201.0,      17.98,    20.22,    20.52,    13.89,    17.28
      202.0,      17.96,    20.20,    20.50,    13.88,    17.25
      203.0,      17.94,    20.18,    20.48,    13.86,    17.22
      204.0,      17.91,    20.16,    20.46,    13.85,    17.19
      205.0,      17.89,    20.14,    20.44,    13.83,    17.17
      206.0,      17.87,    20.12,    20.42,    13.82,    17.14
      207.0,      17.85,    20.09,    20.40,    13.80,    17.11
      208.0,      17.83,    20.07,    20.38,    13.79,    17.08
      209.0,      17.81,    20.05,    20.36,    13.77,    17.05
      210.0,      17.79,    20.03,    20.34,    13.76,    17.02
      211.0,      17.77,    20.01,    20.32,    13.75,    16.99
      212.0,      17.75,    19.99,    20.29,    13.73,    16.97
      213.0,      17.72,    19.97,    20.27,    13.72,    16.94
      214.0,      17.70,    19.95,    20.25,    13.70,    16.91
      215.0,      17.68,    19.93,    20.23,    13.69,    16.88
      216.0,      17.66,    19.91,    20.21,    13.68,    16.86
      217.0,      17.64,    19.88,    20.19,    13.66,    16.83
      218.0,      17.62,    19.86,    20.17,    13.65,    16.80
      219.0,      17.60,    19.84,    20.15,    13.63,    16.78
      220.0,      17.58,    19.82,    20.13,    13.62,    16.75
      221.0,      17.56,    19.80,    20.11,    13.61,    16.72
      222.0,      17.54,    19.78,    20.09,    13.59,    16.70
      223.0,      17.52,    19.76,    20.07,    13.58,    16.67
      224.0,      17.50,    19.74,    20.05,    13.56,    16.65
      225.0,      17.48,    19.72,    20.03,    13.55,    16.62
      226.0,      17.46,    19.70,    20.01,    13.54,    16.60
      227.0,      17.44,    19.68,    19.99,    13.52,    16.57
      228.0,      17.42,    19.66,    19.97,    13.51,    16.54
      229.0,      17.40,    19.64,    19.95,    13.50,    16.52
      230.0,      17.38,    19.62,    19.93,    13.48,    16.49
      231.0,      17.36,    19.59,    19.91,    13.47,    16.47
      232.0,      17.34,    19.57,    19.89,    13.45,    16.45
      233.0,      17.32,    19.55,    19.87,    13.44,    16.42
      234.0,      17.30,    19.53,    19.85,    13.43,    16.40
      235.0,      17.28,    19.51,    19.83,    13.41,    16.37
      236.0,      17.26,    19.49,    19.81,    13.40,    16.35
      237.0,      17.24,    19.47,    19.79,    13.39,    16.32
      238.0,      17.22,    19.45,    19.77,    13.37,    16.30
      239.0,      17.20,    19.43,    19.75,    13.36,    16.28
      240.0,      17.19,    19.41,    19.73,    13.35,    16.25
      241.0,      17.17,    19.39,    19.71,    13.33,    16.23
      242.0,      17.15,    19.37,    19.69,    13.32,    16.21
      243.0,      17.13,    19.35,    19.67,    13.31,    16.18
      244.0,      17.11,    19.33,    19.65,    13.29,    16.16
      245.0,      17.09,    19.31,    19.63,    13.28,    16.14
      246.0,      17.07,    19.29,    19.61,    13.27,    16.11
      247.0,      17.05,    19.27,    19.59,    13.25,    16.09
      248.0,      17.03,    19.25,    19.57,    13.24,    16.07
      249.0,      17.01,    19.23,    19.55,    13.23,    16.04
      250.0,      16.99,    19.21,    19.54,    13.21,    16.02
      251.0,      16.98,    19.19,    19.52,    13.20,    16.00
      252.0,      16.96,    19.17,    19.50,    13.19,    15.98
      253.0,      16.94,    19.15,    19.48,    13.17,    15.95
      254.0,      16.92,    19.13,    19.46,    13.16,    15.93
      255.0,      16.90,    19.11,    19.44,    13.15,    15.91
      256.0,      16.88,    19.09,    19.42,    13.13,    15.89
      257.0,      16.86,    19.07,    19.40,    13.12,    15.87
      258.0,      16.85,    19.05,    19.38,    13.11,    15.84
      259.0,      16.83,    19.03,    19.36,    13.09,    15.82
      260.0,      16.81,    19.01,    19.34,    13.08,    15.80
      261.0,      16.79,    18.99,    19.32,    13.07,    15.78
      262.0,      16.77,    18.97,    19.30,    13.05,    15.76
      263.0,      16.75,    18.95,    19.28,    13.04,    15.74
      264.0,      16.73,    18.93,    19.26,    13.03,    15.72
      265.0,      16.72,    18.91,    19.24,    13.01,    15.69
      266.0,      16.70,    18.89,    19.22,    13.00,    15.67
      267.0,      16.68,    18.87,    19.21,    12.99,    15.65
      268.0,      16.66,    18.85,    19.19,    12.98,    15.63
      269.0,      16.64,    18.83,    19.17,    12.96,    15.61
      270.0,      16.63,    18.81,    19.15,    12.95,    15.59
      271.0,      16.61,    18.79,    19.13,    12.94,    15.57
      272.0,      16.59,    18.77,    19.11,    12.92,    15.55
      273.0,      16.57,    18.75,    19.09,    12.91,    15.53
      274.0,      16.55,    18.74,    19.07,    12.90,    15.51
      275.0,      16.53,    18.72,    19.05,    12.88,    15.49
      276.0,      16.52,    18.70,    19.03,    12.87,    15.47
      277.0,      16.50,    18.68,    19.01,    12.86,    15.45
      278.0,      16.48,    18.66,    19.00,    12.85,    15.43
      279.0,      16.46,    18.64,    18.98,    12.83,    15.41
      280.0,      16.45,    18.62,    18.96,    12.82,    15.39
      281.0,      16.43,    18.60,    18.94,    12.81,    15.37
      282.0,      16.41,    18.58,    18.92,    12.79,    15.35
      283.0,      16.39,    18.56,    18.90,    12.78,    15.33
      284.0,      16.37,    18.54,    18.88,    12.77,    15.31
      285.0,      16.36,    18.52,    18.86,    12.76,    15.29
      286.0,      16.34,    18.50,    18.84,    12.74,    15.27
      287.0,      16.32,    18.48,    18.82,    12.73,    15.25
      288.0,      16.30,    18.46,    18.81,    12.72,    15.23
      289.0,      16.29,    18.44,    18.79,    12.71,    15.21
      290.0,      16.27,    18.43,    18.77,    12.69,    15.19
      291.0,      16.25,    18.41,    18.75,    12.68,    15.17
      292.0,      16.23,    18.39,    18.73,    12.67,    15.15
      293.0,      16.22,    18.37,    18.71,    12.65,    15.13
      294.0,      16.20,    18.35,    18.69,    12.64,    15.11
      295.0,      16.18,    18.33,    18.67,    12.63,    15.09
      296.0,      16.16,    18.31,    18.66,    12.62,    15.07
      297.0,      16.15,    18.29,    18.64,    12.60,    15.05
      298.0,      16.13,    18.27,    18.62,    12.59,    15.03
      299.0,      16.11,    18.25,    18.60,    12.58,    15.02
      300.0,      16.09,    18.23,    18.58,    12.57,    15.00
      301.0,      16.08,    18.22,    18.56,    12.55,    14.98
      302.0,      16.06,    18.20,    18.54,    12.54,    14.96
      303.0,      16.04,    18.18,    18.53,    12.53,    14.94
      304.0,      16.03,    18.16,    18.51,    12.52,    14.92
      305.0,      16.01,    18.14,    18.49,    12.50,    14.90
      306.0,      15.99,    18.12,    18.47,    12.49,    14.88
      307.0,      15.97,    18.10,    18.45,    12.48,    14.87
      308.0,      15.96,    18.08,    18.43,    12.47,    14.85
      309.0,      15.94,    18.06,    18.42,    12.45,    14.83
      310.0,      15.92,    18.05,    18.40,    12.44,    14.81
