Radius (km), Mean (m/s), NE (m/s), SE (m/s), SW (m/s), NW (m/s)
        0.0,       0.00,     0.00,     0.00,     0.00,     0.00
        1.0,       1.51,     1.41,     1.52,     1.61,     1.50
        2.0,       2.44,     2.34,     2.46,     2.55,     2.44
        3.0,       3.24,     3.14,     3.25,     3.33,     3.23
        4.0,       3.95,     3.87,     3.96,     4.02,     3.95
        5.0,       4.61,     4.55,     4.62,     4.66,     4.61
        6.0,       5.23,     5.19,     5.24,     5.25,     5.23
        7.0,       5.82,     5.80,     5.83,     5.82,     5.83
        8.0,       6.38,     6.40,     6.39,     6.35,     6.40
        9.0,       6.93,     6.97,     6.93,     6.86,     6.94
       10.0,       7.45,     7.52,     7.46,     7.36,     7.47
       11.0,       7.96,     8.06,     7.96,     7.83,     7.98
       12.0,       8.45,     8.59,     8.45,     8.30,     8.48
       13.0,       8.94,     9.10,     8.93,     8.74,     8.97
       14.0,       9.41,     9.61,     9.40,     9.18,     9.44
       15.0,       9.87,    10.10,     9.86,     9.61,     9.91
       16.0,      10.32,    10.58,    10.31,    10.03,    10.36
       17.0,      10.76,    11.06,    10.75,    10.43,    10.81
       18.0,      11.20,    11.53,    11.18,    10.83,    11.25
       19.0,      11.63,    11.99,    11.61,    11.23,    11.68
       20.0,      12.05,    12.45,    12.03,    11.61,    12.11
       21.0,      12.46,    12.90,    12.44,    11.99,    12.53
       22.0,      12.87,    13.34,    12.84,    12.37,    12.94
       23.0,      13.27,    13.78,    13.24,    12.73,    13.35
       24.0,      13.67,    14.21,    13.64,    13.09,    13.75
       25.0,      14.07,    14.64,    14.03,    13.45,    14.14
       26.0,      14.45,    15.06,    14.41,    13.80,    14.54
       27.0,      14.84,    15.48,    14.79,    14.15,    14.92
       28.0,      15.22,    15.89,    15.17,    14.49,    15.31
       29.0,      15.59,    16.31,    15.54,    14.83,    15.68
       30.0,      15.96,    16.71,    15.91,    15.17,    16.06
       31.0,      16.33,    17.12,    16.27,    15.50,    16.43
       32.0,      16.69,    17.51,    16.63,    15.83,    16.80
       33.0,      17.05,    17.91,    16.99,    16.15,    17.16
       34.0,      17.41,    18.30,    17.34,    16.47,    17.52
       35.0,      17.76,    18.69,    17.69,    16.79,    17.88
       36.0,      18.11,    19.08,    18.04,    17.10,    18.23
       37.0,      18.46,    19.46,    18.38,    17.41,    18.58
       38.0,      18.81,    19.84,    18.72,    17.72,    18.93
       39.0,      19.15,    20.22,    19.06,    18.03,    19.28
       40.0,      19.49,    20.60,    19.40,    18.33,    19.62
       41.0,      19.82,    20.97,    19.73,    18.63,    19.96
       42.0,      20.16,    21.34,    20.06,    18.93,    20.30
       43.0,      20.49,    21.71,    20.39,    19.23,    20.63
       44.0,      20.82,    22.07,    20.72,    19.52,    20.97
       45.0,      21.15,    22.44,    21.04,    19.81,    21.30
       46.0,      21.47,    22.80,    21.36,    20.10,    21.63
       47.0,      21.79,    23.16,    21.68,    20.39,    21.95
       48.0,      22.12,    23.52,    22.00,    20.67,    22.28
       49.0,      22.43,    23.87,    22.31,    20.95,    22.60
       50.0,      22.75,    24.22,    22.63,    21.23,    22.92
       51.0,      23.07,    24.57,    22.94,    21.51,    23.24
       52.0,      23.38,    24.92,    23.25,    21.79,    23.56
       53.0,      23.69,    25.27,    23.55,    22.06,    23.87
       54.0,      24.00,    25.62,    23.86,    22.34,    24.18
       55.0,      24.31,    25.96,    24.16,    22.61,    24.49
       56.0,      24.61,    26.30,    24.47,    22.88,    24.80
       57.0,      24.92,    26.64,    24.77,    23.15,    25.11
       58.0,      25.22,    26.98,    25.07,    23.41,    25.42
       59.0,      25.52,    27.32,    25.36,    23.68,    25.72
       60.0,      25.83,    27.67,    25.67,    23.95,    26.03
       61.0,      26.16,    28.06,    25.99,    24.23,    26.35
       62.0,      26.53,    28.50,    26.34,    24.54,    26.72
       63.0,      26.94,    29.01,    26.73,    24.88,    27.16
       64.0,      27.42,    29.59,    27.15,    25.25,    27.67
       65.0,      27.93,    30.22,    27.60,    25.64,    28.26
       66.0,      28.47,    30.87,    28.06,    26.05,    28.88
       67.0,      28.99,    31.50,    28.50,    26.44,    29.51
       68.0,      29.46,    32.05,    28.90,    26.80,    30.07
       69.0,      29.84,    32.48,    29.24,    27.11,    30.53
       70.0,      30.11,    32.76,    29.50,    27.34,    30.83
       71.0,      30.25,    32.87,    29.67,    27.50,    30.95
       72.0,      30.25,    32.81,    29.75,    27.57,    30.87
       73.0,      30.13,    32.60,    29.75,    27.58,    30.60
       74.0,      29.91,    32.26,    29.68,    27.52,    30.18
       75.0,      29.61,    31.84,    29.57,    27.41,    29.64
       76.0,      29.28,    31.38,    29.42,    27.28,    29.02
       77.0,      28.92,    30.90,    29.27,    27.14,    28.38
       78.0,      28.57,    30.43,    29.11,    27.00,    27.74
       79.0,      28.24,    29.99,    28.97,    26.86,    27.13
       80.0,      27.92,    29.57,    28.83,    26.74,    26.56
       81.0,      27.63,    29.17,    28.70,    26.62,    26.02
       82.0,      27.34,    28.79,    28.58,    26.51,    25.51
       83.0,      27.07,    28.42,    28.45,    26.40,    25.02
       84.0,      26.81,    28.07,    28.34,    26.29,    24.54
       85.0,      26.56,    27.73,    28.22,    26.18,    24.09
       86.0,      26.31,    27.41,    28.11,    26.08,    23.66
       87.0,      26.08,    27.09,    28.00,    25.98,    23.24
       88.0,      25.85,    26.79,    27.90,    25.89,    22.83
       89.0,      25.63,    26.50,    27.80,    25.79,    22.45
       90.0,      25.42,    26.22,    27.70,    25.70,    22.07
       91.0,      25.22,    25.95,    27.60,    25.61,    21.71
       92.0,      25.02,    25.69,    27.51,    25.53,    21.37
       93.0,      24.83,    25.44,    27.42,    25.44,    21.03
       94.0,      24.65,    25.19,    27.33,    25.36,    20.71
       95.0,      24.47,    24.96,    27.24,    25.28,    20.41
       96.0,      24.30,    24.73,    27.15,    25.20,    20.11
       97.0,      24.13,    24.52,    27.07,    25.13,    19.82
       98.0,      23.97,    24.31,    26.99,    25.05,    19.55
       99.0,      23.82,    24.11,    26.91,    24.98,    19.29
      100.0,      23.67,    23.91,    26.83,    24.91,    19.03
      101.0,      23.53,    23.72,    26.76,    24.84,    18.79
      102.0,      23.39,    23.54,    26.69,    24.77,    18.55
      103.0,      23.25,    23.37,    26.61,    24.70,    18.32
      104.0,      23.12,    23.20,    26.54,    24.64,    18.10
      105.0,      22.99,    23.04,    26.47,    24.57,    17.89
      106.0,      22.87,    22.88,    26.41,    24.51,    17.69
      107.0,      22.75,    22.73,    26.34,    24.45,    17.50
      108.0,      22.64,    22.58,    26.28,    24.39,    17.31
      109.0,      22.53,    22.44,    26.21,    24.33,    17.13
      110.0,      22.42,    22.30,    26.15,    24.27,    16.95
      111.0,      22.32,    22.17,    26.09,    24.22,    16.78
      112.0,      22.21,    22.04,    26.03,    24.16,    16.62
      113.0,      22.12,    21.92,    25.97,    24.11,    16.46
      114.0,      22.02,    21.80,    25.91,    24.05,    16.31
      115.0,      21.93,    21.68,    25.86,    24.00,    16.17
      116.0,      21.84,    21.57,    25.80,    23.95,    16.03
      117.0,      21.75,    21.47,    25.75,    23.90,    15.89
      118.0,      21.67,    21.36,    25.70,    23.85,    15.76
      119.0,      21.58,    21.26,    25.64,    23.80,    15.64
      120.0,      21.50,    21.16,    25.59,    23.75,    15.52
      121.0,      21.43,    21.07,    25.54,    23.70,    15.40
      122.0,      21.35,    20.98,    25.49,    23.66,    15.29
      123.0,      21.28,    20.89,    25.44,    23.61,    15.18
      124.0,      21.21,    20.80,    25.39,    23.57,    15.07
      125.0,      21.14,    20.72,    25.34,    23.52,    14.97
      126.0,      21.07,    20.64,    25.30,    23.48,    14.87
      127.0,      21.00,    20.56,    25.25,    23.43,    14.78
      128.0,      20.94,    20.48,    25.20,    23.39,    14.69
      129.0,      20.88,    20.41,    25.16,    23.35,    14.60
      130.0,      20.82,    20.34,    25.11,    23.30,    14.51
      131.0,      20.76,    20.27,    25.07,    23.26,    14.43
      132.0,      20.70,    20.20,    25.03,    23.22,    14.35
      133.0,      20.64,    20.13,    24.98,    23.18,    14.27
      134.0,      20.59,    20.07,    24.94,    23.14,    14.20
      135.0,      20.53,    20.01,    24.90,    23.10,    14.12
      136.0,      20.48,    19.95,    24.86,    23.06,    14.06
      137.0,      20.43,    19.89,    24.81,    23.02,    13.99
      138.0,      20.38,    19.83,    24.77,    22.99,    13.92
      139.0,      20.33,    19.77,    24.73,    22.95,    13.86
      140.0,      20.28,    19.72,    24.69,    22.91,    13.80
      141.0,      20.23,    19.67,    24.65,    22.87,    13.74
      142.0,      20.19,    19.62,    24.61,    22.83,    13.68
      143.0,      20.14,    19.57,    24.58,    22.80,    13.62
      144.0,      20.10,    19.52,    24.54,    22.76,    13.57
      145.0,      20.05,    19.47,    24.50,    22.73,    13.52
      146.0,      20.01,    19.42,    24.46,    22.69,    13.47
      147.0,      19.97,    19.38,    24.42,    22.65,    13.42
      148.0,      19.93,    19.33,    24.39,    22.62,    13.37
      149.0,      19.89,    19.29,    24.35,    22.58,    13.32
      150.0,      19.85,    19.25,    24.31,    22.55,    13.28
      151.0,      19.81,    19.21,    24.28,    22.52,    13.23
      152.0,      19.77,    19.16,    24.24,    22.48,    13.19
      153.0,      19.73,    19.13,    24.20,    22.45,    13.15
      154.0,      19.69,    19.09,    24.17,    22.41,    13.11
      155.0,      19.66,    19.05,    24.13,    22.38,    13.07
      156.0,      19.62,    19.01,    24.10,    22.35,    13.03
      157.0,      19.59,    18.97,    24.06,    22.31,    13.00
      158.0,      19.55,    18.94,    24.03,    22.28,    12.96
      159.0,      19.52,    18.90,    23.99,    22.25,    12.92
      160.0,      19.48,    18.87,    23.96,    22.22,    12.89
      161.0,      19.45,    18.84,    23.93,    22.18,    12.86
      162.0,      19.42,    18.80,    23.89,    22.15,    12.82
      163.0,      19.39,    18.77,    23.86,    22.12,    12.79
      164.0,      19.35,    18.74,    23.82,    22.09,    12.76
      165.0,      19.32,    18.71,    23.79,    22.06,    12.73
      166.0,      19.29,    18.68,    23.76,    22.02,    12.70
      167.0,      19.26,    18.65,    23.72,    21.99,    12.67
      168.0,      19.23,    18.62,    23.69,    21.96,    12.65
      169.0,      19.20,    18.59,    23.66,    21.93,    12.62
      170.0,      19.17,    18.56,    23.63,    21.90,    12.59
      171.0,      19.14,    18.53,    23.59,    21.87,    12.56
      172.0,      19.11,    18.50,    23.56,    21.84,    12.54
      173.0,      19.08,    18.47,    23.53,    21.81,    12.51
      174.0,      19.05,    18.45,    23.50,    21.78,    12.49
      175.0,      19.02,    18.42,    23.47,    21.75,    12.46
      176.0,      19.00,    18.39,    23.43,    21.72,    12.44
      177.0,      18.97,    18.37,    23.40,    21.69,    12.42
      178.0,      18.94,    18.34,    23.37,    21.66,    12.39
      179.0,      18.91,    18.31,    23.34,    21.63,    12.37
      180.0,      18.89,    18.29,    23.31,    21.60,    12.35
      181.0,      18.86,    18.26,    23.28,    21.57,    12.33
      182.0,      18.83,    18.24,    23.25,    21.54,    12.31
      183.0,      18.81,    18.22,    23.21,    21.51,    12.29
      184.0,      18.78,    18.19,    23.18,    21.48,    12.27
      185.0,      18.75,    18.17,    23.15,    21.45,    12.25
      186.0,      18.73,    18.14,    23.12,    21.42,    12.23
      187.0,      18.70,    18.12,    23.09,    21.39,    12.21
      188.0,      18.68,    18.10,    23.06,    21.36,    12.19
      189.0,      18.65,    18.07,    23.03,    21.33,    12.17
      190.0,      18.63,    18.05,    23.00,    21.30,    12.15
      191.0,      18.60,    18.03,    22.97,    21.28,    12.13
      192.0,      18.58,    18.01,    22.94,    21.25,    12.11
      193.0,      18.55,    17.98,    22.91,    21.22,    12.10
      194.0,      18.53,    17.96,    22.88,    21.19,    12.08
      195.0,      18.50,    17.94,    22.85,    21.16,    12.06
      196.0,      18.48,    17.92,    22.82,    21.13,    12.04
      197.0,      18.45,    17.90,    22.79,    21.10,    12.03
      198.0,      18.43,    17.88,    22.76,    21.08,    12.01
      199.0,      18.41,    17.86,    22.73,    21.05,    11.99
      200.0,      18.38,    17.83,    22.70,    21.02,    11.98
      201.0,      18.36,    17.81,    22.67,    20.99,    11.96
      202.0,      18.34,    17.79,    22.64,    20.96,    11.95
      203.0,      18.31,    17.77,    22.61,    20.93,    11.93
      204.0,      18.29,    17.75,    22.58,    20.91,    11.91
      205.0,      18.27,    17.73,    22.55,    20.88,    11.90
      206.0,      18.24,    17.71,    22.53,    20.85,    11.88
      207.0,      18.22,    17.69,    22.50,    20.82,    11.87
      208.0,      18.20,    17.67,    22.47,    20.80,    11.85
      209.0,      18.17,    17.65,    22.44,    20.77,    11.84
      210.0,      18.15,    17.63,    22.41,    20.74,    11.82
      211.0,      18.13,    17.61,    22.38,    20.71,    11.81
      212.0,      18.11,    17.59,    22.35,    20.69,    11.79
      213.0,      18.08,    17.57,    22.32,    20.66,    11.78
      214.0,      18.06,    17.55,    22.29,    20.63,    11.77
      215.0,      18.04,    17.53,    22.27,    20.60,    11.75
      216.0,      18.02,    17.52,    22.24,    20.58,    11.74
      217.0,      17.99,    17.50,    22.21,    20.55,    11.72
      218.0,      17.97,    17.48,    22.18,    20.52,    11.71
      219.0,      17.95,    17.46,    22.15,    20.50,    11.70
      220.0,      17.93,    17.44,    22.12,    20.47,    11.68
      221.0,      17.91,    17.42,    22.09,    20.44,    11.67
      222.0,      17.88,    17.40,    22.07,    20.41,    11.66
      223.0,      17.86,    17.38,    22.04,    20.39,    11.64
      224.0,      17.84,    17.37,    22.01,    20.36,    11.63
      225.0,      17.82,    17.35,    21.98,    20.33,    11.62
      226.0,      17.80,    17.33,    21.95,    20.31,    11.60
      227.0,      17.78,    17.31,    21.92,    20.28,    11.59
      228.0,      17.75,    17.29,    21.90,    20.25,    11.58
      229.0,      17.73,    17.27,    21.87,    20.23,    11.56
      230.0,      17.71,    17.26,    21.84,    20.20,    11.55
      231.0,      17.69,    17.24,    21.81,    20.17,    11.54
      232.0,      17.67,    17.22,    21.79,    20.15,    11.53
      233.0,      17.65,    17.20,    21.76,    20.12,    11.51
      234.0,      17.63,    17.18,    21.73,    20.09,    11.50
      235.0,      17.61,    17.16,    21.70,    20.07,    11.49
      236.0,      17.58,    17.15,    21.67,    20.04,    11.48
      237.0,      17.56,    17.13,    21.65,    20.02,    11.46
      238.0,      17.54,    17.11,    21.62,    19.99,    11.45
      239.0,      17.52,    17.09,    21.59,    19.96,    11.44
      240.0,      17.50,    17.08,    21.56,    19.94,    11.43
      241.0,      17.48,    17.06,    21.54,    19.91,    11.41
      242.0,      17.46,    17.04,    21.51,    19.88,    11.40
      243.0,      17.44,    17.02,    21.48,    19.86,    11.39
      244.0,      17.42,    17.01,    21.45,    19.83,    11.38
      245.0,      17.40,    16.99,    21.43,    19.81,    11.37
      246.0,      17.38,    16.97,    21.40,    19.78,    11.35
      247.0,      17.36,    16.95,    21.37,    19.75,    11.34
      248.0,      17.33,    16.94,    21.35,    19.73,    11.33
      249.0,      17.31,    16.92,    21.32,    19.70,    11.32
      250.0,      17.29,    16.90,    21.29,    19.68,    11.31
      251.0,      17.27,    16.88,    21.26,    19.65,    11.29
      252.0,      17.25,    16.87,    21.24,    19.63,    11.28
      253.0,      17.23,    16.85,    21.21,    19.60,    11.27
      254.0,      17.21,    16.83,    21.18,    19.57,    11.26
      255.0,      17.19,    16.81,    21.16,    19.55,    11.25
      256.0,      17.17,    16.80,    21.13,    19.52,    11.23
      257.0,      17.15,    16.78,    21.10,    19.50,    11.22
      258.0,      17.13,    16.76,    21.08,    19.47,    11.21
      259.0,      17.11,    16.75,    21.05,    19.45,    11.20
      260.0,      17.09,    16.73,    21.02,    19.42,    11.19
      261.0,      17.07,    16.71,    21.00,    19.40,    11.18
      262.0,      17.05,    16.70,    20.97,    19.37,    11.17
      263.0,      17.03,    16.68,    20.94,    19.34,    11.15
      264.0,      17.01,    16.66,    20.92,    19.32,    11.14
      265.0,      16.99,    16.64,    20.89,    19.29,    11.13
      266.0,      16.97,    16.63,    20.86,    19.27,    11.12
      267.0,      16.95,    16.61,    20.84,    19.24,    11.11
      268.0,      16.93,    16.59,    20.81,    19.22,    11.10
      269.0,      16.91,    16.58,    20.78,    19.19,    11.08
      270.0,      16.89,    16.56,    20.76,    19.17,    11.07
      271.0,      16.87,    16.54,    20.73,    19.14,    11.06
      272.0,      16.85,    16.53,    20.70,    19.12,    11.05
      273.0,      16.83,    16.51,    20.68,    19.09,    11.04
      274.0,      16.81,    16.49,    20.65,    19.07,    11.03
      275.0,      16.79,    16.48,    20.63,    19.04,    11.02
      276.0,      16.77,    16.46,    20.60,    19.02,    11.01
      277.0,      16.75,    16.44,    20.57,    18.99,    10.99
      278.0,      16.73,    16.43,    20.55,    18.97,    10.98
      279.0,      16.71,    16.41,    20.52,    18.94,    10.97
      280.0,      16.69,    16.39,    20.49,    18.92,    10.96
      281.0,      16.67,    16.38,    20.47,    18.89,    10.95
      282.0,      16.65,    16.36,    20.44,    18.87,    10.94
      283.0,      16.63,    16.34,    20.42,    18.85,    10.93
      284.0,      16.61,    16.33,    20.39,    18.82,    10.92
      285.0,      16.59,    16.31,    20.37,    18.80,    10.91
      286.0,      16.58,    16.30,    20.34,    18.77,    10.89
      287.0,      16.56,    16.28,    20.31,    18.75,    10.88
      288.0,      16.54,    16.26,    20.29,    18.72,    10.87
      289.0,      16.52,    16.25,    20.26,    18.70,    10.86
      290.0,      16.50,    16.23,    20.24,    18.67,    10.85
      291.0,      16.48,    16.21,    20.21,    18.65,    10.84
      292.0,      16.46,    16.20,    20.19,    18.63,    10.83
      293.0,      16.44,    16.18,    20.16,    18.60,    10.82
      294.0,      16.42,    16.16,    20.13,    18.58,    10.81
      295.0,      16.40,    16.15,    20.11,    18.55,    10.80
      296.0,      16.38,    16.13,    20.08,    18.53,    10.79
      297.0,      16.36,    16.12,    20.06,    18.50,    10.77
      298.0,      16.34,    16.10,    20.03,    18.48,    10.76
      299.0,      16.32,    16.08,    20.01,    18.46,    10.75
      300.0,      16.31,    16.07,    19.98,    18.43,    10.74
      301.0,      16.29,    16.05,    19.96,    18.41,    10.73
      302.0,      16.27,    16.04,    19.93,    18.38,    10.72
      303.0,      16.25,    16.02,    19.91,    18.36,    10.71
      304.0,      16.23,    16.00,    19.88,    18.34,    10.70
      305.0,      16.21,    15.99,    19.86,    18.31,    10.69
      306.0,      16.19,    15.97,    19.83,    18.29,    10.68
      307.0,      16.17,    15.96,    19.80,    18.26,    10.67
      308.0,      16.15,    15.94,    19.78,    18.24,    10.66
      309.0,      16.13,    15.92,    19.75,    18.22,    10.65
      310.0,      16.12,    15.91,    19.73,    18.19,    10.63
