Radius (km), Mean (m/s), NE (m/s), SE (m/s), SW (m/s), NW (m/s)
        0.0,      16.92,    17.88,    15.96,    15.96,    17.86
        1.0,      24.60,    25.67,    23.43,    23.57,    25.72
        2.0,      30.81,    32.11,    29.33,    29.59,    32.22
        3.0,      35.74,    37.24,    33.97,    34.33,    37.40
        4.0,      39.35,    41.02,    37.37,    37.80,    41.22
        5.0,      41.73,    43.51,    39.62,    40.06,    43.72
        6.0,      43.01,    44.86,    40.85,    41.26,    45.06
        7.0,      43.40,    45.29,    41.28,    41.60,    45.45
        8.0,      43.17,    45.06,    41.13,    41.33,    45.16
        9.0,      42.54,    44.43,    40.62,    40.67,    44.45
       10.0,      41.73,    43.60,    39.95,    39.82,    43.54
       11.0,      40.86,    42.72,    39.22,    38.92,    42.57
       12.0,      40.01,    41.86,    38.51,    38.05,    41.62
       13.0,      39.21,    41.04,    37.84,    37.21,    40.73
       14.0,      38.44,    40.26,    37.19,    36.42,    39.88
       15.0,      37.70,    39.51,    36.57,    35.66,    39.06
       16.0,      36.99,    38.79,    35.97,    34.93,    38.27
       17.0,      36.30,    38.09,    35.39,    34.23,    37.51
       18.0,      35.64,    37.42,    34.83,    33.55,    36.78
       19.0,      35.01,    36.77,    34.28,    32.90,    36.08
       20.0,      34.40,    36.15,    33.76,    32.28,    35.41
       21.0,      33.81,    35.55,    33.26,    31.68,    34.76
       22.0,      33.24,    34.97,    32.77,    31.10,    34.14
       23.0,      32.70,    34.41,    32.29,    30.54,    33.54
       24.0,      32.17,    33.87,    31.84,    30.01,    32.96
       25.0,      31.66,    33.36,    31.40,    29.49,    32.40
       26.0,      31.17,    32.86,    30.97,    29.00,    31.87
       27.0,      30.70,    32.38,    30.56,    28.52,    31.35
       28.0,      30.25,    31.91,    30.16,    28.06,    30.86
       29.0,      29.81,    31.46,    29.78,    27.62,    30.38
       30.0,      29.39,    31.03,    29.41,    27.19,    29.93
       31.0,      28.98,    30.62,    29.05,    26.79,    29.48
       32.0,      28.59,    30.22,    28.70,    26.39,    29.06
       33.0,      28.22,    29.83,    28.37,    26.01,    28.65
       34.0,      27.85,    29.46,    28.04,    25.65,    28.26
       35.0,      27.50,    29.10,    27.73,    25.30,    27.88
       36.0,      27.16,    28.75,    27.42,    24.96,    27.52
       37.0,      26.84,    28.42,    27.13,    24.64,    27.16
       38.0,      26.52,    28.10,    26.85,    24.32,    26.83
       39.0,      26.22,    27.78,    26.57,    24.02,    26.50
       40.0,      25.93,    27.48,    26.31,    23.73,    26.19
       41.0,      25.65,    27.20,    26.05,    23.45,    25.89
       42.0,      25.37,    26.92,    25.80,    23.18,    25.60
       43.0,      25.11,    26.65,    25.56,    22.92,    25.32
       44.0,      24.86,    26.39,    25.33,    22.67,    25.05
       45.0,      24.62,    26.13,    25.11,    22.43,    24.79
       46.0,      24.38,    25.89,    24.89,    22.20,    24.54
       47.0,      24.15,    25.66,    24.68,    21.98,    24.30
       48.0,      23.93,    25.43,    24.48,    21.76,    24.06
       49.0,      23.72,    25.21,    24.28,    21.55,    23.84
       50.0,      23.52,    25.00,    24.09,    21.35,    23.62
       51.0,      23.32,    24.80,    23.90,    21.16,    23.41
       52.0,      23.13,    24.60,    23.72,    20.98,    23.21
       53.0,      22.95,    24.41,    23.55,    20.80,    23.02
       54.0,      22.77,    24.23,    23.38,    20.62,    22.83
       55.0,      22.60,    24.05,    23.22,    20.46,    22.65
       56.0,      22.43,    23.88,    23.06,    20.30,    22.48
       57.0,      22.27,    23.72,    22.91,    20.14,    22.31
       58.0,      22.11,    23.56,    22.76,    19.99,    22.15
       59.0,      21.96,    23.40,    22.62,    19.85,    21.99
       60.0,      21.82,    23.25,    22.48,    19.71,    21.84
       61.0,      21.68,    23.11,    22.34,    19.57,    21.70
       62.0,      21.54,    22.97,    22.21,    19.44,    21.56
       63.0,      21.41,    22.83,    22.09,    19.32,    21.42
       64.0,      21.29,    22.70,    21.96,    19.20,    21.29
       65.0,      21.16,    22.57,    21.85,    19.08,    21.16
       66.0,      21.05,    22.45,    21.73,    18.97,    21.04
       67.0,      20.93,    22.33,    21.62,    18.86,    20.92
       68.0,      20.82,    22.21,    21.51,    18.75,    20.81
       69.0,      20.71,    22.10,    21.40,    18.65,    20.70
       70.0,      20.61,    21.99,    21.30,    18.55,    20.59
       71.0,      20.51,    21.89,    21.20,    18.45,    20.49
       72.0,      20.41,    21.79,    21.10,    18.36,    20.39
       73.0,      20.32,    21.69,    21.01,    18.27,    20.29
       74.0,      20.22,    21.59,    20.92,    18.19,    20.20
       75.0,      20.13,    21.50,    20.83,    18.10,    20.10
       76.0,      20.05,    21.41,    20.74,    18.02,    20.02
       77.0,      19.96,    21.32,    20.66,    17.94,    19.93
       78.0,      19.88,    21.24,    20.58,    17.87,    19.85
       79.0,      19.80,    21.16,    20.50,    17.79,    19.77
       80.0,      19.73,    21.08,    20.42,    17.72,    19.69
       81.0,      19.65,    21.00,    20.35,    17.65,    19.62
       82.0,      19.58,    20.92,    20.27,    17.58,    19.54
       83.0,      19.51,    20.85,    20.20,    17.52,    19.47
       84.0,      19.44,    20.78,    20.13,    17.46,    19.40
       85.0,      19.38,    20.71,    20.06,    17.39,    19.34
       86.0,      19.31,    20.64,    20.00,    17.33,    19.27
       87.0,      19.25,    20.58,    19.94,    17.28,    19.21
       88.0,      19.19,    20.51,    19.87,    17.22,    19.15
       89.0,      19.13,    20.45,    19.81,    17.17,    19.09
       90.0,      19.07,    20.39,    19.75,    17.11,    19.03
       91.0,      19.02,    20.33,    19.69,    17.06,    18.97
       92.0,      18.96,    20.28,    19.64,    17.01,    18.92
       93.0,      18.91,    20.22,    19.58,    16.96,    18.87
       94.0,      18.86,    20.17,    19.53,    16.91,    18.81
       95.0,      18.80,    20.11,    19.48,    16.87,    18.76
       96.0,      18.76,    20.06,    19.42,    16.82,    18.71
       97.0,      18.71,    20.01,    19.37,    16.78,    18.67
       98.0,      18.66,    19.96,    19.33,    16.74,    18.62
       99.0,      18.61,    19.91,    19.28,    16.69,    18.57
      100.0,      18.57,    19.86,    19.23,    16.65,    18.53
      101.0,      18.53,    19.82,    19.18,    16.61,    18.48
      102.0,      18.48,    19.77,    19.14,    16.57,    18.44
      103.0,      18.44,    19.73,    19.10,    16.54,    18.40
      104.0,      18.40,    19.69,    19.05,    16.50,    18.36
      105.0,      18.36,    19.64,    19.01,    16.46,    18.32
      106.0,      18.32,    19.60,    18.97,    16.43,    18.28
      107.0,      18.28,    19.56,    18.93,    16.39,    18.24
      108.0,      18.24,    19.52,    18.89,    16.36,    18.21
      109.0,      18.21,    19.48,    18.85,    16.33,    18.17
      110.0,      18.17,    19.45,    18.81,    16.29,    18.13
      111.0,      18.14,    19.41,    18.77,    16.26,    18.10
      112.0,      18.10,    19.37,    18.74,    16.23,    18.07
      113.0,      18.07,    19.34,    18.70,    16.20,    18.03
      114.0,      18.03,    19.30,    18.67,    16.17,    18.00
      115.0,      18.00,    19.27,    18.63,    16.14,    17.97
      116.0,      17.97,    19.23,    18.60,    16.11,    17.94
      117.0,      17.94,    19.20,    18.56,    16.08,    17.90
      118.0,      17.91,    19.17,    18.53,    16.05,    17.87
      119.0,      17.88,    19.13,    18.50,    16.03,    17.84
      120.0,      17.85,    19.10,    18.47,    16.00,    17.81
      121.0,      17.82,    19.07,    18.43,    15.97,    17.79
      122.0,      17.79,    19.04,    18.40,    15.95,    17.76
      123.0,      17.76,    19.01,    18.37,    15.92,    17.73
      124.0,      17.73,    18.98,    18.34,    15.90,    17.70
      125.0,      17.70,    18.95,    18.31,    15.87,    17.67
      126.0,      17.68,    18.92,    18.28,    15.85,    17.65
      127.0,      17.65,    18.89,    18.26,    15.82,    17.62
      128.0,      17.62,    18.87,    18.23,    15.80,    17.59
      129.0,      17.60,    18.84,    18.20,    15.78,    17.57
      130.0,      17.57,    18.81,    18.17,    15.75,    17.54
      131.0,      17.54,    18.78,    18.14,    15.73,    17.52
      132.0,      17.52,    18.76,    18.12,    15.71,    17.49
      133.0,      17.49,    18.73,    18.09,    15.69,    17.47
      134.0,      17.47,    18.70,    18.06,    15.67,    17.44
      135.0,      17.45,    18.68,    18.04,    15.64,    17.42
      136.0,      17.42,    18.65,    18.01,    15.62,    17.40
      137.0,      17.40,    18.63,    17.99,    15.60,    17.37
      138.0,      17.37,    18.60,    17.96,    15.58,    17.35
      139.0,      17.35,    18.58,    17.94,    15.56,    17.33
      140.0,      17.33,    18.55,    17.91,    15.54,    17.31
      141.0,      17.30,    18.53,    17.89,    15.52,    17.28
      142.0,      17.28,    18.50,    17.87,    15.50,    17.26
      143.0,      17.26,    18.48,    17.84,    15.48,    17.24
      144.0,      17.24,    18.46,    17.82,    15.46,    17.22
      145.0,      17.22,    18.43,    17.79,    15.44,    17.20
      146.0,      17.19,    18.41,    17.77,    15.42,    17.17
      147.0,      17.17,    18.39,    17.75,    15.40,    17.15
      148.0,      17.15,    18.37,    17.73,    15.38,    17.13
      149.0,      17.13,    18.34,    17.70,    15.36,    17.11
      150.0,      17.11,    18.32,    17.68,    15.35,    17.09
      151.0,      17.09,    18.30,    17.66,    15.33,    17.07
      152.0,      17.07,    18.28,    17.64,    15.31,    17.05
      153.0,      17.05,    18.25,    17.62,    15.29,    17.03
      154.0,      17.03,    18.23,    17.59,    15.27,    17.01
      155.0,      17.01,    18.21,    17.57,    15.25,    16.99
      156.0,      16.99,    18.19,    17.55,    15.24,    16.97
      157.0,      16.97,    18.17,    17.53,    15.22,    16.95
      158.0,      16.95,    18.15,    17.51,    15.20,    16.93
      159.0,      16.93,    18.13,    17.49,    15.18,    16.91
      160.0,      16.91,    18.11,    17.47,    15.17,    16.89
      161.0,      16.89,    18.09,    17.45,    15.15,    16.87
      162.0,      16.87,    18.06,    17.43,    15.13,    16.85
      163.0,      16.85,    18.04,    17.41,    15.11,    16.84
      164.0,      16.83,    18.02,    17.39,    15.10,    16.82
      165.0,      16.81,    18.00,    17.37,    15.08,    16.80
      166.0,      16.79,    17.98,    17.35,    15.06,    16.78
      167.0,      16.77,    17.96,    17.33,    15.05,    16.76
      168.0,      16.76,    17.94,    17.31,    15.03,    16.74
      169.0,      16.74,    17.92,    17.29,    15.01,    16.72
      170.0,      16.72,    17.90,    17.27,    15.00,    16.71
      171.0,      16.70,    17.88,    17.25,    14.98,    16.69
      172.0,      16.68,    17.86,    17.23,    14.97,    16.67
      173.0,      16.66,    17.84,    17.21,    14.95,    16.65
      174.0,      16.65,    17.83,    17.19,    14.93,    16.63
      175.0,      16.63,    17.81,    17.17,    14.92,    16.62
      176.0,      16.61,    17.79,    17.15,    14.90,    16.60
      177.0,      16.59,    17.77,    17.13,    14.88,    16.58
      178.0,      16.57,    17.75,    17.11,    14.87,    16.56
      179.0,      16.56,    17.73,    17.10,    14.85,    16.54
      180.0,      16.54,    17.71,    17.08,    14.84,    16.53
      181.0,      16.52,    17.69,    17.06,    14.82,    16.51
      182.0,      16.50,    17.67,    17.04,    14.81,    16.49
      183.0,      16.48,    17.65,    17.02,    14.79,    16.47
      184.0,      16.47,    17.64,    17.00,    14.77,    16.46
      185.0,      16.45,    17.62,    16.99,    14.76,    16.44
      186.0,      16.43,    17.60,    16.97,    14.74,    16.42
      187.0,      16.42,    17.58,    16.95,    14.73,    16.41
      188.0,      16.40,    17.56,    16.93,    14.71,    16.39
      189.0,      16.38,    17.54,    16.91,    14.70,    16.37
      190.0,      16.36,    17.52,    16.89,    14.68,    16.35
      191.0,      16.35,    17.51,    16.88,    14.67,    16.34
      192.0,      16.33,    17.49,    16.86,    14.65,    16.32
      193.0,      16.31,    17.47,    16.84,    14.64,    16.30
      194.0,      16.30,    17.45,    16.82,    14.62,    16.29
      195.0,      16.28,    17.43,    16.81,    14.61,    16.27
      196.0,      16.26,    17.41,    16.79,    14.59,    16.25
      197.0,      16.24,    17.40,    16.77,    14.57,    16.24
      198.0,      16.23,    17.38,    16.75,    14.56,    16.22
      199.0,      16.21,    17.36,    16.74,    14.54,    16.20
      200.0,      16.19,    17.34,    16.72,    14.53,    16.19
      201.0,      16.18,    17.32,    16.70,    14.51,    16.17
      202.0,      16.16,    17.31,    16.68,    14.50,    16.15
      203.0,      16.14,    17.29,    16.67,    14.49,    16.14
      204.0,      16.13,    17.27,    16.65,    14.47,    16.12
      205.0,      16.11,    17.25,    16.63,    14.46,    16.10
      206.0,      16.09,    17.24,    16.61,    14.44,    16.09
      207.0,      16.08,    17.22,    16.60,    14.43,    16.07
      208.0,      16.06,    17.20,    16.58,    14.41,    16.05
      209.0,      16.04,    17.18,    16.56,    14.40,    16.04
      210.0,      16.03,    17.17,    16.54,    14.38,    16.02
      211.0,      16.01,    17.15,    16.53,    14.37,    16.00
      212.0,      16.00,    17.13,    16.51,    14.35,    15.99
      213.0,      15.98,    17.11,    16.49,    14.34,    15.97
      214.0,      15.96,    17.10,    16.48,    14.32,    15.96
      215.0,      15.95,    17.08,    16.46,    14.31,    15.94
      216.0,      15.93,    17.06,    16.44,    14.29,    15.92
      217.0,      15.91,    17.04,    16.43,    14.28,    15.91
      218.0,      15.90,    17.03,    16.41,    14.27,    15.89
      219.0,      15.88,    17.01,    16.39,    14.25,    15.87
      220.0,      15.87,    16.99,    16.38,    14.24,    15.86
      221.0,      15.85,    16.97,    16.36,    14.22,    15.84
      222.0,      15.83,    16.96,    16.34,    14.21,    15.83
      223.0,      15.82,    16.94,    16.33,    14.19,    15.81
      224.0,      15.80,    16.92,    16.31,    14.18,    15.79
      225.0,      15.79,    16.91,    16.29,    14.16,    15.78
      226.0,      15.77,    16.89,    16.28,    14.15,    15.76
      227.0,      15.75,    16.87,    16.26,    14.14,    15.75
      228.0,      15.74,    16.85,    16.24,    14.12,    15.73
      229.0,      15.72,    16.84,    16.23,    14.11,    15.71
      230.0,      15.71,    16.82,    16.21,    14.09,    15.70
      231.0,      15.69,    16.80,    16.19,    14.08,    15.68
      232.0,      15.67,    16.79,    16.18,    14.06,    15.67
      233.0,      15.66,    16.77,    16.16,    14.05,    15.65
      234.0,      15.64,    16.75,    16.14,    14.04,    15.64
      235.0,      15.63,    16.74,    16.13,    14.02,    15.62
      236.0,      15.61,    16.72,    16.11,    14.01,    15.60
      237.0,      15.59,    16.70,    16.10,    13.99,    15.59
      238.0,      15.58,    16.68,    16.08,    13.98,    15.57
      239.0,      15.56,    16.67,    16.06,    13.97,    15.56
      240.0,      15.55,    16.65,    16.05,    13.95,    15.54
      241.0,      15.53,    16.63,    16.03,    13.94,    15.53
      242.0,      15.52,    16.62,    16.01,    13.92,    15.51
      243.0,      15.50,    16.60,    16.00,    13.91,    15.49
      244.0,      15.49,    16.58,    15.98,    13.90,    15.48
      245.0,      15.47,    16.57,    15.97,    13.88,    15.46
      246.0,      15.45,    16.55,    15.95,    13.87,    15.45
      247.0,      15.44,    16.53,    15.93,    13.85,    15.43
      248.0,      15.42,    16.52,    15.92,    13.84,    15.42
      249.0,      15.41,    16.50,    15.90,    13.83,    15.40
      250.0,      15.39,    16.48,    15.89,    13.81,    15.39
      251.0,      15.38,    16.47,    15.87,    13.80,    15.37
      252.0,      15.36,    16.45,    15.85,    13.78,    15.36
      253.0,      15.35,    16.43,    15.84,    13.77,    15.34
      254.0,      15.33,    16.42,    15.82,    13.76,    15.32
      255.0,      15.31,    16.40,    15.81,    13.74,    15.31
      256.0,      15.30,    16.39,    15.79,    13.73,    15.29
      257.0,      15.28,    16.37,    15.77,    13.72,    15.28
      258.0,      15.27,    16.35,    15.76,    13.70,    15.26
      259.0,      15.25,    16.34,    15.74,    13.69,    15.25
      260.0,      15.24,    16.32,    15.73,    13.67,    15.23
      261.0,      15.22,    16.30,    15.71,    13.66,    15.22
      262.0,      15.21,    16.29,    15.69,    13.65,    15.20
      263.0,      15.19,    16.27,    15.68,    13.63,    15.19
      264.0,      15.18,    16.25,    15.66,    13.62,    15.17
      265.0,      15.16,    16.24,    15.65,    13.61,    15.16
      266.0,      15.15,    16.22,    15.63,    13.59,    15.14
      267.0,      15.13,    16.21,    15.62,    13.58,    15.13
      268.0,      15.12,    16.19,    15.60,    13.56,    15.11
      269.0,      15.10,    16.17,    15.58,    13.55,    15.10
      270.0,      15.09,    16.16,    15.57,    13.54,    15.08
      271.0,      15.07,    16.14,    15.55,    13.52,    15.07
      272.0,      15.06,    16.12,    15.54,    13.51,    15.05
      273.0,      15.04,    16.11,    15.52,    13.50,    15.04
      274.0,      15.03,    16.09,    15.51,    13.48,    15.02
      275.0,      15.01,    16.08,    15.49,    13.47,    15.01
      276.0,      15.00,    16.06,    15.48,    13.46,    14.99
      277.0,      14.98,    16.04,    15.46,    13.44,    14.98
      278.0,      14.97,    16.03,    15.44,    13.43,    14.96
      279.0,      14.95,    16.01,    15.43,    13.42,    14.95
      280.0,      14.94,    16.00,    15.41,    13.40,    14.93
      281.0,      14.92,    15.98,    15.40,    13.39,    14.92
      282.0,      14.91,    15.96,    15.38,    13.38,    14.90
      283.0,      14.89,    15.95,    15.37,    13.36,    14.89
      284.0,      14.88,    15.93,    15.35,    13.35,    14.87
      285.0,      14.86,    15.92,    15.34,    13.34,    14.86
      286.0,      14.85,    15.90,    15.32,    13.32,    14.84
      287.0,      14.83,    15.88,    15.31,    13.31,    14.83
      288.0,      14.82,    15.87,    15.29,    13.30,    14.81
      289.0,      14.80,    15.85,    15.28,    13.28,    14.80
      290.0,      14.79,    15.84,    15.26,    13.27,    14.78
      291.0,      14.77,    15.82,    15.24,    13.26,    14.77
      292.0,      14.76,    15.80,    15.23,    13.24,    14.75
      293.0,      14.74,    15.79,    15.21,    13.23,    14.74
      294.0,      14.73,    15.77,    15.20,    13.22,    14.72
      295.0,      14.71,    15.76,    15.18,    13.20,    14.71
      296.0,      14.70,    15.74,    15.17,    13.19,    14.69
      297.0,      14.68,    15.73,    15.15,    13.18,    14.68
      298.0,      14.67,    15.71,    15.14,    13.16,    14.66
      299.0,      14.65,    15.69,    15.12,    13.15,    14.65
      300.0,      14.64,    15.68,    15.11,    13.14,    14.63
      301.0,      14.62,    15.66,    15.09,    13.12,    14.62
      302.0,      14.61,    15.65,    15.08,    13.11,    14.61
      303.0,      14.60,    15.63,    15.06,    13.10,    14.59
      304.0,      14.58,    15.62,    15.05,    13.08,    14.58
      305.0,      14.57,    15.60,    15.03,    13.07,    14.56
      306.0,      14.55,    15.58,    15.02,    13.06,    14.55
      307.0,      14.54,    15.57,    15.00,    13.05,    14.53
      308.0,      14.52,    15.55,    14.99,    13.03,    14.52
      309.0,      14.51,    15.54,    14.97,    13.02,    14.50
      310.0,      14.49,    15.52,    14.96,    13.01,    14.49
