Radius (km), Mean (m/s), NE (m/s), SE (m/s), SW (m/s), NW (m/s)
        0.0,      15.90,    16.50,    15.08,    15.45,    16.59
        1.0,      23.38,    24.01,    22.31,    22.98,    24.21
        2.0,      29.31,    30.09,    27.92,    28.84,    30.38
        3.0,      33.99,    34.93,    32.32,    33.42,    35.29
        4.0,      37.45,    38.53,    35.57,    36.76,    38.93
        5.0,      39.76,    40.96,    37.77,    38.93,    41.36
        6.0,      41.06,    42.37,    39.06,    40.08,    42.73
        7.0,      41.56,    42.97,    39.62,    40.41,    43.25
        8.0,      41.49,    42.98,    39.68,    40.15,    43.16
        9.0,      41.06,    42.64,    39.42,    39.52,    42.68
       10.0,      40.46,    42.12,    39.01,    38.71,    42.02
       11.0,      39.81,    41.55,    38.55,    37.85,    41.30
       12.0,      39.17,    40.99,    38.10,    37.02,    40.59
       13.0,      38.56,    40.45,    37.67,    36.22,    39.92
       14.0,      37.98,    39.93,    37.25,    35.47,    39.27
       15.0,      37.42,    39.42,    36.85,    34.74,    38.65
       16.0,      36.87,    38.93,    36.45,    34.04,    38.04
       17.0,      36.34,    38.45,    36.07,    33.37,    37.46
       18.0,      35.83,    37.99,    35.70,    32.73,    36.89
       19.0,      35.33,    37.53,    35.34,    32.11,    36.34
       20.0,      34.85,    37.09,    34.99,    31.51,    35.81
       21.0,      34.38,    36.66,    34.64,    30.93,    35.29
       22.0,      33.93,    36.25,    34.31,    30.38,    34.79
       23.0,      33.49,    35.84,    33.98,    29.85,    34.31
       24.0,      33.07,    35.44,    33.67,    29.34,    33.84
       25.0,      32.66,    35.06,    33.36,    28.85,    33.38
       26.0,      32.26,    34.68,    33.06,    28.37,    32.94
       27.0,      31.88,    34.32,    32.76,    27.92,    32.51
       28.0,      31.50,    33.96,    32.48,    27.48,    32.10
       29.0,      31.14,    33.61,    32.20,    27.06,    31.69
       30.0,      30.79,    33.28,    31.93,    26.65,    31.31
       31.0,      30.45,    32.95,    31.67,    26.26,    30.93
       32.0,      30.12,    32.63,    31.41,    25.88,    30.56
       33.0,      29.80,    32.32,    31.16,    25.52,    30.21
       34.0,      29.49,    32.01,    30.92,    25.17,    29.86
       35.0,      29.19,    31.72,    30.68,    24.84,    29.53
       36.0,      28.90,    31.43,    30.45,    24.52,    29.20
       37.0,      28.62,    31.15,    30.22,    24.21,    28.89
       38.0,      28.34,    30.87,    30.00,    23.91,    28.59
       39.0,      28.08,    30.61,    29.79,    23.62,    28.29
       40.0,      27.82,    30.35,    29.58,    23.34,    28.00
       41.0,      27.57,    30.10,    29.38,    23.07,    27.73
       42.0,      27.33,    29.85,    29.18,    22.82,    27.46
       43.0,      27.09,    29.61,    28.99,    22.57,    27.20
       44.0,      26.86,    29.38,    28.80,    22.33,    26.94
       45.0,      26.64,    29.15,    28.61,    22.10,    26.70
       46.0,      26.42,    28.93,    28.43,    21.88,    26.46
       47.0,      26.21,    28.71,    28.26,    21.66,    26.23
       48.0,      26.01,    28.50,    28.09,    21.46,    26.00
       49.0,      25.81,    28.29,    27.92,    21.26,    25.78
       50.0,      25.62,    28.09,    27.76,    21.07,    25.57
       51.0,      25.44,    27.90,    27.60,    20.88,    25.37
       52.0,      25.26,    27.71,    27.45,    20.70,    25.17
       53.0,      25.08,    27.52,    27.30,    20.53,    24.97
       54.0,      24.91,    27.34,    27.15,    20.37,    24.79
       55.0,      24.74,    27.16,    27.01,    20.21,    24.60
       56.0,      24.58,    26.99,    26.87,    20.05,    24.43
       57.0,      24.43,    26.82,    26.73,    19.90,    24.25
       58.0,      24.27,    26.66,    26.60,    19.76,    24.09
       59.0,      24.13,    26.50,    26.46,    19.62,    23.92
       60.0,      23.98,    26.34,    26.34,    19.49,    23.77
       61.0,      23.84,    26.19,    26.21,    19.36,    23.61
       62.0,      23.71,    26.04,    26.09,    19.23,    23.46
       63.0,      23.57,    25.89,    25.97,    19.11,    23.32
       64.0,      23.45,    25.75,    25.86,    19.00,    23.18
       65.0,      23.32,    25.61,    25.74,    18.89,    23.04
       66.0,      23.20,    25.48,    25.63,    18.78,    22.91
       67.0,      23.08,    25.35,    25.52,    18.67,    22.78
       68.0,      22.96,    25.22,    25.42,    18.57,    22.65
       69.0,      22.85,    25.09,    25.31,    18.47,    22.53
       70.0,      22.74,    24.97,    25.21,    18.38,    22.41
       71.0,      22.64,    24.85,    25.11,    18.29,    22.29
       72.0,      22.53,    24.73,    25.02,    18.20,    22.18
       73.0,      22.43,    24.62,    24.92,    18.11,    22.07
       74.0,      22.33,    24.51,    24.83,    18.03,    21.96
       75.0,      22.24,    24.40,    24.74,    17.95,    21.86
       76.0,      22.14,    24.29,    24.65,    17.87,    21.76
       77.0,      22.05,    24.19,    24.56,    17.79,    21.66
       78.0,      21.96,    24.08,    24.48,    17.72,    21.56
       79.0,      21.87,    23.98,    24.39,    17.65,    21.47
       80.0,      21.79,    23.89,    24.31,    17.58,    21.38
       81.0,      21.71,    23.79,    24.23,    17.51,    21.29
       82.0,      21.63,    23.70,    24.15,    17.45,    21.20
       83.0,      21.55,    23.61,    24.08,    17.38,    21.12
       84.0,      21.47,    23.52,    24.00,    17.32,    21.04
       85.0,      21.40,    23.43,    23.93,    17.26,    20.96
       86.0,      21.32,    23.35,    23.85,    17.21,    20.88
       87.0,      21.25,    23.26,    23.78,    17.15,    20.80
       88.0,      21.18,    23.18,    23.71,    17.10,    20.73
       89.0,      21.11,    23.10,    23.65,    17.04,    20.66
       90.0,      21.04,    23.02,    23.58,    16.99,    20.59
       91.0,      20.98,    22.94,    23.51,    16.94,    20.52
       92.0,      20.92,    22.87,    23.45,    16.89,    20.45
       93.0,      20.85,    22.80,    23.39,    16.85,    20.38
       94.0,      20.79,    22.72,    23.32,    16.80,    20.32
       95.0,      20.73,    22.65,    23.26,    16.76,    20.26
       96.0,      20.67,    22.58,    23.20,    16.71,    20.19
       97.0,      20.62,    22.52,    23.14,    16.67,    20.13
       98.0,      20.56,    22.45,    23.09,    16.63,    20.08
       99.0,      20.50,    22.38,    23.03,    16.59,    20.02
      100.0,      20.45,    22.32,    22.97,    16.55,    19.96
      101.0,      20.40,    22.26,    22.92,    16.51,    19.91
      102.0,      20.35,    22.20,    22.87,    16.47,    19.85
      103.0,      20.30,    22.13,    22.81,    16.43,    19.80
      104.0,      20.25,    22.08,    22.76,    16.40,    19.75
      105.0,      20.20,    22.02,    22.71,    16.36,    19.70
      106.0,      20.15,    21.96,    22.66,    16.33,    19.65
      107.0,      20.10,    21.90,    22.61,    16.29,    19.60
      108.0,      20.06,    21.85,    22.56,    16.26,    19.55
      109.0,      20.01,    21.79,    22.51,    16.23,    19.51
      110.0,      19.97,    21.74,    22.46,    16.20,    19.46
      111.0,      19.92,    21.69,    22.42,    16.17,    19.42
      112.0,      19.88,    21.64,    22.37,    16.14,    19.37
      113.0,      19.84,    21.59,    22.33,    16.11,    19.33
      114.0,      19.80,    21.54,    22.28,    16.08,    19.29
      115.0,      19.76,    21.49,    22.24,    16.05,    19.25
      116.0,      19.72,    21.44,    22.20,    16.02,    19.21
      117.0,      19.68,    21.39,    22.15,    15.99,    19.17
      118.0,      19.64,    21.35,    22.11,    15.96,    19.13
      119.0,      19.60,    21.30,    22.07,    15.94,    19.09
      120.0,      19.56,    21.26,    22.03,    15.91,    19.05
      121.0,      19.52,    21.21,    21.99,    15.89,    19.01
      122.0,      19.49,    21.17,    21.95,    15.86,    18.98
      123.0,      19.45,    21.13,    21.91,    15.84,    18.94
      124.0,      19.42,    21.08,    21.87,    15.81,    18.91
      125.0,      19.38,    21.04,    21.83,    15.79,    18.87
      126.0,      19.35,    21.00,    21.79,    15.76,    18.84
      127.0,      19.31,    20.96,    21.76,    15.74,    18.80
      128.0,      19.28,    20.92,    21.72,    15.72,    18.77
      129.0,      19.25,    20.88,    21.68,    15.69,    18.74
      130.0,      19.22,    20.84,    21.65,    15.67,    18.70
      131.0,      19.18,    20.81,    21.61,    15.65,    18.67
      132.0,      19.15,    20.77,    21.58,    15.63,    18.64
      133.0,      19.12,    20.73,    21.54,    15.60,    18.61
      134.0,      19.09,    20.69,    21.51,    15.58,    18.58
      135.0,      19.06,    20.66,    21.47,    15.56,    18.55
      136.0,      19.03,    20.62,    21.44,    15.54,    18.52
      137.0,      19.00,    20.59,    21.40,    15.52,    18.49
      138.0,      18.97,    20.55,    21.37,    15.50,    18.46
      139.0,      18.94,    20.52,    21.34,    15.48,    18.43
      140.0,      18.91,    20.48,    21.31,    15.46,    18.40
      141.0,      18.89,    20.45,    21.27,    15.44,    18.38
      142.0,      18.86,    20.42,    21.24,    15.42,    18.35
      143.0,      18.83,    20.39,    21.21,    15.40,    18.32
      144.0,      18.80,    20.35,    21.18,    15.38,    18.30
      145.0,      18.77,    20.32,    21.15,    15.36,    18.27
      146.0,      18.75,    20.29,    21.12,    15.34,    18.24
      147.0,      18.72,    20.26,    21.09,    15.32,    18.22
      148.0,      18.69,    20.23,    21.06,    15.30,    18.19
      149.0,      18.67,    20.20,    21.03,    15.29,    18.17
      150.0,      18.64,    20.17,    21.00,    15.27,    18.14
      151.0,      18.62,    20.14,    20.97,    15.25,    18.12
      152.0,      18.59,    20.11,    20.94,    15.23,    18.09
      153.0,      18.57,    20.08,    20.91,    15.21,    18.07
      154.0,      18.54,    20.05,    20.88,    15.20,    18.04
      155.0,      18.52,    20.02,    20.85,    15.18,    18.02
      156.0,      18.49,    19.99,    20.82,    15.16,    17.99
      157.0,      18.47,    19.96,    20.80,    15.14,    17.97
      158.0,      18.44,    19.93,    20.77,    15.12,    17.95
      159.0,      18.42,    19.91,    20.74,    15.11,    17.92
      160.0,      18.40,    19.88,    20.71,    15.09,    17.90
      161.0,      18.37,    19.85,    20.69,    15.07,    17.88
      162.0,      18.35,    19.83,    20.66,    15.06,    17.86
      163.0,      18.33,    19.80,    20.63,    15.04,    17.83
      164.0,      18.30,    19.77,    20.61,    15.02,    17.81
      165.0,      18.28,    19.75,    20.58,    15.01,    17.79
      166.0,      18.26,    19.72,    20.55,    14.99,    17.77
      167.0,      18.23,    19.69,    20.53,    14.97,    17.74
      168.0,      18.21,    19.67,    20.50,    14.96,    17.72
      169.0,      18.19,    19.64,    20.47,    14.94,    17.70
      170.0,      18.17,    19.62,    20.45,    14.92,    17.68
      171.0,      18.15,    19.59,    20.42,    14.91,    17.66
      172.0,      18.12,    19.57,    20.40,    14.89,    17.64
      173.0,      18.10,    19.54,    20.37,    14.87,    17.62
      174.0,      18.08,    19.52,    20.35,    14.86,    17.60
      175.0,      18.06,    19.49,    20.32,    14.84,    17.58
      176.0,      18.04,    19.47,    20.30,    14.83,    17.56
      177.0,      18.02,    19.44,    20.27,    14.81,    17.53
      178.0,      17.99,    19.42,    20.25,    14.80,    17.51
      179.0,      17.97,    19.40,    20.22,    14.78,    17.49
      180.0,      17.95,    19.37,    20.20,    14.76,    17.47
      181.0,      17.93,    19.35,    20.17,    14.75,    17.45
      182.0,      17.91,    19.33,    20.15,    14.73,    17.43
      183.0,      17.89,    19.30,    20.13,    14.72,    17.41
      184.0,      17.87,    19.28,    20.10,    14.70,    17.39
      185.0,      17.85,    19.26,    20.08,    14.69,    17.37
      186.0,      17.83,    19.23,    20.05,    14.67,    17.36
      187.0,      17.81,    19.21,    20.03,    14.66,    17.34
      188.0,      17.79,    19.19,    20.01,    14.64,    17.32
      189.0,      17.77,    19.17,    19.98,    14.62,    17.30
      190.0,      17.75,    19.14,    19.96,    14.61,    17.28
      191.0,      17.73,    19.12,    19.94,    14.59,    17.26
      192.0,      17.71,    19.10,    19.91,    14.58,    17.24
      193.0,      17.69,    19.08,    19.89,    14.56,    17.22
      194.0,      17.67,    19.05,    19.87,    14.55,    17.20
      195.0,      17.65,    19.03,    19.84,    14.53,    17.18
      196.0,      17.63,    19.01,    19.82,    14.52,    17.16
      197.0,      17.61,    18.99,    19.80,    14.50,    17.15
      198.0,      17.59,    18.97,    19.78,    14.49,    17.13
      199.0,      17.57,    18.95,    19.75,    14.47,    17.11
      200.0,      17.55,    18.92,    19.73,    14.46,    17.09
      201.0,      17.53,    18.90,    19.71,    14.44,    17.07
      202.0,      17.51,    18.88,    19.69,    14.43,    17.05
      203.0,      17.49,    18.86,    19.66,    14.41,    17.04
      204.0,      17.47,    18.84,    19.64,    14.40,    17.02
      205.0,      17.46,    18.82,    19.62,    14.38,    17.00
      206.0,      17.44,    18.80,    19.60,    14.37,    16.98
      207.0,      17.42,    18.78,    19.57,    14.36,    16.96
      208.0,      17.40,    18.76,    19.55,    14.34,    16.94
      209.0,      17.38,    18.74,    19.53,    14.33,    16.93
      210.0,      17.36,    18.72,    19.51,    14.31,    16.91
      211.0,      17.34,    18.70,    19.49,    14.30,    16.89
      212.0,      17.32,    18.67,    19.46,    14.28,    16.87
      213.0,      17.31,    18.65,    19.44,    14.27,    16.86
      214.0,      17.29,    18.63,    19.42,    14.25,    16.84
      215.0,      17.27,    18.61,    19.40,    14.24,    16.82
      216.0,      17.25,    18.59,    19.38,    14.22,    16.80
      217.0,      17.23,    18.57,    19.36,    14.21,    16.78
      218.0,      17.21,    18.55,    19.33,    14.20,    16.77
      219.0,      17.19,    18.53,    19.31,    14.18,    16.75
      220.0,      17.18,    18.51,    19.29,    14.17,    16.73
      221.0,      17.16,    18.49,    19.27,    14.15,    16.72
      222.0,      17.14,    18.47,    19.25,    14.14,    16.70
      223.0,      17.12,    18.45,    19.23,    14.12,    16.68
      224.0,      17.10,    18.43,    19.21,    14.11,    16.66
      225.0,      17.09,    18.42,    19.19,    14.10,    16.65
      226.0,      17.07,    18.40,    19.16,    14.08,    16.63
      227.0,      17.05,    18.38,    19.14,    14.07,    16.61
      228.0,      17.03,    18.36,    19.12,    14.05,    16.59
      229.0,      17.01,    18.34,    19.10,    14.04,    16.58
      230.0,      17.00,    18.32,    19.08,    14.02,    16.56
      231.0,      16.98,    18.30,    19.06,    14.01,    16.54
      232.0,      16.96,    18.28,    19.04,    14.00,    16.53
      233.0,      16.94,    18.26,    19.02,    13.98,    16.51
      234.0,      16.92,    18.24,    19.00,    13.97,    16.49
      235.0,      16.91,    18.22,    18.98,    13.95,    16.48
      236.0,      16.89,    18.20,    18.96,    13.94,    16.46
      237.0,      16.87,    18.18,    18.94,    13.93,    16.44
      238.0,      16.85,    18.16,    18.92,    13.91,    16.42
      239.0,      16.84,    18.15,    18.89,    13.90,    16.41
      240.0,      16.82,    18.13,    18.87,    13.88,    16.39
      241.0,      16.80,    18.11,    18.85,    13.87,    16.37
      242.0,      16.78,    18.09,    18.83,    13.86,    16.36
      243.0,      16.77,    18.07,    18.81,    13.84,    16.34
      244.0,      16.75,    18.05,    18.79,    13.83,    16.32
      245.0,      16.73,    18.03,    18.77,    13.81,    16.31
      246.0,      16.71,    18.01,    18.75,    13.80,    16.29
      247.0,      16.70,    18.00,    18.73,    13.79,    16.27
      248.0,      16.68,    17.98,    18.71,    13.77,    16.26
      249.0,      16.66,    17.96,    18.69,    13.76,    16.24
      250.0,      16.65,    17.94,    18.67,    13.74,    16.22
      251.0,      16.63,    17.92,    18.65,    13.73,    16.21
      252.0,      16.61,    17.90,    18.63,    13.72,    16.19
      253.0,      16.59,    17.88,    18.61,    13.70,    16.18
      254.0,      16.58,    17.87,    18.59,    13.69,    16.16
      255.0,      16.56,    17.85,    18.57,    13.68,    16.14
      256.0,      16.54,    17.83,    18.55,    13.66,    16.13
      257.0,      16.53,    17.81,    18.53,    13.65,    16.11
      258.0,      16.51,    17.79,    18.51,    13.64,    16.09
      259.0,      16.49,    17.77,    18.49,    13.62,    16.08
      260.0,      16.47,    17.76,    18.47,    13.61,    16.06
      261.0,      16.46,    17.74,    18.45,    13.59,    16.04
      262.0,      16.44,    17.72,    18.43,    13.58,    16.03
      263.0,      16.42,    17.70,    18.41,    13.57,    16.01
      264.0,      16.41,    17.68,    18.39,    13.55,    16.00
      265.0,      16.39,    17.67,    18.37,    13.54,    15.98
      266.0,      16.37,    17.65,    18.35,    13.53,    15.96
      267.0,      16.36,    17.63,    18.33,    13.51,    15.95
      268.0,      16.34,    17.61,    18.31,    13.50,    15.93
      269.0,      16.32,    17.59,    18.29,    13.49,    15.92
      270.0,      16.31,    17.58,    18.28,    13.47,    15.90
      271.0,      16.29,    17.56,    18.26,    13.46,    15.88
      272.0,      16.27,    17.54,    18.24,    13.45,    15.87
      273.0,      16.26,    17.52,    18.22,    13.43,    15.85
      274.0,      16.24,    17.50,    18.20,    13.42,    15.84
      275.0,      16.22,    17.49,    18.18,    13.40,    15.82
      276.0,      16.21,    17.47,    18.16,    13.39,    15.80
      277.0,      16.19,    17.45,    18.14,    13.38,    15.79
      278.0,      16.17,    17.43,    18.12,    13.36,    15.77
      279.0,      16.16,    17.42,    18.10,    13.35,    15.76
      280.0,      16.14,    17.40,    18.08,    13.34,    15.74
      281.0,      16.12,    17.38,    18.06,    13.32,    15.72
      282.0,      16.11,    17.36,    18.04,    13.31,    15.71
      283.0,      16.09,    17.35,    18.02,    13.30,    15.69
      284.0,      16.07,    17.33,    18.00,    13.28,    15.68
      285.0,      16.06,    17.31,    17.99,    13.27,    15.66
      286.0,      16.04,    17.29,    17.97,    13.26,    15.65
      287.0,      16.02,    17.27,    17.95,    13.24,    15.63
      288.0,      16.01,    17.26,    17.93,    13.23,    15.61
      289.0,      15.99,    17.24,    17.91,    13.22,    15.60
      290.0,      15.98,    17.22,    17.89,    13.20,    15.58
      291.0,      15.96,    17.21,    17.87,    13.19,    15.57
      292.0,      15.94,    17.19,    17.85,    13.18,    15.55
      293.0,      15.93,    17.17,    17.83,    13.17,    15.54
      294.0,      15.91,    17.15,    17.81,    13.15,    15.52
      295.0,      15.89,    17.14,    17.80,    13.14,    15.50
      296.0,      15.88,    17.12,    17.78,    13.13,    15.49
      297.0,      15.86,    17.10,    17.76,    13.11,    15.47
      298.0,      15.85,    17.08,    17.74,    13.10,    15.46
      299.0,      15.83,    17.07,    17.72,    13.09,    15.44
      300.0,      15.81,    17.05,    17.70,    13.07,    15.43
      301.0,      15.80,    17.03,    17.68,    13.06,    15.41
      302.0,      15.78,    17.02,    17.66,    13.05,    15.40
      303.0,      15.76,    17.00,    17.64,    13.03,    15.38
      304.0,      15.75,    16.98,    17.63,    13.02,    15.37
      305.0,      15.73,    16.96,    17.61,    13.01,    15.35
      306.0,      15.72,    16.95,    17.59,    13.00,    15.33
      307.0,      15.70,    16.93,    17.57,    12.98,    15.32
      308.0,      15.68,    16.91,    17.55,    12.97,    15.30
      309.0,      15.67,    16.90,    17.53,    12.96,    15.29
      310.0,      15.65,    16.88,    17.51,    12.94,    15.27
