Radius (km), Mean (m/s), NE (m/s), SE (m/s), SW (m/s), NW (m/s)
        0.0,      15.71,    16.67,    15.67,    14.16,    16.33
        1.0,      23.16,    24.17,    22.90,    21.68,    23.90
        2.0,      29.12,    30.27,    28.52,    27.61,    30.08
        3.0,      33.85,    35.14,    32.91,    32.33,    35.03
        4.0,      37.38,    38.77,    36.14,    35.87,    38.74
        5.0,      39.76,    41.23,    38.28,    38.27,    41.26
        6.0,      41.15,    42.67,    39.51,    39.66,    42.74
        7.0,      41.73,    43.31,    40.02,    40.22,    43.38
        8.0,      41.75,    43.36,    40.02,    40.18,    43.41
        9.0,      41.40,    43.06,    39.71,    39.76,    43.07
       10.0,      40.88,    42.58,    39.26,    39.13,    42.54
       11.0,      40.30,    42.05,    38.76,    38.43,    41.95
       12.0,      39.73,    41.53,    38.28,    37.74,    41.36
       13.0,      39.18,    41.03,    37.81,    37.08,    40.81
       14.0,      38.66,    40.54,    37.37,    36.45,    40.27
       15.0,      38.15,    40.07,    36.94,    35.85,    39.74
       16.0,      37.66,    39.61,    36.52,    35.26,    39.23
       17.0,      37.18,    39.17,    36.11,    34.70,    38.73
       18.0,      36.71,    38.73,    35.72,    34.15,    38.25
       19.0,      36.26,    38.31,    35.33,    33.62,    37.77
       20.0,      35.82,    37.89,    34.96,    33.11,    37.31
       21.0,      35.39,    37.49,    34.60,    32.61,    36.86
       22.0,      34.97,    37.10,    34.25,    32.13,    36.42
       23.0,      34.57,    36.71,    33.91,    31.66,    35.99
       24.0,      34.18,    36.34,    33.58,    31.21,    35.58
       25.0,      33.80,    35.97,    33.26,    30.78,    35.17
       26.0,      33.42,    35.62,    32.95,    30.36,    34.77
       27.0,      33.06,    35.27,    32.65,    29.95,    34.39
       28.0,      32.71,    34.93,    32.35,    29.55,    34.01
       29.0,      32.37,    34.60,    32.07,    29.17,    33.64
       30.0,      32.04,    34.28,    31.79,    28.80,    33.28
       31.0,      31.72,    33.97,    31.53,    28.44,    32.93
       32.0,      31.40,    33.66,    31.27,    28.09,    32.59
       33.0,      31.10,    33.36,    31.01,    27.76,    32.26
       34.0,      30.80,    33.07,    30.77,    27.43,    31.93
       35.0,      30.51,    32.79,    30.53,    27.11,    31.62
       36.0,      30.23,    32.51,    30.30,    26.81,    31.31
       37.0,      29.96,    32.24,    30.07,    26.51,    31.01
       38.0,      29.69,    31.97,    29.85,    26.22,    30.71
       39.0,      29.43,    31.72,    29.64,    25.95,    30.43
       40.0,      29.18,    31.47,    29.43,    25.68,    30.15
       41.0,      28.93,    31.22,    29.23,    25.42,    29.87
       42.0,      28.70,    30.98,    29.03,    25.16,    29.61
       43.0,      28.46,    30.75,    28.84,    24.92,    29.35
       44.0,      28.24,    30.52,    28.66,    24.68,    29.09
       45.0,      28.02,    30.30,    28.48,    24.45,    28.85
       46.0,      27.80,    30.08,    28.31,    24.22,    28.61
       47.0,      27.60,    29.87,    28.14,    24.01,    28.37
       48.0,      27.39,    29.66,    27.97,    23.80,    28.14
       49.0,      27.19,    29.46,    27.81,    23.59,    27.92
       50.0,      27.00,    29.26,    27.65,    23.39,    27.70
       51.0,      26.81,    29.07,    27.50,    23.20,    27.48
       52.0,      26.63,    28.88,    27.35,    23.02,    27.27
       53.0,      26.45,    28.70,    27.21,    22.83,    27.07
       54.0,      26.28,    28.52,    27.07,    22.66,    26.87
       55.0,      26.11,    28.34,    26.93,    22.49,    26.68
       56.0,      25.95,    28.17,    26.80,    22.32,    26.49
       57.0,      25.78,    28.00,    26.67,    22.16,    26.30
       58.0,      25.63,    27.84,    26.54,    22.01,    26.12
       59.0,      25.48,    27.68,    26.42,    21.86,    25.95
       60.0,      25.33,    27.53,    26.30,    21.71,    25.77
       61.0,      25.18,    27.37,    26.18,    21.57,    25.61
       62.0,      25.04,    27.23,    26.07,    21.43,    25.44
       63.0,      24.90,    27.08,    25.96,    21.29,    25.28
       64.0,      24.77,    26.94,    25.85,    21.16,    25.12
       65.0,      24.64,    26.80,    25.74,    21.03,    24.97
       66.0,      24.51,    26.66,    25.64,    20.91,    24.82
       67.0,      24.38,    26.53,    25.54,    20.79,    24.67
       68.0,      24.26,    26.40,    25.44,    20.67,    24.53
       69.0,      24.14,    26.27,    25.35,    20.56,    24.39
       70.0,      24.03,    26.15,    25.25,    20.45,    24.25
       71.0,      23.91,    26.03,    25.16,    20.34,    24.12
       72.0,      23.80,    25.91,    25.07,    20.24,    23.99
       73.0,      23.69,    25.79,    24.99,    20.13,    23.86
       74.0,      23.59,    25.68,    24.90,    20.03,    23.74
       75.0,      23.48,    25.57,    24.82,    19.94,    23.62
       76.0,      23.38,    25.46,    24.74,    19.84,    23.50
       77.0,      23.29,    25.35,    24.66,    19.75,    23.38
       78.0,      23.19,    25.25,    24.58,    19.66,    23.27
       79.0,      23.10,    25.14,    24.51,    19.57,    23.15
       80.0,      23.00,    25.04,    24.43,    19.49,    23.04
       81.0,      22.91,    24.95,    24.36,    19.41,    22.94
       82.0,      22.83,    24.85,    24.29,    19.33,    22.83
       83.0,      22.74,    24.76,    24.22,    19.25,    22.73
       84.0,      22.66,    24.66,    24.15,    19.17,    22.63
       85.0,      22.57,    24.57,    24.09,    19.10,    22.53
       86.0,      22.49,    24.49,    24.02,    19.02,    22.44
       87.0,      22.41,    24.40,    23.96,    18.95,    22.34
       88.0,      22.34,    24.31,    23.90,    18.88,    22.25
       89.0,      22.26,    24.23,    23.84,    18.81,    22.16
       90.0,      22.19,    24.15,    23.78,    18.75,    22.07
       91.0,      22.11,    24.07,    23.72,    18.68,    21.99
       92.0,      22.04,    23.99,    23.66,    18.62,    21.90
       93.0,      21.97,    23.92,    23.61,    18.56,    21.82
       94.0,      21.91,    23.84,    23.55,    18.49,    21.74
       95.0,      21.84,    23.77,    23.50,    18.44,    21.66
       96.0,      21.77,    23.69,    23.44,    18.38,    21.58
       97.0,      21.71,    23.62,    23.39,    18.32,    21.50
       98.0,      21.65,    23.55,    23.34,    18.26,    21.43
       99.0,      21.59,    23.48,    23.29,    18.21,    21.36
      100.0,      21.52,    23.42,    23.24,    18.16,    21.28
      101.0,      21.47,    23.35,    23.19,    18.10,    21.21
      102.0,      21.41,    23.29,    23.15,    18.05,    21.14
      103.0,      21.35,    23.22,    23.10,    18.00,    21.08
      104.0,      21.29,    23.16,    23.05,    17.95,    21.01
      105.0,      21.24,    23.10,    23.01,    17.90,    20.94
      106.0,      21.19,    23.04,    22.96,    17.86,    20.88
      107.0,      21.13,    22.98,    22.92,    17.81,    20.82
      108.0,      21.08,    22.92,    22.88,    17.76,    20.76
      109.0,      21.03,    22.86,    22.84,    17.72,    20.70
      110.0,      20.98,    22.81,    22.79,    17.68,    20.64
      111.0,      20.93,    22.75,    22.75,    17.63,    20.58
      112.0,      20.88,    22.70,    22.71,    17.59,    20.52
      113.0,      20.83,    22.64,    22.67,    17.55,    20.46
      114.0,      20.79,    22.59,    22.63,    17.51,    20.41
      115.0,      20.74,    22.54,    22.59,    17.47,    20.35
      116.0,      20.69,    22.49,    22.56,    17.43,    20.30
      117.0,      20.65,    22.44,    22.52,    17.39,    20.25
      118.0,      20.60,    22.39,    22.48,    17.35,    20.20
      119.0,      20.56,    22.34,    22.44,    17.31,    20.15
      120.0,      20.52,    22.29,    22.41,    17.27,    20.10
      121.0,      20.48,    22.25,    22.37,    17.24,    20.05
      122.0,      20.43,    22.20,    22.34,    17.20,    20.00
      123.0,      20.39,    22.15,    22.30,    17.17,    19.95
      124.0,      20.35,    22.11,    22.27,    17.13,    19.91
      125.0,      20.31,    22.06,    22.23,    17.10,    19.86
      126.0,      20.27,    22.02,    22.20,    17.06,    19.81
      127.0,      20.24,    21.98,    22.17,    17.03,    19.77
      128.0,      20.20,    21.93,    22.14,    16.99,    19.73
      129.0,      20.16,    21.89,    22.10,    16.96,    19.68
      130.0,      20.12,    21.85,    22.07,    16.93,    19.64
      131.0,      20.09,    21.81,    22.04,    16.90,    19.60
      132.0,      20.05,    21.77,    22.01,    16.87,    19.56
      133.0,      20.01,    21.73,    21.98,    16.83,    19.52
      134.0,      19.98,    21.69,    21.95,    16.80,    19.48
      135.0,      19.94,    21.65,    21.92,    16.77,    19.44
      136.0,      19.91,    21.61,    21.89,    16.74,    19.40
      137.0,      19.88,    21.58,    21.86,    16.71,    19.36
      138.0,      19.84,    21.54,    21.83,    16.68,    19.32
      139.0,      19.81,    21.50,    21.80,    16.65,    19.29
      140.0,      19.78,    21.46,    21.77,    16.63,    19.25
      141.0,      19.74,    21.43,    21.74,    16.60,    19.21
      142.0,      19.71,    21.39,    21.71,    16.57,    19.18
      143.0,      19.68,    21.36,    21.68,    16.54,    19.14
      144.0,      19.65,    21.32,    21.65,    16.51,    19.11
      145.0,      19.62,    21.29,    21.63,    16.48,    19.07
      146.0,      19.59,    21.26,    21.60,    16.46,    19.04
      147.0,      19.56,    21.22,    21.57,    16.43,    19.00
      148.0,      19.53,    21.19,    21.54,    16.40,    18.97
      149.0,      19.50,    21.16,    21.52,    16.38,    18.94
      150.0,      19.47,    21.12,    21.49,    16.35,    18.91
      151.0,      19.44,    21.09,    21.46,    16.32,    18.87
      152.0,      19.41,    21.06,    21.44,    16.30,    18.84
      153.0,      19.38,    21.03,    21.41,    16.27,    18.81
      154.0,      19.35,    21.00,    21.39,    16.25,    18.78
      155.0,      19.32,    20.96,    21.36,    16.22,    18.75
      156.0,      19.30,    20.93,    21.33,    16.20,    18.72
      157.0,      19.27,    20.90,    21.31,    16.17,    18.69
      158.0,      19.24,    20.87,    21.28,    16.15,    18.66
      159.0,      19.21,    20.84,    21.26,    16.12,    18.63
      160.0,      19.19,    20.81,    21.23,    16.10,    18.60
      161.0,      19.16,    20.79,    21.21,    16.07,    18.57
      162.0,      19.13,    20.76,    21.18,    16.05,    18.55
      163.0,      19.11,    20.73,    21.16,    16.03,    18.52
      164.0,      19.08,    20.70,    21.13,    16.00,    18.49
      165.0,      19.06,    20.67,    21.11,    15.98,    18.46
      166.0,      19.03,    20.64,    21.09,    15.95,    18.44
      167.0,      19.00,    20.61,    21.06,    15.93,    18.41
      168.0,      18.98,    20.59,    21.04,    15.91,    18.38
      169.0,      18.95,    20.56,    21.01,    15.88,    18.36
      170.0,      18.93,    20.53,    20.99,    15.86,    18.33
      171.0,      18.90,    20.51,    20.97,    15.84,    18.30
      172.0,      18.88,    20.48,    20.94,    15.82,    18.28
      173.0,      18.85,    20.45,    20.92,    15.79,    18.25
      174.0,      18.83,    20.43,    20.90,    15.77,    18.23
      175.0,      18.81,    20.40,    20.87,    15.75,    18.20
      176.0,      18.78,    20.37,    20.85,    15.73,    18.18
      177.0,      18.76,    20.35,    20.83,    15.70,    18.15
      178.0,      18.73,    20.32,    20.80,    15.68,    18.13
      179.0,      18.71,    20.30,    20.78,    15.66,    18.10
      180.0,      18.69,    20.27,    20.76,    15.64,    18.08
      181.0,      18.66,    20.25,    20.74,    15.62,    18.05
      182.0,      18.64,    20.22,    20.71,    15.59,    18.03
      183.0,      18.62,    20.20,    20.69,    15.57,    18.01
      184.0,      18.59,    20.17,    20.67,    15.55,    17.98
      185.0,      18.57,    20.15,    20.65,    15.53,    17.96
      186.0,      18.55,    20.12,    20.62,    15.51,    17.94
      187.0,      18.52,    20.10,    20.60,    15.49,    17.91
      188.0,      18.50,    20.07,    20.58,    15.47,    17.89
      189.0,      18.48,    20.05,    20.56,    15.44,    17.87
      190.0,      18.46,    20.03,    20.53,    15.42,    17.85
      191.0,      18.44,    20.00,    20.51,    15.40,    17.82
      192.0,      18.41,    19.98,    20.49,    15.38,    17.80
      193.0,      18.39,    19.95,    20.47,    15.36,    17.78
      194.0,      18.37,    19.93,    20.45,    15.34,    17.76
      195.0,      18.35,    19.91,    20.43,    15.32,    17.74
      196.0,      18.33,    19.88,    20.40,    15.30,    17.71
      197.0,      18.30,    19.86,    20.38,    15.28,    17.69
      198.0,      18.28,    19.84,    20.36,    15.26,    17.67
      199.0,      18.26,    19.82,    20.34,    15.24,    17.65
      200.0,      18.24,    19.79,    20.32,    15.22,    17.63
      201.0,      18.22,    19.77,    20.30,    15.20,    17.61
      202.0,      18.20,    19.75,    20.28,    15.17,    17.59
      203.0,      18.17,    19.72,    20.25,    15.15,    17.57
      204.0,      18.15,    19.70,    20.23,    15.13,    17.55
      205.0,      18.13,    19.68,    20.21,    15.11,    17.53
      206.0,      18.11,    19.66,    20.19,    15.09,    17.50
      207.0,      18.09,    19.64,    20.17,    15.07,    17.48
      208.0,      18.07,    19.61,    20.15,    15.05,    17.46
      209.0,      18.05,    19.59,    20.13,    15.03,    17.44
      210.0,      18.03,    19.57,    20.11,    15.01,    17.42
      211.0,      18.01,    19.55,    20.09,    14.99,    17.40
      212.0,      17.99,    19.53,    20.07,    14.97,    17.38
      213.0,      17.97,    19.50,    20.04,    14.95,    17.36
      214.0,      17.95,    19.48,    20.02,    14.93,    17.34
      215.0,      17.93,    19.46,    20.00,    14.92,    17.32
      216.0,      17.91,    19.44,    19.98,    14.90,    17.30
      217.0,      17.89,    19.42,    19.96,    14.88,    17.28
      218.0,      17.87,    19.40,    19.94,    14.86,    17.27
      219.0,      17.85,    19.38,    19.92,    14.84,    17.25
      220.0,      17.83,    19.36,    19.90,    14.82,    17.23
      221.0,      17.81,    19.33,    19.88,    14.80,    17.21
      222.0,      17.79,    19.31,    19.86,    14.78,    17.19
      223.0,      17.77,    19.29,    19.84,    14.76,    17.17
      224.0,      17.75,    19.27,    19.82,    14.74,    17.15
      225.0,      17.73,    19.25,    19.80,    14.72,    17.13
      226.0,      17.71,    19.23,    19.78,    14.70,    17.11
      227.0,      17.69,    19.21,    19.76,    14.68,    17.09
      228.0,      17.67,    19.19,    19.74,    14.66,    17.07
      229.0,      17.65,    19.17,    19.72,    14.64,    17.06
      230.0,      17.63,    19.15,    19.70,    14.63,    17.04
      231.0,      17.61,    19.13,    19.68,    14.61,    17.02
      232.0,      17.59,    19.11,    19.66,    14.59,    17.00
      233.0,      17.57,    19.09,    19.64,    14.57,    16.98
      234.0,      17.55,    19.07,    19.62,    14.55,    16.96
      235.0,      17.53,    19.05,    19.60,    14.53,    16.94
      236.0,      17.51,    19.03,    19.58,    14.51,    16.93
      237.0,      17.49,    19.01,    19.56,    14.49,    16.91
      238.0,      17.47,    18.99,    19.54,    14.47,    16.89
      239.0,      17.45,    18.97,    19.52,    14.46,    16.87
      240.0,      17.43,    18.95,    19.50,    14.44,    16.85
      241.0,      17.41,    18.93,    19.48,    14.42,    16.84
      242.0,      17.40,    18.91,    19.46,    14.40,    16.82
      243.0,      17.38,    18.89,    19.44,    14.38,    16.80
      244.0,      17.36,    18.87,    19.42,    14.36,    16.78
      245.0,      17.34,    18.85,    19.40,    14.34,    16.76
      246.0,      17.32,    18.83,    19.38,    14.32,    16.75
      247.0,      17.30,    18.81,    19.36,    14.31,    16.73
      248.0,      17.28,    18.79,    19.34,    14.29,    16.71
      249.0,      17.26,    18.77,    19.32,    14.27,    16.69
      250.0,      17.24,    18.75,    19.30,    14.25,    16.68
      251.0,      17.23,    18.73,    19.28,    14.23,    16.66
      252.0,      17.21,    18.71,    19.26,    14.21,    16.64
      253.0,      17.19,    18.69,    19.24,    14.20,    16.62
      254.0,      17.17,    18.67,    19.22,    14.18,    16.61
      255.0,      17.15,    18.65,    19.20,    14.16,    16.59
      256.0,      17.13,    18.63,    19.19,    14.14,    16.57
      257.0,      17.11,    18.61,    19.17,    14.12,    16.55
      258.0,      17.10,    18.59,    19.15,    14.10,    16.54
      259.0,      17.08,    18.57,    19.13,    14.09,    16.52
      260.0,      17.06,    18.56,    19.11,    14.07,    16.50
      261.0,      17.04,    18.54,    19.09,    14.05,    16.48
      262.0,      17.02,    18.52,    19.07,    14.03,    16.47
      263.0,      17.00,    18.50,    19.05,    14.01,    16.45
      264.0,      16.99,    18.48,    19.03,    14.00,    16.43
      265.0,      16.97,    18.46,    19.01,    13.98,    16.42
      266.0,      16.95,    18.44,    18.99,    13.96,    16.40
      267.0,      16.93,    18.42,    18.97,    13.94,    16.38
      268.0,      16.91,    18.40,    18.96,    13.92,    16.37
      269.0,      16.89,    18.38,    18.94,    13.91,    16.35
      270.0,      16.88,    18.37,    18.92,    13.89,    16.33
      271.0,      16.86,    18.35,    18.90,    13.87,    16.31
      272.0,      16.84,    18.33,    18.88,    13.85,    16.30
      273.0,      16.82,    18.31,    18.86,    13.84,    16.28
      274.0,      16.80,    18.29,    18.84,    13.82,    16.26
      275.0,      16.79,    18.27,    18.82,    13.80,    16.25
      276.0,      16.77,    18.25,    18.80,    13.78,    16.23
      277.0,      16.75,    18.23,    18.78,    13.76,    16.21
      278.0,      16.73,    18.22,    18.77,    13.75,    16.20
      279.0,      16.71,    18.20,    18.75,    13.73,    16.18
      280.0,      16.70,    18.18,    18.73,    13.71,    16.16
      281.0,      16.68,    18.16,    18.71,    13.69,    16.15
      282.0,      16.66,    18.14,    18.69,    13.68,    16.13
      283.0,      16.64,    18.12,    18.67,    13.66,    16.11
      284.0,      16.62,    18.11,    18.65,    13.64,    16.10
      285.0,      16.61,    18.09,    18.63,    13.62,    16.08
      286.0,      16.59,    18.07,    18.62,    13.61,    16.06
      287.0,      16.57,    18.05,    18.60,    13.59,    16.05
      288.0,      16.55,    18.03,    18.58,    13.57,    16.03
      289.0,      16.54,    18.01,    18.56,    13.55,    16.02
      290.0,      16.52,    18.00,    18.54,    13.54,    16.00
      291.0,      16.50,    17.98,    18.52,    13.52,    15.98
      292.0,      16.48,    17.96,    18.50,    13.50,    15.97
      293.0,      16.47,    17.94,    18.48,    13.48,    15.95
      294.0,      16.45,    17.92,    18.47,    13.47,    15.93
      295.0,      16.43,    17.90,    18.45,    13.45,    15.92
      296.0,      16.41,    17.89,    18.43,    13.43,    15.90
      297.0,      16.40,    17.87,    18.41,    13.42,    15.89
      298.0,      16.38,    17.85,    18.39,    13.40,    15.87
      299.0,      16.36,    17.83,    18.37,    13.38,    15.85
      300.0,      16.34,    17.81,    18.36,    13.36,    15.84
      301.0,      16.33,    17.80,    18.34,    13.35,    15.82
      302.0,      16.31,    17.78,    18.32,    13.33,    15.81
      303.0,      16.29,    17.76,    18.30,    13.31,    15.79
      304.0,      16.27,    17.74,    18.28,    13.30,    15.77
      305.0,      16.26,    17.72,    18.26,    13.28,    15.76
      306.0,      16.24,    17.71,    18.25,    13.26,    15.74
      307.0,      16.22,    17.69,    18.23,    13.25,    15.73
      308.0,      16.20,    17.67,    18.21,    13.23,    15.71
      309.0,      16.19,    17.65,    18.19,    13.21,    15.69
      310.0,      16.17,    17.63,    18.17,    13.19,    15.68
