Radius (km), Mean (m/s), NE (m/s), SE (m/s), SW (m/s), NW (m/s)
        0.0,       0.00,     0.00,     0.00,     0.00,     0.00
        1.0,       1.69,     1.70,     1.64,     1.74,     1.70
        2.0,       2.66,     2.66,     2.60,     2.70,     2.66
        3.0,       3.46,     3.46,     3.41,     3.49,     3.46
        4.0,       4.17,     4.17,     4.13,     4.19,     4.17
        5.0,       4.82,     4.82,     4.80,     4.83,     4.82
        6.0,       5.42,     5.42,     5.42,     5.42,     5.42
        7.0,       5.99,     5.99,     6.00,     5.98,     5.99
        8.0,       6.53,     6.54,     6.56,     6.51,     6.53
        9.0,       7.05,     7.05,     7.10,     7.01,     7.05
       10.0,       7.55,     7.55,     7.62,     7.49,     7.55
       11.0,       8.04,     8.03,     8.12,     7.96,     8.03
       12.0,       8.50,     8.50,     8.60,     8.41,     8.50
       13.0,       8.96,     8.95,     9.07,     8.85,     8.95
       14.0,       9.40,     9.39,     9.53,     9.28,     9.39
       15.0,       9.83,     9.82,     9.98,     9.69,     9.82
       16.0,      10.25,    10.24,    10.42,    10.10,    10.24
       17.0,      10.66,    10.66,    10.85,    10.49,    10.65
       18.0,      11.07,    11.06,    11.28,    10.88,    11.05
       19.0,      11.46,    11.45,    11.69,    11.26,    11.45
       20.0,      11.85,    11.84,    12.10,    11.63,    11.84
       21.0,      12.23,    12.22,    12.50,    12.00,    12.22
       22.0,      12.61,    12.59,    12.89,    12.36,    12.59
       23.0,      12.98,    12.96,    13.28,    12.71,    12.96
       24.0,      13.34,    13.33,    13.66,    13.06,    13.32
       25.0,      13.70,    13.68,    14.04,    13.40,    13.68
       26.0,      14.05,    14.04,    14.41,    13.74,    14.03
       27.0,      14.40,    14.38,    14.78,    14.07,    14.38
       28.0,      14.75,    14.73,    15.14,    14.40,    14.72
       29.0,      15.09,    15.07,    15.50,    14.73,    15.06
       30.0,      15.42,    15.40,    15.85,    15.05,    15.39
       31.0,      15.76,    15.73,    16.21,    15.36,    15.72
       32.0,      16.08,    16.06,    16.55,    15.68,    16.05
       33.0,      16.41,    16.38,    16.90,    15.98,    16.37
       34.0,      16.73,    16.70,    17.24,    16.29,    16.69
       35.0,      17.05,    17.02,    17.57,    16.59,    17.01
       36.0,      17.36,    17.33,    17.91,    16.89,    17.32
       37.0,      17.68,    17.64,    18.24,    17.19,    17.63
       38.0,      17.98,    17.95,    18.56,    17.48,    17.94
       39.0,      18.29,    18.26,    18.89,    17.77,    18.25
       40.0,      18.59,    18.56,    19.21,    18.06,    18.55
       41.0,      18.90,    18.86,    19.53,    18.34,    18.85
       42.0,      19.19,    19.16,    19.85,    18.63,    19.14
       43.0,      19.49,    19.45,    20.16,    18.91,    19.44
       44.0,      19.78,    19.74,    20.47,    19.19,    19.73
       45.0,      20.07,    20.03,    20.78,    19.46,    20.02
       46.0,      20.36,    20.32,    21.09,    19.73,    20.31
       47.0,      20.65,    20.61,    21.39,    20.01,    20.59
       48.0,      20.93,    20.89,    21.70,    20.27,    20.88
       49.0,      21.22,    21.17,    22.00,    20.54,    21.16
       50.0,      21.50,    21.45,    22.29,    20.81,    21.44
       51.0,      21.77,    21.73,    22.59,    21.07,    21.71
       52.0,      22.05,    22.00,    22.89,    21.33,    21.99
       53.0,      22.33,    22.28,    23.18,    21.59,    22.26
       54.0,      22.60,    22.55,    23.47,    21.85,    22.53
       55.0,      22.87,    22.82,    23.76,    22.10,    22.80
       56.0,      23.14,    23.09,    24.05,    22.36,    23.07
       57.0,      23.41,    23.35,    24.33,    22.61,    23.34
       58.0,      23.67,    23.62,    24.62,    22.86,    23.60
       59.0,      23.94,    23.88,    24.90,    23.11,    23.86
       60.0,      24.21,    24.14,    25.20,    23.37,    24.14
       61.0,      24.50,    24.40,    25.51,    23.65,    24.43
       62.0,      24.82,    24.67,    25.87,    23.96,    24.77
       63.0,      25.17,    24.95,    26.26,    24.31,    25.15
       64.0,      25.56,    25.26,    26.70,    24.70,    25.57
       65.0,      25.97,    25.60,    27.16,    25.11,    26.02
       66.0,      26.40,    25.97,    27.63,    25.53,    26.49
       67.0,      26.82,    26.35,    28.07,    25.94,    26.93
       68.0,      27.20,    26.72,    28.47,    26.29,    27.32
       69.0,      27.52,    27.07,    28.79,    26.58,    27.63
       70.0,      27.75,    27.36,    29.02,    26.78,    27.85
       71.0,      27.89,    27.58,    29.15,    26.89,    27.95
       72.0,      27.93,    27.70,    29.18,    26.91,    27.95
       73.0,      27.89,    27.74,    29.12,    26.84,    27.85
       74.0,      27.77,    27.69,    28.99,    26.71,    27.67
       75.0,      27.59,    27.56,    28.82,    26.54,    27.44
       76.0,      27.38,    27.37,    28.62,    26.34,    27.19
       77.0,      27.15,    27.15,    28.41,    26.13,    26.92
       78.0,      26.93,    26.91,    28.21,    25.93,    26.66
       79.0,      26.71,    26.68,    28.01,    25.74,    26.42
       80.0,      26.51,    26.45,    27.83,    25.56,    26.18
       81.0,      26.31,    26.25,    27.66,    25.38,    25.96
       82.0,      26.13,    26.05,    27.49,    25.22,    25.75
       83.0,      25.95,    25.87,    27.33,    25.06,    25.55
       84.0,      25.78,    25.69,    27.17,    24.91,    25.35
       85.0,      25.61,    25.51,    27.02,    24.76,    25.16
       86.0,      25.45,    25.34,    26.87,    24.61,    24.98
       87.0,      25.29,    25.18,    26.72,    24.47,    24.80
       88.0,      25.14,    25.01,    26.59,    24.34,    24.63
       89.0,      25.00,    24.86,    26.45,    24.21,    24.47
       90.0,      24.85,    24.70,    26.32,    24.09,    24.31
       91.0,      24.71,    24.55,    26.19,    23.96,    24.15
       92.0,      24.58,    24.40,    26.07,    23.85,    24.01
       93.0,      24.45,    24.26,    25.95,    23.73,    23.86
       94.0,      24.32,    24.11,    25.83,    23.62,    23.72
       95.0,      24.20,    23.97,    25.72,    23.52,    23.59
       96.0,      24.08,    23.84,    25.61,    23.41,    23.46
       97.0,      23.96,    23.71,    25.51,    23.31,    23.34
       98.0,      23.85,    23.57,    25.40,    23.22,    23.21
       99.0,      23.74,    23.45,    25.30,    23.12,    23.10
      100.0,      23.64,    23.32,    25.20,    23.03,    22.98
      101.0,      23.53,    23.20,    25.11,    22.94,    22.87
      102.0,      23.43,    23.08,    25.02,    22.86,    22.77
      103.0,      23.33,    22.96,    24.93,    22.77,    22.67
      104.0,      23.24,    22.85,    24.84,    22.69,    22.57
      105.0,      23.14,    22.73,    24.76,    22.61,    22.47
      106.0,      23.05,    22.62,    24.67,    22.54,    22.38
      107.0,      22.96,    22.51,    24.59,    22.46,    22.29
      108.0,      22.88,    22.40,    24.51,    22.39,    22.20
      109.0,      22.79,    22.30,    24.44,    22.32,    22.11
      110.0,      22.71,    22.19,    24.36,    22.26,    22.03
      111.0,      22.63,    22.09,    24.29,    22.19,    21.95
      112.0,      22.55,    21.99,    24.22,    22.12,    21.87
      113.0,      22.48,    21.89,    24.15,    22.06,    21.80
      114.0,      22.40,    21.80,    24.09,    22.00,    21.72
      115.0,      22.33,    21.70,    24.02,    21.94,    21.65
      116.0,      22.26,    21.61,    23.96,    21.88,    21.58
      117.0,      22.19,    21.51,    23.89,    21.83,    21.52
      118.0,      22.12,    21.42,    23.83,    21.77,    21.45
      119.0,      22.05,    21.33,    23.77,    21.72,    21.39
      120.0,      21.99,    21.24,    23.71,    21.67,    21.32
      121.0,      21.92,    21.16,    23.66,    21.62,    21.26
      122.0,      21.86,    21.07,    23.60,    21.57,    21.21
      123.0,      21.80,    20.99,    23.55,    21.52,    21.15
      124.0,      21.74,    20.90,    23.49,    21.47,    21.09
      125.0,      21.68,    20.82,    23.44,    21.42,    21.04
      126.0,      21.62,    20.74,    23.39,    21.38,    20.99
      127.0,      21.57,    20.66,    23.34,    21.33,    20.93
      128.0,      21.51,    20.58,    23.29,    21.29,    20.88
      129.0,      21.46,    20.50,    23.24,    21.25,    20.83
      130.0,      21.40,    20.43,    23.20,    21.21,    20.79
      131.0,      21.35,    20.35,    23.15,    21.17,    20.74
      132.0,      21.30,    20.27,    23.11,    21.13,    20.69
      133.0,      21.25,    20.20,    23.06,    21.09,    20.65
      134.0,      21.20,    20.13,    23.02,    21.05,    20.61
      135.0,      21.15,    20.05,    22.98,    21.01,    20.56
      136.0,      21.10,    19.98,    22.93,    20.97,    20.52
      137.0,      21.05,    19.91,    22.89,    20.94,    20.48
      138.0,      21.01,    19.84,    22.85,    20.90,    20.44
      139.0,      20.96,    19.77,    22.81,    20.87,    20.40
      140.0,      20.92,    19.70,    22.77,    20.83,    20.36
      141.0,      20.87,    19.63,    22.73,    20.80,    20.32
      142.0,      20.83,    19.57,    22.70,    20.76,    20.29
      143.0,      20.78,    19.50,    22.66,    20.73,    20.25
      144.0,      20.74,    19.43,    22.62,    20.70,    20.21
      145.0,      20.70,    19.37,    22.59,    20.67,    20.18
      146.0,      20.66,    19.30,    22.55,    20.63,    20.14
      147.0,      20.62,    19.24,    22.51,    20.60,    20.11
      148.0,      20.58,    19.17,    22.48,    20.57,    20.08
      149.0,      20.54,    19.11,    22.45,    20.54,    20.04
      150.0,      20.50,    19.05,    22.41,    20.51,    20.01
      151.0,      20.46,    18.99,    22.38,    20.48,    19.98
      152.0,      20.42,    18.92,    22.35,    20.46,    19.95
      153.0,      20.38,    18.86,    22.31,    20.43,    19.92
      154.0,      20.34,    18.80,    22.28,    20.40,    19.89
      155.0,      20.30,    18.74,    22.25,    20.37,    19.86
      156.0,      20.27,    18.68,    22.22,    20.34,    19.83
      157.0,      20.23,    18.62,    22.19,    20.32,    19.80
      158.0,      20.20,    18.56,    22.16,    20.29,    19.77
      159.0,      20.16,    18.51,    22.13,    20.26,    19.74
      160.0,      20.12,    18.45,    22.10,    20.24,    19.72
      161.0,      20.09,    18.39,    22.07,    20.21,    19.69
      162.0,      20.05,    18.33,    22.04,    20.18,    19.66
      163.0,      20.02,    18.28,    22.01,    20.16,    19.63
      164.0,      19.98,    18.22,    21.98,    20.13,    19.61
      165.0,      19.95,    18.16,    21.95,    20.11,    19.58
      166.0,      19.92,    18.11,    21.92,    20.08,    19.55
      167.0,      19.88,    18.05,    21.89,    20.06,    19.53
      168.0,      19.85,    18.00,    21.87,    20.03,    19.50
      169.0,      19.82,    17.94,    21.84,    20.01,    19.48
      170.0,      19.78,    17.89,    21.81,    19.98,    19.45
      171.0,      19.75,    17.83,    21.78,    19.96,    19.43
      172.0,      19.72,    17.78,    21.76,    19.94,    19.40
      173.0,      19.69,    17.73,    21.73,    19.91,    19.38
      174.0,      19.66,    17.67,    21.71,    19.89,    19.36
      175.0,      19.62,    17.62,    21.68,    19.87,    19.33
      176.0,      19.59,    17.57,    21.65,    19.84,    19.31
      177.0,      19.56,    17.52,    21.63,    19.82,    19.28
      178.0,      19.53,    17.46,    21.60,    19.80,    19.26
      179.0,      19.50,    17.41,    21.58,    19.78,    19.24
      180.0,      19.47,    17.36,    21.55,    19.75,    19.22
      181.0,      19.44,    17.31,    21.53,    19.73,    19.19
      182.0,      19.41,    17.26,    21.50,    19.71,    19.17
      183.0,      19.38,    17.21,    21.48,    19.69,    19.15
      184.0,      19.35,    17.16,    21.45,    19.66,    19.13
      185.0,      19.32,    17.11,    21.43,    19.64,    19.10
      186.0,      19.29,    17.06,    21.40,    19.62,    19.08
      187.0,      19.26,    17.01,    21.38,    19.60,    19.06
      188.0,      19.23,    16.96,    21.35,    19.58,    19.04
      189.0,      19.20,    16.91,    21.33,    19.56,    19.02
      190.0,      19.17,    16.86,    21.31,    19.53,    18.99
      191.0,      19.14,    16.81,    21.28,    19.51,    18.97
      192.0,      19.12,    16.76,    21.26,    19.49,    18.95
      193.0,      19.09,    16.72,    21.23,    19.47,    18.93
      194.0,      19.06,    16.67,    21.21,    19.45,    18.91
      195.0,      19.03,    16.62,    21.19,    19.43,    18.89
      196.0,      19.00,    16.57,    21.16,    19.41,    18.87
      197.0,      18.97,    16.52,    21.14,    19.39,    18.85
      198.0,      18.95,    16.48,    21.12,    19.37,    18.83
      199.0,      18.92,    16.43,    21.10,    19.34,    18.81
      200.0,      18.89,    16.38,    21.07,    19.32,    18.79
      201.0,      18.86,    16.34,    21.05,    19.30,    18.77
      202.0,      18.84,    16.29,    21.03,    19.28,    18.75
      203.0,      18.81,    16.24,    21.00,    19.26,    18.73
      204.0,      18.78,    16.20,    20.98,    19.24,    18.70
      205.0,      18.75,    16.15,    20.96,    19.22,    18.68
      206.0,      18.73,    16.10,    20.94,    19.20,    18.66
      207.0,      18.70,    16.06,    20.91,    19.18,    18.65
      208.0,      18.67,    16.01,    20.89,    19.16,    18.63
      209.0,      18.65,    15.97,    20.87,    19.14,    18.61
      210.0,      18.62,    15.92,    20.85,    19.12,    18.59
      211.0,      18.59,    15.88,    20.83,    19.10,    18.57
      212.0,      18.57,    15.83,    20.80,    19.08,    18.55
      213.0,      18.54,    15.79,    20.78,    19.06,    18.53
      214.0,      18.51,    15.74,    20.76,    19.04,    18.51
      215.0,      18.49,    15.70,    20.74,    19.02,    18.49
      216.0,      18.46,    15.66,    20.72,    19.00,    18.47
      217.0,      18.43,    15.61,    20.70,    18.98,    18.45
      218.0,      18.41,    15.57,    20.67,    18.96,    18.43
      219.0,      18.38,    15.52,    20.65,    18.94,    18.41
      220.0,      18.36,    15.48,    20.63,    18.93,    18.39
      221.0,      18.33,    15.44,    20.61,    18.91,    18.37
      222.0,      18.31,    15.39,    20.59,    18.89,    18.35
      223.0,      18.28,    15.35,    20.57,    18.87,    18.33
      224.0,      18.25,    15.31,    20.55,    18.85,    18.32
      225.0,      18.23,    15.26,    20.52,    18.83,    18.30
      226.0,      18.20,    15.22,    20.50,    18.81,    18.28
      227.0,      18.18,    15.18,    20.48,    18.79,    18.26
      228.0,      18.15,    15.14,    20.46,    18.77,    18.24
      229.0,      18.13,    15.09,    20.44,    18.75,    18.22
      230.0,      18.10,    15.05,    20.42,    18.73,    18.20
      231.0,      18.08,    15.01,    20.40,    18.71,    18.18
      232.0,      18.05,    14.97,    20.38,    18.69,    18.17
      233.0,      18.03,    14.93,    20.36,    18.68,    18.15
      234.0,      18.00,    14.89,    20.33,    18.66,    18.13
      235.0,      17.98,    14.84,    20.31,    18.64,    18.11
      236.0,      17.95,    14.80,    20.29,    18.62,    18.09
      237.0,      17.93,    14.76,    20.27,    18.60,    18.07
      238.0,      17.90,    14.72,    20.25,    18.58,    18.05
      239.0,      17.88,    14.68,    20.23,    18.56,    18.04
      240.0,      17.85,    14.64,    20.21,    18.54,    18.02
      241.0,      17.83,    14.60,    20.19,    18.52,    18.00
      242.0,      17.80,    14.56,    20.17,    18.51,    17.98
      243.0,      17.78,    14.52,    20.15,    18.49,    17.96
      244.0,      17.75,    14.48,    20.13,    18.47,    17.94
      245.0,      17.73,    14.44,    20.11,    18.45,    17.93
      246.0,      17.71,    14.40,    20.09,    18.43,    17.91
      247.0,      17.68,    14.36,    20.07,    18.41,    17.89
      248.0,      17.66,    14.32,    20.05,    18.39,    17.87
      249.0,      17.63,    14.28,    20.03,    18.37,    17.85
      250.0,      17.61,    14.24,    20.01,    18.36,    17.84
      251.0,      17.58,    14.20,    19.99,    18.34,    17.82
      252.0,      17.56,    14.16,    19.97,    18.32,    17.80
      253.0,      17.54,    14.12,    19.95,    18.30,    17.78
      254.0,      17.51,    14.08,    19.93,    18.28,    17.76
      255.0,      17.49,    14.04,    19.90,    18.26,    17.75
      256.0,      17.46,    14.00,    19.88,    18.25,    17.73
      257.0,      17.44,    13.96,    19.86,    18.23,    17.71
      258.0,      17.42,    13.92,    19.84,    18.21,    17.69
      259.0,      17.39,    13.89,    19.82,    18.19,    17.67
      260.0,      17.37,    13.85,    19.80,    18.17,    17.66
      261.0,      17.35,    13.81,    19.78,    18.15,    17.64
      262.0,      17.32,    13.77,    19.76,    18.14,    17.62
      263.0,      17.30,    13.73,    19.74,    18.12,    17.60
      264.0,      17.28,    13.69,    19.72,    18.10,    17.59
      265.0,      17.25,    13.66,    19.71,    18.08,    17.57
      266.0,      17.23,    13.62,    19.69,    18.06,    17.55
      267.0,      17.21,    13.58,    19.67,    18.04,    17.53
      268.0,      17.18,    13.54,    19.65,    18.03,    17.51
      269.0,      17.16,    13.51,    19.63,    18.01,    17.50
      270.0,      17.14,    13.47,    19.61,    17.99,    17.48
      271.0,      17.11,    13.43,    19.59,    17.97,    17.46
      272.0,      17.09,    13.39,    19.57,    17.95,    17.44
      273.0,      17.07,    13.36,    19.55,    17.94,    17.43
      274.0,      17.04,    13.32,    19.53,    17.92,    17.41
      275.0,      17.02,    13.28,    19.51,    17.90,    17.39
      276.0,      17.00,    13.25,    19.49,    17.88,    17.37
      277.0,      16.98,    13.21,    19.47,    17.86,    17.36
      278.0,      16.95,    13.17,    19.45,    17.85,    17.34
      279.0,      16.93,    13.14,    19.43,    17.83,    17.32
      280.0,      16.91,    13.10,    19.41,    17.81,    17.30
      281.0,      16.88,    13.06,    19.39,    17.79,    17.29
      282.0,      16.86,    13.03,    19.37,    17.78,    17.27
      283.0,      16.84,    12.99,    19.35,    17.76,    17.25
      284.0,      16.82,    12.96,    19.33,    17.74,    17.24
      285.0,      16.79,    12.92,    19.31,    17.72,    17.22
      286.0,      16.77,    12.89,    19.29,    17.70,    17.20
      287.0,      16.75,    12.85,    19.27,    17.69,    17.18
      288.0,      16.73,    12.81,    19.25,    17.67,    17.17
      289.0,      16.70,    12.78,    19.24,    17.65,    17.15
      290.0,      16.68,    12.74,    19.22,    17.63,    17.13
      291.0,      16.66,    12.71,    19.20,    17.62,    17.12
      292.0,      16.64,    12.67,    19.18,    17.60,    17.10
      293.0,      16.61,    12.64,    19.16,    17.58,    17.08
      294.0,      16.59,    12.60,    19.14,    17.56,    17.06
      295.0,      16.57,    12.57,    19.12,    17.55,    17.05
      296.0,      16.55,    12.53,    19.10,    17.53,    17.03
      297.0,      16.53,    12.50,    19.08,    17.51,    17.01
      298.0,      16.50,    12.46,    19.06,    17.49,    17.00
      299.0,      16.48,    12.43,    19.04,    17.48,    16.98
      300.0,      16.46,    12.40,    19.02,    17.46,    16.96
      301.0,      16.44,    12.36,    19.01,    17.44,    16.94
      302.0,      16.42,    12.33,    18.99,    17.42,    16.93
      303.0,      16.39,    12.29,    18.97,    17.41,    16.91
      304.0,      16.37,    12.26,    18.95,    17.39,    16.89
      305.0,      16.35,    12.23,    18.93,    17.37,    16.88
      306.0,      16.33,    12.19,    18.91,    17.35,    16.86
      307.0,      16.31,    12.16,    18.89,    17.34,    16.84
      308.0,      16.29,    12.13,    18.87,    17.32,    16.83
      309.0,      16.26,    12.09,    18.85,    17.30,    16.81
      310.0,      16.24,    12.06,    18.83,    17.28,    16.79
