Radius (km), Mean (m/s), NE (m/s), SE (m/s), SW (m/s), NW (m/s)
        0.0,       0.00,     0.00,     0.00,     0.00,     0.00
        1.0,       3.50,     3.23,     3.52,     3.72,     3.52
        2.0,       6.02,     5.89,     6.08,     6.05,     6.06
        3.0,       8.35,     8.44,     8.47,     8.10,     8.39
        4.0,      10.66,    11.03,    10.86,    10.06,    10.69
        5.0,      13.07,    13.78,    13.36,    12.05,    13.09
        6.0,      15.62,    16.75,    16.02,    14.11,    15.62
        7.0,      18.32,    19.93,    18.81,    16.25,    18.30
        8.0,      21.11,    23.27,    21.66,    18.45,    21.07
        9.0,      23.90,    26.65,    24.49,    20.63,    23.84
       10.0,      26.56,    29.91,    27.14,    22.70,    26.50
       11.0,      28.97,    32.90,    29.51,    24.57,    28.91
       12.0,      31.03,    35.49,    31.49,    26.15,    30.97
       13.0,      32.64,    37.56,    33.02,    27.40,    32.60
       14.0,      33.79,    39.05,    34.07,    28.28,    33.76
       15.0,      34.47,    39.98,    34.66,    28.80,    34.46
       16.0,      34.74,    40.39,    34.85,    29.00,    34.74
       17.0,      34.68,    40.37,    34.73,    28.95,    34.68
       18.0,      34.38,    40.04,    34.39,    28.71,    34.38
       19.0,      33.93,    39.51,    33.93,    28.36,    33.93
       20.0,      33.42,    38.90,    33.42,    27.95,    33.41
       21.0,      32.90,    38.27,    32.90,    27.54,    32.88
       22.0,      32.40,    37.65,    32.41,    27.15,    32.37
       23.0,      31.92,    37.08,    31.95,    26.77,    31.89
       24.0,      31.47,    36.53,    31.50,    26.42,    31.43
       25.0,      31.04,    36.01,    31.07,    26.08,    31.00
       26.0,      30.62,    35.50,    30.66,    25.75,    30.57
       27.0,      30.22,    35.02,    30.26,    25.43,    30.17
       28.0,      29.83,    34.55,    29.88,    25.13,    29.77
       29.0,      29.46,    34.09,    29.51,    24.83,    29.39
       30.0,      29.10,    33.66,    29.16,    24.55,    29.03
       31.0,      28.75,    33.24,    28.82,    24.28,    28.68
       32.0,      28.42,    32.83,    28.49,    24.01,    28.34
       33.0,      28.10,    32.44,    28.18,    23.76,    28.01
       34.0,      27.79,    32.06,    27.87,    23.51,    27.70
       35.0,      27.49,    31.70,    27.58,    23.28,    27.40
       36.0,      27.20,    31.35,    27.29,    23.05,    27.10
       37.0,      26.92,    31.01,    27.02,    22.83,    26.82
       38.0,      26.65,    30.69,    26.76,    22.62,    26.55
       39.0,      26.40,    30.37,    26.51,    22.42,    26.29
       40.0,      26.15,    30.07,    26.26,    22.22,    26.03
       41.0,      25.91,    29.78,    26.03,    22.03,    25.79
       42.0,      25.67,    29.49,    25.80,    21.84,    25.56
       43.0,      25.45,    29.22,    25.58,    21.67,    25.33
       44.0,      25.23,    28.96,    25.37,    21.50,    25.11
       45.0,      25.02,    28.70,    25.17,    21.33,    24.90
       46.0,      24.82,    28.45,    24.97,    21.17,    24.69
       47.0,      24.63,    28.22,    24.78,    21.02,    24.49
       48.0,      24.44,    27.99,    24.60,    20.87,    24.30
       49.0,      24.26,    27.76,    24.42,    20.72,    24.12
       50.0,      24.08,    27.55,    24.25,    20.59,    23.94
       51.0,      23.91,    27.34,    24.09,    20.45,    23.77
       52.0,      23.75,    27.14,    23.93,    20.32,    23.60
       53.0,      23.59,    26.94,    23.78,    20.19,    23.44
       54.0,      23.44,    26.76,    23.63,    20.07,    23.28
       55.0,      23.29,    26.57,    23.48,    19.96,    23.13
       56.0,      23.14,    26.40,    23.35,    19.84,    22.99
       57.0,      23.00,    26.23,    23.21,    19.73,    22.85
       58.0,      22.87,    26.06,    23.08,    19.62,    22.71
       59.0,      22.74,    25.90,    22.96,    19.52,    22.58
       60.0,      22.61,    25.75,    22.84,    19.42,    22.45
       61.0,      22.49,    25.60,    22.72,    19.32,    22.33
       62.0,      22.37,    25.45,    22.61,    19.23,    22.21
       63.0,      22.26,    25.31,    22.50,    19.14,    22.09
       64.0,      22.15,    25.17,    22.39,    19.05,    21.98
       65.0,      22.04,    25.04,    22.29,    18.96,    21.87
       66.0,      21.94,    24.91,    22.19,    18.88,    21.76
       67.0,      21.83,    24.78,    22.10,    18.80,    21.66
       68.0,      21.74,    24.66,    22.00,    18.72,    21.56
       69.0,      21.64,    24.54,    21.91,    18.65,    21.46
       70.0,      21.55,    24.43,    21.82,    18.57,    21.37
       71.0,      21.46,    24.32,    21.74,    18.50,    21.27
       72.0,      21.37,    24.21,    21.66,    18.43,    21.19
       73.0,      21.28,    24.10,    21.58,    18.36,    21.10
       74.0,      21.20,    24.00,    21.50,    18.30,    21.01
       75.0,      21.12,    23.90,    21.43,    18.23,    20.93
       76.0,      21.04,    23.80,    21.35,    18.17,    20.85
       77.0,      20.97,    23.70,    21.28,    18.11,    20.78
       78.0,      20.89,    23.61,    21.21,    18.05,    20.70
       79.0,      20.82,    23.52,    21.15,    17.99,    20.63
       80.0,      20.75,    23.43,    21.08,    17.93,    20.56
       81.0,      20.68,    23.35,    21.02,    17.88,    20.49
       82.0,      20.62,    23.26,    20.96,    17.82,    20.42
       83.0,      20.55,    23.18,    20.90,    17.77,    20.35
       84.0,      20.49,    23.10,    20.84,    17.72,    20.29
       85.0,      20.43,    23.02,    20.78,    17.67,    20.22
       86.0,      20.36,    22.95,    20.73,    17.62,    20.16
       87.0,      20.31,    22.87,    20.67,    17.58,    20.10
       88.0,      20.25,    22.80,    20.62,    17.53,    20.04
       89.0,      20.19,    22.73,    20.57,    17.48,    19.99
       90.0,      20.14,    22.66,    20.52,    17.44,    19.93
       91.0,      20.08,    22.59,    20.47,    17.40,    19.87
       92.0,      20.03,    22.53,    20.42,    17.35,    19.82
       93.0,      19.98,    22.46,    20.38,    17.31,    19.77
       94.0,      19.93,    22.40,    20.33,    17.27,    19.72
       95.0,      19.88,    22.33,    20.29,    17.23,    19.67
       96.0,      19.83,    22.27,    20.24,    17.19,    19.62
       97.0,      19.78,    22.21,    20.20,    17.15,    19.57
       98.0,      19.74,    22.15,    20.16,    17.11,    19.52
       99.0,      19.69,    22.09,    20.12,    17.08,    19.47
      100.0,      19.65,    22.04,    20.08,    17.04,    19.43
      101.0,      19.60,    21.98,    20.04,    17.00,    19.38
      102.0,      19.56,    21.92,    20.00,    16.97,    19.34
      103.0,      19.52,    21.87,    19.96,    16.93,    19.30
      104.0,      19.47,    21.82,    19.93,    16.90,    19.25
      105.0,      19.43,    21.76,    19.89,    16.87,    19.21
      106.0,      19.39,    21.71,    19.85,    16.83,    19.17
      107.0,      19.35,    21.66,    19.82,    16.80,    19.13
      108.0,      19.31,    21.61,    19.79,    16.77,    19.09
      109.0,      19.28,    21.56,    19.75,    16.74,    19.05
      110.0,      19.24,    21.51,    19.72,    16.71,    19.01
      111.0,      19.20,    21.46,    19.69,    16.68,    18.97
      112.0,      19.16,    21.42,    19.65,    16.65,    18.94
      113.0,      19.13,    21.37,    19.62,    16.62,    18.90
      114.0,      19.09,    21.32,    19.59,    16.59,    18.86
      115.0,      19.06,    21.28,    19.56,    16.56,    18.83
      116.0,      19.02,    21.23,    19.53,    16.53,    18.79
      117.0,      18.99,    21.19,    19.50,    16.50,    18.76
      118.0,      18.95,    21.15,    19.47,    16.47,    18.72
      119.0,      18.92,    21.10,    19.44,    16.45,    18.69
      120.0,      18.89,    21.06,    19.42,    16.42,    18.65
      121.0,      18.85,    21.02,    19.39,    16.39,    18.62
      122.0,      18.82,    20.97,    19.36,    16.37,    18.59
      123.0,      18.79,    20.93,    19.33,    16.34,    18.55
      124.0,      18.76,    20.89,    19.31,    16.31,    18.52
      125.0,      18.73,    20.85,    19.28,    16.29,    18.49
      126.0,      18.70,    20.81,    19.25,    16.26,    18.46
      127.0,      18.67,    20.77,    19.23,    16.24,    18.43
      128.0,      18.64,    20.73,    19.20,    16.21,    18.40
      129.0,      18.61,    20.69,    19.18,    16.19,    18.37
      130.0,      18.58,    20.65,    19.15,    16.16,    18.34
      131.0,      18.55,    20.62,    19.13,    16.14,    18.31
      132.0,      18.52,    20.58,    19.10,    16.11,    18.28
      133.0,      18.49,    20.54,    19.08,    16.09,    18.25
      134.0,      18.46,    20.50,    19.05,    16.07,    18.22
      135.0,      18.43,    20.46,    19.03,    16.04,    18.19
      136.0,      18.40,    20.43,    19.01,    16.02,    18.16
      137.0,      18.37,    20.39,    18.98,    16.00,    18.13
      138.0,      18.35,    20.35,    18.96,    15.97,    18.10
      139.0,      18.32,    20.32,    18.94,    15.95,    18.07
      140.0,      18.29,    20.28,    18.91,    15.93,    18.04
      141.0,      18.26,    20.25,    18.89,    15.90,    18.02
      142.0,      18.24,    20.21,    18.87,    15.88,    17.99
      143.0,      18.21,    20.18,    18.85,    15.86,    17.96
      144.0,      18.18,    20.14,    18.82,    15.84,    17.93
      145.0,      18.16,    20.11,    18.80,    15.82,    17.91
      146.0,      18.13,    20.07,    18.78,    15.79,    17.88
      147.0,      18.10,    20.04,    18.76,    15.77,    17.85
      148.0,      18.08,    20.00,    18.74,    15.75,    17.83
      149.0,      18.05,    19.97,    18.71,    15.73,    17.80
      150.0,      18.03,    19.94,    18.69,    15.71,    17.77
      151.0,      18.00,    19.90,    18.67,    15.69,    17.75
      152.0,      17.98,    19.87,    18.65,    15.66,    17.72
      153.0,      17.95,    19.83,    18.63,    15.64,    17.69
      154.0,      17.93,    19.80,    18.61,    15.62,    17.67
      155.0,      17.90,    19.77,    18.59,    15.60,    17.64
      156.0,      17.88,    19.74,    18.57,    15.58,    17.62
      157.0,      17.85,    19.70,    18.55,    15.56,    17.59
      158.0,      17.83,    19.67,    18.53,    15.54,    17.57
      159.0,      17.80,    19.64,    18.51,    15.52,    17.54
      160.0,      17.78,    19.61,    18.49,    15.50,    17.52
      161.0,      17.75,    19.57,    18.47,    15.48,    17.49
      162.0,      17.73,    19.54,    18.45,    15.46,    17.47
      163.0,      17.70,    19.51,    18.43,    15.44,    17.44
      164.0,      17.68,    19.48,    18.41,    15.42,    17.42
      165.0,      17.65,    19.45,    18.39,    15.40,    17.39
      166.0,      17.63,    19.42,    18.37,    15.38,    17.37
      167.0,      17.61,    19.38,    18.35,    15.36,    17.34
      168.0,      17.58,    19.35,    18.33,    15.34,    17.32
      169.0,      17.56,    19.32,    18.31,    15.32,    17.29
      170.0,      17.54,    19.29,    18.29,    15.30,    17.27
      171.0,      17.51,    19.26,    18.27,    15.28,    17.25
      172.0,      17.49,    19.23,    18.25,    15.26,    17.22
      173.0,      17.47,    19.20,    18.23,    15.24,    17.20
      174.0,      17.44,    19.17,    18.21,    15.22,    17.17
      175.0,      17.42,    19.14,    18.19,    15.20,    17.15
      176.0,      17.40,    19.11,    18.17,    15.18,    17.13
      177.0,      17.37,    19.08,    18.15,    15.16,    17.10
      178.0,      17.35,    19.04,    18.13,    15.14,    17.08
      179.0,      17.33,    19.01,    18.11,    15.12,    17.05
      180.0,      17.30,    18.98,    18.10,    15.10,    17.03
      181.0,      17.28,    18.95,    18.08,    15.08,    17.01
      182.0,      17.26,    18.92,    18.06,    15.06,    16.98
      183.0,      17.23,    18.89,    18.04,    15.04,    16.96
      184.0,      17.21,    18.86,    18.02,    15.02,    16.94
      185.0,      17.19,    18.83,    18.00,    15.00,    16.91
      186.0,      17.17,    18.81,    17.98,    14.99,    16.89
      187.0,      17.14,    18.78,    17.96,    14.97,    16.87
      188.0,      17.12,    18.75,    17.95,    14.95,    16.84
      189.0,      17.10,    18.72,    17.93,    14.93,    16.82
      190.0,      17.08,    18.69,    17.91,    14.91,    16.80
      191.0,      17.05,    18.66,    17.89,    14.89,    16.78
      192.0,      17.03,    18.63,    17.87,    14.87,    16.75
      193.0,      17.01,    18.60,    17.85,    14.85,    16.73
      194.0,      16.99,    18.57,    17.84,    14.84,    16.71
      195.0,      16.97,    18.54,    17.82,    14.82,    16.68
      196.0,      16.94,    18.51,    17.80,    14.80,    16.66
      197.0,      16.92,    18.48,    17.78,    14.78,    16.64
      198.0,      16.90,    18.45,    17.76,    14.76,    16.62
      199.0,      16.88,    18.43,    17.74,    14.74,    16.59
      200.0,      16.85,    18.40,    17.73,    14.72,    16.57
      201.0,      16.83,    18.37,    17.71,    14.71,    16.55
      202.0,      16.81,    18.34,    17.69,    14.69,    16.53
      203.0,      16.79,    18.31,    17.67,    14.67,    16.50
      204.0,      16.77,    18.28,    17.65,    14.65,    16.48
      205.0,      16.75,    18.25,    17.64,    14.63,    16.46
      206.0,      16.72,    18.23,    17.62,    14.61,    16.44
      207.0,      16.70,    18.20,    17.60,    14.60,    16.42
      208.0,      16.68,    18.17,    17.58,    14.58,    16.39
      209.0,      16.66,    18.14,    17.57,    14.56,    16.37
      210.0,      16.64,    18.11,    17.55,    14.54,    16.35
      211.0,      16.62,    18.09,    17.53,    14.52,    16.33
      212.0,      16.59,    18.06,    17.51,    14.50,    16.30
      213.0,      16.57,    18.03,    17.49,    14.49,    16.28
      214.0,      16.55,    18.00,    17.48,    14.47,    16.26
      215.0,      16.53,    17.97,    17.46,    14.45,    16.24
      216.0,      16.51,    17.95,    17.44,    14.43,    16.22
      217.0,      16.49,    17.92,    17.42,    14.41,    16.20
      218.0,      16.47,    17.89,    17.41,    14.40,    16.17
      219.0,      16.45,    17.86,    17.39,    14.38,    16.15
      220.0,      16.42,    17.83,    17.37,    14.36,    16.13
      221.0,      16.40,    17.81,    17.35,    14.34,    16.11
      222.0,      16.38,    17.78,    17.34,    14.33,    16.09
      223.0,      16.36,    17.75,    17.32,    14.31,    16.07
      224.0,      16.34,    17.72,    17.30,    14.29,    16.04
      225.0,      16.32,    17.70,    17.28,    14.27,    16.02
      226.0,      16.30,    17.67,    17.27,    14.25,    16.00
      227.0,      16.28,    17.64,    17.25,    14.24,    15.98
      228.0,      16.26,    17.62,    17.23,    14.22,    15.96
      229.0,      16.23,    17.59,    17.21,    14.20,    15.94
      230.0,      16.21,    17.56,    17.20,    14.18,    15.92
      231.0,      16.19,    17.53,    17.18,    14.17,    15.89
      232.0,      16.17,    17.51,    17.16,    14.15,    15.87
      233.0,      16.15,    17.48,    17.15,    14.13,    15.85
      234.0,      16.13,    17.45,    17.13,    14.11,    15.83
      235.0,      16.11,    17.43,    17.11,    14.10,    15.81
      236.0,      16.09,    17.40,    17.09,    14.08,    15.79
      237.0,      16.07,    17.37,    17.08,    14.06,    15.77
      238.0,      16.05,    17.35,    17.06,    14.04,    15.75
      239.0,      16.03,    17.32,    17.04,    14.03,    15.72
      240.0,      16.01,    17.29,    17.02,    14.01,    15.70
      241.0,      15.99,    17.27,    17.01,    13.99,    15.68
      242.0,      15.97,    17.24,    16.99,    13.97,    15.66
      243.0,      15.95,    17.21,    16.97,    13.96,    15.64
      244.0,      15.93,    17.19,    16.96,    13.94,    15.62
      245.0,      15.90,    17.16,    16.94,    13.92,    15.60
      246.0,      15.88,    17.13,    16.92,    13.90,    15.58
      247.0,      15.86,    17.11,    16.91,    13.89,    15.56
      248.0,      15.84,    17.08,    16.89,    13.87,    15.54
      249.0,      15.82,    17.05,    16.87,    13.85,    15.52
      250.0,      15.80,    17.03,    16.85,    13.84,    15.49
      251.0,      15.78,    17.00,    16.84,    13.82,    15.47
      252.0,      15.76,    16.98,    16.82,    13.80,    15.45
      253.0,      15.74,    16.95,    16.80,    13.78,    15.43
      254.0,      15.72,    16.92,    16.79,    13.77,    15.41
      255.0,      15.70,    16.90,    16.77,    13.75,    15.39
      256.0,      15.68,    16.87,    16.75,    13.73,    15.37
      257.0,      15.66,    16.85,    16.74,    13.72,    15.35
      258.0,      15.64,    16.82,    16.72,    13.70,    15.33
      259.0,      15.62,    16.79,    16.70,    13.68,    15.31
      260.0,      15.60,    16.77,    16.69,    13.67,    15.29
      261.0,      15.58,    16.74,    16.67,    13.65,    15.27
      262.0,      15.56,    16.72,    16.65,    13.63,    15.25
      263.0,      15.54,    16.69,    16.64,    13.62,    15.23
      264.0,      15.52,    16.66,    16.62,    13.60,    15.21
      265.0,      15.50,    16.64,    16.60,    13.58,    15.19
      266.0,      15.48,    16.61,    16.59,    13.56,    15.17
      267.0,      15.46,    16.59,    16.57,    13.55,    15.15
      268.0,      15.44,    16.56,    16.55,    13.53,    15.13
      269.0,      15.42,    16.54,    16.54,    13.51,    15.11
      270.0,      15.40,    16.51,    16.52,    13.50,    15.09
      271.0,      15.38,    16.49,    16.50,    13.48,    15.07
      272.0,      15.36,    16.46,    16.49,    13.46,    15.05
      273.0,      15.34,    16.44,    16.47,    13.45,    15.03
      274.0,      15.33,    16.41,    16.45,    13.43,    15.01
      275.0,      15.31,    16.39,    16.44,    13.41,    14.99
      276.0,      15.29,    16.36,    16.42,    13.40,    14.97
      277.0,      15.27,    16.33,    16.41,    13.38,    14.95
      278.0,      15.25,    16.31,    16.39,    13.37,    14.93
      279.0,      15.23,    16.28,    16.37,    13.35,    14.91
      280.0,      15.21,    16.26,    16.36,    13.33,    14.89
      281.0,      15.19,    16.23,    16.34,    13.32,    14.87
      282.0,      15.17,    16.21,    16.32,    13.30,    14.85
      283.0,      15.15,    16.18,    16.31,    13.28,    14.83
      284.0,      15.13,    16.16,    16.29,    13.27,    14.81
      285.0,      15.11,    16.14,    16.27,    13.25,    14.79
      286.0,      15.09,    16.11,    16.26,    13.23,    14.77
      287.0,      15.07,    16.09,    16.24,    13.22,    14.75
      288.0,      15.05,    16.06,    16.23,    13.20,    14.73
      289.0,      15.03,    16.04,    16.21,    13.18,    14.71
      290.0,      15.02,    16.01,    16.19,    13.17,    14.69
      291.0,      15.00,    15.99,    16.18,    13.15,    14.67
      292.0,      14.98,    15.96,    16.16,    13.14,    14.65
      293.0,      14.96,    15.94,    16.14,    13.12,    14.63
      294.0,      14.94,    15.91,    16.13,    13.10,    14.61
      295.0,      14.92,    15.89,    16.11,    13.09,    14.59
      296.0,      14.90,    15.86,    16.10,    13.07,    14.57
      297.0,      14.88,    15.84,    16.08,    13.05,    14.55
      298.0,      14.86,    15.82,    16.06,    13.04,    14.53
      299.0,      14.84,    15.79,    16.05,    13.02,    14.51
      300.0,      14.82,    15.77,    16.03,    13.01,    14.49
      301.0,      14.81,    15.74,    16.02,    12.99,    14.47
      302.0,      14.79,    15.72,    16.00,    12.97,    14.45
      303.0,      14.77,    15.69,    15.98,    12.96,    14.44
      304.0,      14.75,    15.67,    15.97,    12.94,    14.42
      305.0,      14.73,    15.65,    15.95,    12.93,    14.40
      306.0,      14.71,    15.62,    15.94,    12.91,    14.38
      307.0,      14.69,    15.60,    15.92,    12.89,    14.36
      308.0,      14.67,    15.57,    15.90,    12.88,    14.34
      309.0,      14.66,    15.55,    15.89,    12.86,    14.32
      310.0,      14.64,    15.53,    15.87,    12.85,    14.30
