Radius (km), Mean (m/s), NE (m/s), SE (m/s), SW (m/s), NW (m/s)
        0.0,       0.00,     0.00,     0.00,     0.00,     0.00
        1.0,       3.52,     3.27,     3.54,     3.73,     3.54
        2.0,       6.04,     5.92,     6.09,     6.06,     6.07
        3.0,       8.35,     8.45,     8.46,     8.10,     8.38
        4.0,      10.64,    11.01,    10.82,    10.05,    10.67
        5.0,      13.01,    13.72,    13.28,    12.02,    13.03
        6.0,      15.53,    16.62,    15.89,    14.07,    15.52
        7.0,      18.18,    19.73,    18.62,    16.20,    18.16
        8.0,      20.91,    22.98,    21.42,    18.37,    20.87
        9.0,      23.64,    26.26,    24.18,    20.53,    23.59
       10.0,      26.24,    29.43,    26.78,    22.58,    26.19
       11.0,      28.60,    32.34,    29.10,    24.43,    28.55
       12.0,      30.61,    34.85,    31.04,    26.00,    30.57
       13.0,      32.20,    36.87,    32.55,    27.23,    32.16
       14.0,      33.34,    38.34,    33.59,    28.11,    33.31
       15.0,      34.02,    39.26,    34.19,    28.63,    34.01
       16.0,      34.31,    39.68,    34.40,    28.84,    34.30
       17.0,      34.27,    39.70,    34.31,    28.80,    34.27
       18.0,      34.00,    39.42,    34.01,    28.58,    34.00
       19.0,      33.59,    38.95,    33.59,    28.25,    33.59
       20.0,      33.12,    38.39,    33.12,    27.86,    33.11
       21.0,      32.64,    37.82,    32.64,    27.47,    32.62
       22.0,      32.17,    37.26,    32.19,    27.09,    32.15
       23.0,      31.73,    36.73,    31.75,    26.73,    31.70
       24.0,      31.31,    36.23,    31.34,    26.39,    31.28
       25.0,      30.90,    35.75,    30.94,    26.06,    30.87
       26.0,      30.51,    35.29,    30.55,    25.74,    30.47
       27.0,      30.14,    34.84,    30.18,    25.44,    30.09
       28.0,      29.77,    34.40,    29.82,    25.14,    29.72
       29.0,      29.42,    33.98,    29.47,    24.86,    29.36
       30.0,      29.08,    33.57,    29.14,    24.58,    29.02
       31.0,      28.75,    33.18,    28.82,    24.32,    28.68
       32.0,      28.43,    32.80,    28.50,    24.06,    28.36
       33.0,      28.13,    32.44,    28.20,    23.81,    28.05
       34.0,      27.83,    32.08,    27.91,    23.57,    27.75
       35.0,      27.54,    31.74,    27.63,    23.34,    27.46
       36.0,      27.27,    31.40,    27.36,    23.12,    27.18
       37.0,      27.00,    31.08,    27.10,    22.91,    26.91
       38.0,      26.74,    30.77,    26.85,    22.70,    26.64
       39.0,      26.49,    30.47,    26.60,    22.50,    26.39
       40.0,      26.25,    30.18,    26.37,    22.30,    26.15
       41.0,      26.02,    29.90,    26.14,    22.12,    25.91
       42.0,      25.79,    29.63,    25.92,    21.93,    25.68
       43.0,      25.57,    29.36,    25.70,    21.76,    25.46
       44.0,      25.36,    29.11,    25.50,    21.59,    25.24
       45.0,      25.15,    28.86,    25.30,    21.43,    25.04
       46.0,      24.96,    28.62,    25.11,    21.27,    24.83
       47.0,      24.77,    28.39,    24.92,    21.11,    24.64
       48.0,      24.58,    28.16,    24.74,    20.97,    24.45
       49.0,      24.40,    27.94,    24.57,    20.82,    24.27
       50.0,      24.23,    27.73,    24.40,    20.68,    24.09
       51.0,      24.06,    27.53,    24.24,    20.55,    23.92
       52.0,      23.90,    27.33,    24.08,    20.42,    23.76
       53.0,      23.74,    27.13,    23.93,    20.29,    23.60
       54.0,      23.58,    26.95,    23.78,    20.17,    23.44
       55.0,      23.44,    26.77,    23.64,    20.05,    23.29
       56.0,      23.29,    26.59,    23.50,    19.94,    23.14
       57.0,      23.15,    26.42,    23.36,    19.83,    23.00
       58.0,      23.02,    26.25,    23.23,    19.72,    22.86
       59.0,      22.89,    26.09,    23.11,    19.61,    22.73
       60.0,      22.76,    25.94,    22.99,    19.51,    22.60
       61.0,      22.64,    25.78,    22.87,    19.42,    22.48
       62.0,      22.52,    25.64,    22.75,    19.32,    22.35
       63.0,      22.40,    25.49,    22.64,    19.23,    22.24
       64.0,      22.29,    25.35,    22.54,    19.14,    22.12
       65.0,      22.18,    25.22,    22.43,    19.05,    22.01
       66.0,      22.07,    25.09,    22.33,    18.97,    21.90
       67.0,      21.97,    24.96,    22.23,    18.88,    21.80
       68.0,      21.87,    24.83,    22.14,    18.80,    21.69
       69.0,      21.77,    24.71,    22.05,    18.73,    21.59
       70.0,      21.67,    24.59,    21.96,    18.65,    21.50
       71.0,      21.58,    24.48,    21.87,    18.58,    21.40
       72.0,      21.49,    24.37,    21.78,    18.51,    21.31
       73.0,      21.41,    24.26,    21.70,    18.44,    21.22
       74.0,      21.32,    24.15,    21.62,    18.37,    21.14
       75.0,      21.24,    24.05,    21.54,    18.30,    21.05
       76.0,      21.16,    23.95,    21.47,    18.24,    20.97
       77.0,      21.08,    23.85,    21.40,    18.18,    20.89
       78.0,      21.00,    23.75,    21.32,    18.12,    20.81
       79.0,      20.93,    23.66,    21.25,    18.06,    20.74
       80.0,      20.85,    23.57,    21.19,    18.00,    20.66
       81.0,      20.78,    23.48,    21.12,    17.94,    20.59
       82.0,      20.71,    23.39,    21.06,    17.89,    20.52
       83.0,      20.65,    23.31,    20.99,    17.83,    20.45
       84.0,      20.58,    23.22,    20.93,    17.78,    20.38
       85.0,      20.52,    23.14,    20.87,    17.73,    20.32
       86.0,      20.45,    23.06,    20.82,    17.68,    20.25
       87.0,      20.39,    22.98,    20.76,    17.63,    20.19
       88.0,      20.33,    22.91,    20.70,    17.58,    20.13
       89.0,      20.27,    22.83,    20.65,    17.53,    20.07
       90.0,      20.21,    22.76,    20.60,    17.49,    20.01
       91.0,      20.16,    22.69,    20.55,    17.44,    19.95
       92.0,      20.10,    22.62,    20.50,    17.40,    19.90
       93.0,      20.05,    22.55,    20.45,    17.36,    19.84
       94.0,      20.00,    22.48,    20.40,    17.31,    19.79
       95.0,      19.94,    22.42,    20.35,    17.27,    19.74
       96.0,      19.89,    22.35,    20.31,    17.23,    19.68
       97.0,      19.84,    22.29,    20.26,    17.19,    19.63
       98.0,      19.80,    22.23,    20.22,    17.15,    19.58
       99.0,      19.75,    22.17,    20.18,    17.12,    19.53
      100.0,      19.70,    22.11,    20.13,    17.08,    19.49
      101.0,      19.66,    22.05,    20.09,    17.04,    19.44
      102.0,      19.61,    21.99,    20.05,    17.01,    19.39
      103.0,      19.57,    21.93,    20.01,    16.97,    19.35
      104.0,      19.52,    21.88,    19.97,    16.93,    19.30
      105.0,      19.48,    21.82,    19.94,    16.90,    19.26
      106.0,      19.44,    21.77,    19.90,    16.87,    19.22
      107.0,      19.40,    21.71,    19.86,    16.83,    19.18
      108.0,      19.35,    21.66,    19.83,    16.80,    19.13
      109.0,      19.31,    21.61,    19.79,    16.77,    19.09
      110.0,      19.28,    21.56,    19.76,    16.74,    19.05
      111.0,      19.24,    21.51,    19.72,    16.70,    19.01
      112.0,      19.20,    21.46,    19.69,    16.67,    18.97
      113.0,      19.16,    21.41,    19.65,    16.64,    18.93
      114.0,      19.12,    21.36,    19.62,    16.61,    18.90
      115.0,      19.09,    21.31,    19.59,    16.58,    18.86
      116.0,      19.05,    21.27,    19.56,    16.55,    18.82
      117.0,      19.01,    21.22,    19.53,    16.53,    18.79
      118.0,      18.98,    21.17,    19.50,    16.50,    18.75
      119.0,      18.94,    21.13,    19.47,    16.47,    18.71
      120.0,      18.91,    21.08,    19.44,    16.44,    18.68
      121.0,      18.88,    21.04,    19.41,    16.41,    18.65
      122.0,      18.84,    21.00,    19.38,    16.39,    18.61
      123.0,      18.81,    20.95,    19.35,    16.36,    18.58
      124.0,      18.78,    20.91,    19.32,    16.33,    18.54
      125.0,      18.75,    20.87,    19.29,    16.31,    18.51
      126.0,      18.71,    20.83,    19.27,    16.28,    18.48
      127.0,      18.68,    20.79,    19.24,    16.25,    18.45
      128.0,      18.65,    20.75,    19.21,    16.23,    18.41
      129.0,      18.62,    20.71,    19.19,    16.20,    18.38
      130.0,      18.59,    20.67,    19.16,    16.18,    18.35
      131.0,      18.56,    20.63,    19.13,    16.15,    18.32
      132.0,      18.53,    20.59,    19.11,    16.13,    18.29
      133.0,      18.50,    20.55,    19.08,    16.10,    18.26
      134.0,      18.47,    20.51,    19.06,    16.08,    18.23
      135.0,      18.44,    20.47,    19.03,    16.06,    18.20
      136.0,      18.41,    20.43,    19.01,    16.03,    18.17
      137.0,      18.38,    20.40,    18.98,    16.01,    18.14
      138.0,      18.35,    20.36,    18.96,    15.99,    18.11
      139.0,      18.33,    20.32,    18.94,    15.96,    18.08
      140.0,      18.30,    20.28,    18.91,    15.94,    18.05
      141.0,      18.27,    20.25,    18.89,    15.92,    18.02
      142.0,      18.24,    20.21,    18.86,    15.89,    18.00
      143.0,      18.21,    20.18,    18.84,    15.87,    17.97
      144.0,      18.19,    20.14,    18.82,    15.85,    17.94
      145.0,      18.16,    20.11,    18.80,    15.83,    17.91
      146.0,      18.13,    20.07,    18.77,    15.80,    17.88
      147.0,      18.11,    20.04,    18.75,    15.78,    17.86
      148.0,      18.08,    20.00,    18.73,    15.76,    17.83
      149.0,      18.05,    19.97,    18.71,    15.74,    17.80
      150.0,      18.03,    19.93,    18.68,    15.72,    17.78
      151.0,      18.00,    19.90,    18.66,    15.69,    17.75
      152.0,      17.98,    19.86,    18.64,    15.67,    17.72
      153.0,      17.95,    19.83,    18.62,    15.65,    17.70
      154.0,      17.92,    19.80,    18.60,    15.63,    17.67
      155.0,      17.90,    19.76,    18.58,    15.61,    17.65
      156.0,      17.87,    19.73,    18.55,    15.59,    17.62
      157.0,      17.85,    19.70,    18.53,    15.57,    17.59
      158.0,      17.82,    19.66,    18.51,    15.55,    17.57
      159.0,      17.80,    19.63,    18.49,    15.53,    17.54
      160.0,      17.77,    19.60,    18.47,    15.50,    17.52
      161.0,      17.75,    19.57,    18.45,    15.48,    17.49
      162.0,      17.72,    19.54,    18.43,    15.46,    17.47
      163.0,      17.70,    19.50,    18.41,    15.44,    17.44
      164.0,      17.67,    19.47,    18.39,    15.42,    17.42
      165.0,      17.65,    19.44,    18.37,    15.40,    17.39
      166.0,      17.63,    19.41,    18.35,    15.38,    17.37
      167.0,      17.60,    19.38,    18.33,    15.36,    17.34
      168.0,      17.58,    19.34,    18.31,    15.34,    17.32
      169.0,      17.55,    19.31,    18.29,    15.32,    17.29
      170.0,      17.53,    19.28,    18.27,    15.30,    17.27
      171.0,      17.51,    19.25,    18.25,    15.28,    17.25
      172.0,      17.48,    19.22,    18.23,    15.26,    17.22
      173.0,      17.46,    19.19,    18.21,    15.24,    17.20
      174.0,      17.44,    19.16,    18.19,    15.22,    17.17
      175.0,      17.41,    19.13,    18.17,    15.20,    17.15
      176.0,      17.39,    19.10,    18.15,    15.18,    17.13
      177.0,      17.37,    19.07,    18.13,    15.16,    17.10
      178.0,      17.34,    19.04,    18.11,    15.15,    17.08
      179.0,      17.32,    19.01,    18.09,    15.13,    17.05
      180.0,      17.30,    18.98,    18.07,    15.11,    17.03
      181.0,      17.27,    18.95,    18.05,    15.09,    17.01
      182.0,      17.25,    18.92,    18.04,    15.07,    16.98
      183.0,      17.23,    18.89,    18.02,    15.05,    16.96
      184.0,      17.21,    18.86,    18.00,    15.03,    16.94
      185.0,      17.18,    18.83,    17.98,    15.01,    16.91
      186.0,      17.16,    18.80,    17.96,    14.99,    16.89
      187.0,      17.14,    18.77,    17.94,    14.97,    16.87
      188.0,      17.12,    18.74,    17.92,    14.95,    16.85
      189.0,      17.09,    18.71,    17.90,    14.94,    16.82
      190.0,      17.07,    18.68,    17.89,    14.92,    16.80
      191.0,      17.05,    18.65,    17.87,    14.90,    16.78
      192.0,      17.03,    18.62,    17.85,    14.88,    16.75
      193.0,      17.00,    18.60,    17.83,    14.86,    16.73
      194.0,      16.98,    18.57,    17.81,    14.84,    16.71
      195.0,      16.96,    18.54,    17.79,    14.82,    16.69
      196.0,      16.94,    18.51,    17.77,    14.80,    16.66
      197.0,      16.92,    18.48,    17.76,    14.79,    16.64
      198.0,      16.89,    18.45,    17.74,    14.77,    16.62
      199.0,      16.87,    18.42,    17.72,    14.75,    16.60
      200.0,      16.85,    18.40,    17.70,    14.73,    16.57
      201.0,      16.83,    18.37,    17.68,    14.71,    16.55
      202.0,      16.81,    18.34,    17.67,    14.69,    16.53
      203.0,      16.79,    18.31,    17.65,    14.68,    16.51
      204.0,      16.76,    18.28,    17.63,    14.66,    16.49
      205.0,      16.74,    18.25,    17.61,    14.64,    16.46
      206.0,      16.72,    18.23,    17.59,    14.62,    16.44
      207.0,      16.70,    18.20,    17.57,    14.60,    16.42
      208.0,      16.68,    18.17,    17.56,    14.58,    16.40
      209.0,      16.66,    18.14,    17.54,    14.57,    16.38
      210.0,      16.63,    18.11,    17.52,    14.55,    16.35
      211.0,      16.61,    18.09,    17.50,    14.53,    16.33
      212.0,      16.59,    18.06,    17.49,    14.51,    16.31
      213.0,      16.57,    18.03,    17.47,    14.49,    16.29
      214.0,      16.55,    18.00,    17.45,    14.48,    16.27
      215.0,      16.53,    17.98,    17.43,    14.46,    16.25
      216.0,      16.51,    17.95,    17.41,    14.44,    16.22
      217.0,      16.49,    17.92,    17.40,    14.42,    16.20
      218.0,      16.46,    17.89,    17.38,    14.40,    16.18
      219.0,      16.44,    17.87,    17.36,    14.39,    16.16
      220.0,      16.42,    17.84,    17.34,    14.37,    16.14
      221.0,      16.40,    17.81,    17.33,    14.35,    16.12
      222.0,      16.38,    17.79,    17.31,    14.33,    16.09
      223.0,      16.36,    17.76,    17.29,    14.32,    16.07
      224.0,      16.34,    17.73,    17.27,    14.30,    16.05
      225.0,      16.32,    17.70,    17.26,    14.28,    16.03
      226.0,      16.30,    17.68,    17.24,    14.26,    16.01
      227.0,      16.28,    17.65,    17.22,    14.25,    15.99
      228.0,      16.26,    17.62,    17.20,    14.23,    15.97
      229.0,      16.24,    17.60,    17.19,    14.21,    15.95
      230.0,      16.21,    17.57,    17.17,    14.19,    15.93
      231.0,      16.19,    17.54,    17.15,    14.18,    15.90
      232.0,      16.17,    17.52,    17.13,    14.16,    15.88
      233.0,      16.15,    17.49,    17.12,    14.14,    15.86
      234.0,      16.13,    17.46,    17.10,    14.12,    15.84
      235.0,      16.11,    17.44,    17.08,    14.11,    15.82
      236.0,      16.09,    17.41,    17.07,    14.09,    15.80
      237.0,      16.07,    17.38,    17.05,    14.07,    15.78
      238.0,      16.05,    17.36,    17.03,    14.05,    15.76
      239.0,      16.03,    17.33,    17.01,    14.04,    15.74
      240.0,      16.01,    17.31,    17.00,    14.02,    15.72
      241.0,      15.99,    17.28,    16.98,    14.00,    15.70
      242.0,      15.97,    17.25,    16.96,    13.98,    15.67
      243.0,      15.95,    17.23,    16.95,    13.97,    15.65
      244.0,      15.93,    17.20,    16.93,    13.95,    15.63
      245.0,      15.91,    17.17,    16.91,    13.93,    15.61
      246.0,      15.89,    17.15,    16.90,    13.92,    15.59
      247.0,      15.87,    17.12,    16.88,    13.90,    15.57
      248.0,      15.85,    17.10,    16.86,    13.88,    15.55
      249.0,      15.83,    17.07,    16.84,    13.86,    15.53
      250.0,      15.81,    17.05,    16.83,    13.85,    15.51
      251.0,      15.79,    17.02,    16.81,    13.83,    15.49
      252.0,      15.77,    16.99,    16.79,    13.81,    15.47
      253.0,      15.75,    16.97,    16.78,    13.80,    15.45
      254.0,      15.73,    16.94,    16.76,    13.78,    15.43
      255.0,      15.71,    16.92,    16.74,    13.76,    15.41
      256.0,      15.69,    16.89,    16.73,    13.75,    15.39
      257.0,      15.67,    16.87,    16.71,    13.73,    15.37
      258.0,      15.65,    16.84,    16.69,    13.71,    15.35
      259.0,      15.63,    16.81,    16.68,    13.70,    15.33
      260.0,      15.61,    16.79,    16.66,    13.68,    15.31
      261.0,      15.59,    16.76,    16.64,    13.66,    15.29
      262.0,      15.57,    16.74,    16.63,    13.64,    15.27
      263.0,      15.55,    16.71,    16.61,    13.63,    15.25
      264.0,      15.53,    16.69,    16.59,    13.61,    15.23
      265.0,      15.51,    16.66,    16.58,    13.59,    15.21
      266.0,      15.49,    16.64,    16.56,    13.58,    15.19
      267.0,      15.47,    16.61,    16.54,    13.56,    15.17
      268.0,      15.45,    16.59,    16.53,    13.54,    15.15
      269.0,      15.43,    16.56,    16.51,    13.53,    15.13
      270.0,      15.41,    16.54,    16.49,    13.51,    15.11
      271.0,      15.39,    16.51,    16.48,    13.49,    15.09
      272.0,      15.37,    16.49,    16.46,    13.48,    15.07
      273.0,      15.35,    16.46,    16.44,    13.46,    15.05
      274.0,      15.33,    16.44,    16.43,    13.45,    15.03
      275.0,      15.32,    16.41,    16.41,    13.43,    15.01
      276.0,      15.30,    16.39,    16.39,    13.41,    14.99
      277.0,      15.28,    16.36,    16.38,    13.40,    14.97
      278.0,      15.26,    16.34,    16.36,    13.38,    14.95
      279.0,      15.24,    16.31,    16.35,    13.36,    14.93
      280.0,      15.22,    16.29,    16.33,    13.35,    14.91
      281.0,      15.20,    16.27,    16.31,    13.33,    14.89
      282.0,      15.18,    16.24,    16.30,    13.31,    14.87
      283.0,      15.16,    16.22,    16.28,    13.30,    14.85
      284.0,      15.14,    16.19,    16.26,    13.28,    14.83
      285.0,      15.12,    16.17,    16.25,    13.27,    14.81
      286.0,      15.10,    16.14,    16.23,    13.25,    14.79
      287.0,      15.08,    16.12,    16.21,    13.23,    14.77
      288.0,      15.07,    16.09,    16.20,    13.22,    14.75
      289.0,      15.05,    16.07,    16.18,    13.20,    14.73
      290.0,      15.03,    16.05,    16.17,    13.18,    14.71
      291.0,      15.01,    16.02,    16.15,    13.17,    14.69
      292.0,      14.99,    16.00,    16.13,    13.15,    14.68
      293.0,      14.97,    15.97,    16.12,    13.14,    14.66
      294.0,      14.95,    15.95,    16.10,    13.12,    14.64
      295.0,      14.93,    15.92,    16.09,    13.10,    14.62
      296.0,      14.91,    15.90,    16.07,    13.09,    14.60
      297.0,      14.90,    15.88,    16.05,    13.07,    14.58
      298.0,      14.88,    15.85,    16.04,    13.06,    14.56
      299.0,      14.86,    15.83,    16.02,    13.04,    14.54
      300.0,      14.84,    15.81,    16.01,    13.02,    14.52
      301.0,      14.82,    15.78,    15.99,    13.01,    14.50
      302.0,      14.80,    15.76,    15.97,    12.99,    14.48
      303.0,      14.78,    15.73,    15.96,    12.98,    14.46
      304.0,      14.76,    15.71,    15.94,    12.96,    14.45
      305.0,      14.75,    15.69,    15.93,    12.94,    14.43
      306.0,      14.73,    15.66,    15.91,    12.93,    14.41
      307.0,      14.71,    15.64,    15.89,    12.91,    14.39
      308.0,      14.69,    15.62,    15.88,    12.90,    14.37
      309.0,      14.67,    15.59,    15.86,    12.88,    14.35
      310.0,      14.65,    15.57,    15.85,    12.86,    14.33
