Radius (km), Mean (m/s), NE (m/s), SE (m/s), SW (m/s), NW (m/s)
        0.0,       1.61,     2.26,     1.59,     0.95,     1.62
        1.0,       6.77,     7.60,     6.79,     6.04,     6.64
        2.0,      11.70,    13.11,    11.71,    10.12,    11.85
        3.0,      16.69,    18.81,    16.65,    14.04,    17.26
        4.0,      21.63,    24.48,    21.52,    17.82,    22.71
        5.0,      26.35,    29.88,    26.15,    21.38,    28.00
        6.0,      30.64,    34.76,    30.34,    24.60,    32.87
        7.0,      34.34,    38.90,    33.95,    27.38,    37.12
        8.0,      37.31,    42.18,    36.83,    29.64,    40.59
        9.0,      39.50,    44.52,    38.96,    31.33,    43.20
       10.0,      40.93,    45.97,    40.33,    32.47,    44.95
       11.0,      41.68,    46.64,    41.04,    33.11,    45.92
       12.0,      41.87,    46.69,    41.22,    33.34,    46.25
       13.0,      41.67,    46.30,    41.00,    33.27,    46.11
       14.0,      41.22,    45.65,    40.55,    33.01,    45.67
       15.0,      40.65,    44.89,    39.98,    32.64,    45.08
       16.0,      40.05,    44.11,    39.38,    32.25,    44.44
       17.0,      39.46,    43.37,    38.80,    31.86,    43.82
       18.0,      38.91,    42.66,    38.24,    31.50,    43.23
       19.0,      38.37,    41.99,    37.70,    31.15,    42.66
       20.0,      37.86,    41.34,    37.18,    30.82,    42.10
       21.0,      37.36,    40.71,    36.67,    30.50,    41.56
       22.0,      36.88,    40.11,    36.18,    30.19,    41.04
       23.0,      36.41,    39.53,    35.70,    29.89,    40.52
       24.0,      35.96,    38.97,    35.24,    29.61,    40.02
       25.0,      35.52,    38.43,    34.78,    29.33,    39.53
       26.0,      35.09,    37.92,    34.34,    29.06,    39.06
       27.0,      34.68,    37.42,    33.91,    28.80,    38.59
       28.0,      34.28,    36.94,    33.50,    28.55,    38.14
       29.0,      33.90,    36.48,    33.09,    28.31,    37.70
       30.0,      33.52,    36.04,    32.70,    28.07,    37.27
       31.0,      33.16,    35.61,    32.31,    27.85,    36.85
       32.0,      32.80,    35.20,    31.94,    27.63,    36.44
       33.0,      32.46,    34.80,    31.58,    27.42,    36.04
       34.0,      32.13,    34.42,    31.23,    27.21,    35.65
       35.0,      31.81,    34.05,    30.88,    27.01,    35.27
       36.0,      31.49,    33.70,    30.55,    26.82,    34.90
       37.0,      31.19,    33.35,    30.23,    26.64,    34.54
       38.0,      30.90,    33.02,    29.91,    26.46,    34.19
       39.0,      30.61,    32.71,    29.60,    26.28,    33.85
       40.0,      30.33,    32.40,    29.30,    26.11,    33.51
       41.0,      30.06,    32.11,    29.01,    25.95,    33.19
       42.0,      29.80,    31.82,    28.73,    25.79,    32.87
       43.0,      29.55,    31.55,    28.45,    25.64,    32.56
       44.0,      29.30,    31.28,    28.18,    25.49,    32.25
       45.0,      29.06,    31.03,    27.92,    25.34,    31.96
       46.0,      28.83,    30.78,    27.67,    25.20,    31.67
       47.0,      28.61,    30.55,    27.42,    25.07,    31.39
       48.0,      28.39,    30.32,    27.18,    24.93,    31.11
       49.0,      28.17,    30.10,    26.95,    24.81,    30.84
       50.0,      27.97,    29.88,    26.72,    24.68,    30.58
       51.0,      27.76,    29.68,    26.50,    24.56,    30.32
       52.0,      27.57,    29.48,    26.28,    24.44,    30.08
       53.0,      27.38,    29.29,    26.07,    24.33,    29.83
       54.0,      27.19,    29.10,    25.86,    24.21,    29.59
       55.0,      27.01,    28.92,    25.66,    24.11,    29.36
       56.0,      26.84,    28.75,    25.47,    24.00,    29.13
       57.0,      26.67,    28.58,    25.28,    23.90,    28.91
       58.0,      26.50,    28.42,    25.10,    23.80,    28.70
       59.0,      26.34,    28.26,    24.92,    23.70,    28.49
       60.0,      26.18,    28.11,    24.74,    23.60,    28.28
       61.0,      26.03,    27.97,    24.57,    23.51,    28.08
       62.0,      25.88,    27.83,    24.40,    23.42,    27.88
       63.0,      25.74,    27.69,    24.24,    23.33,    27.69
       64.0,      25.60,    27.56,    24.08,    23.25,    27.50
       65.0,      25.46,    27.43,    23.93,    23.16,    27.32
       66.0,      25.33,    27.31,    23.78,    23.08,    27.14
       67.0,      25.20,    27.19,    23.63,    23.00,    26.96
       68.0,      25.07,    27.07,    23.49,    22.92,    26.79
       69.0,      24.94,    26.96,    23.35,    22.84,    26.63
       70.0,      24.82,    26.85,    23.22,    22.77,    26.46
       71.0,      24.71,    26.74,    23.08,    22.69,    26.30
       72.0,      24.59,    26.64,    22.95,    22.62,    26.15
       73.0,      24.48,    26.54,    22.83,    22.55,    25.99
       74.0,      24.37,    26.44,    22.71,    22.48,    25.85
       75.0,      24.26,    26.35,    22.59,    22.41,    25.70
       76.0,      24.16,    26.26,    22.47,    22.35,    25.56
       77.0,      24.06,    26.17,    22.36,    22.28,    25.42
       78.0,      23.96,    26.08,    22.24,    22.22,    25.28
       79.0,      23.86,    26.00,    22.14,    22.15,    25.15
       80.0,      23.76,    25.92,    22.03,    22.09,    25.02
       81.0,      23.67,    25.84,    21.93,    22.03,    24.89
       82.0,      23.58,    25.76,    21.83,    21.97,    24.76
       83.0,      23.49,    25.69,    21.73,    21.91,    24.64
       84.0,      23.41,    25.62,    21.63,    21.86,    24.52
       85.0,      23.32,    25.54,    21.54,    21.80,    24.40
       86.0,      23.24,    25.48,    21.45,    21.74,    24.29
       87.0,      23.16,    25.41,    21.36,    21.69,    24.18
       88.0,      23.08,    25.34,    21.27,    21.64,    24.07
       89.0,      23.00,    25.28,    21.18,    21.58,    23.96
       90.0,      22.93,    25.22,    21.10,    21.53,    23.85
       91.0,      22.85,    25.16,    21.02,    21.48,    23.75
       92.0,      22.78,    25.10,    20.94,    21.43,    23.65
       93.0,      22.71,    25.04,    20.86,    21.38,    23.55
       94.0,      22.64,    24.98,    20.78,    21.33,    23.45
       95.0,      22.57,    24.93,    20.71,    21.28,    23.36
       96.0,      22.50,    24.87,    20.63,    21.23,    23.26
       97.0,      22.43,    24.82,    20.56,    21.18,    23.17
       98.0,      22.37,    24.77,    20.49,    21.14,    23.08
       99.0,      22.31,    24.72,    20.42,    21.09,    23.00
      100.0,      22.24,    24.67,    20.36,    21.04,    22.91
      101.0,      22.18,    24.62,    20.29,    21.00,    22.82
      102.0,      22.12,    24.57,    20.23,    20.95,    22.74
      103.0,      22.06,    24.53,    20.16,    20.91,    22.66
      104.0,      22.01,    24.48,    20.10,    20.87,    22.58
      105.0,      21.95,    24.44,    20.04,    20.82,    22.50
      106.0,      21.89,    24.39,    19.98,    20.78,    22.43
      107.0,      21.84,    24.35,    19.92,    20.74,    22.35
      108.0,      21.79,    24.31,    19.87,    20.69,    22.28
      109.0,      21.73,    24.27,    19.81,    20.65,    22.20
      110.0,      21.68,    24.22,    19.76,    20.61,    22.13
      111.0,      21.63,    24.18,    19.70,    20.57,    22.06
      112.0,      21.58,    24.14,    19.65,    20.53,    21.99
      113.0,      21.53,    24.11,    19.60,    20.49,    21.93
      114.0,      21.48,    24.07,    19.55,    20.45,    21.86
      115.0,      21.43,    24.03,    19.50,    20.41,    21.79
      116.0,      21.39,    23.99,    19.45,    20.37,    21.73
      117.0,      21.34,    23.96,    19.40,    20.33,    21.67
      118.0,      21.29,    23.92,    19.35,    20.29,    21.60
      119.0,      21.25,    23.88,    19.31,    20.25,    21.54
      120.0,      21.20,    23.85,    19.26,    20.21,    21.48
      121.0,      21.16,    23.82,    19.22,    20.18,    21.42
      122.0,      21.12,    23.78,    19.17,    20.14,    21.37
      123.0,      21.07,    23.75,    19.13,    20.10,    21.31
      124.0,      21.03,    23.71,    19.09,    20.06,    21.25
      125.0,      20.99,    23.68,    19.05,    20.03,    21.20
      126.0,      20.95,    23.65,    19.01,    19.99,    21.14
      127.0,      20.91,    23.62,    18.97,    19.95,    21.09
      128.0,      20.87,    23.59,    18.93,    19.92,    21.04
      129.0,      20.83,    23.55,    18.89,    19.88,    20.98
      130.0,      20.79,    23.52,    18.85,    19.85,    20.93
      131.0,      20.75,    23.49,    18.81,    19.81,    20.88
      132.0,      20.71,    23.46,    18.78,    19.77,    20.83
      133.0,      20.67,    23.43,    18.74,    19.74,    20.78
      134.0,      20.64,    23.40,    18.70,    19.70,    20.74
      135.0,      20.60,    23.37,    18.67,    19.67,    20.69
      136.0,      20.56,    23.34,    18.63,    19.63,    20.64
      137.0,      20.53,    23.31,    18.60,    19.60,    20.59
      138.0,      20.49,    23.29,    18.56,    19.56,    20.55
      139.0,      20.46,    23.26,    18.53,    19.53,    20.50
      140.0,      20.42,    23.23,    18.50,    19.50,    20.46
      141.0,      20.39,    23.20,    18.46,    19.46,    20.42
      142.0,      20.35,    23.17,    18.43,    19.43,    20.37
      143.0,      20.32,    23.15,    18.40,    19.39,    20.33
      144.0,      20.28,    23.12,    18.37,    19.36,    20.29
      145.0,      20.25,    23.09,    18.34,    19.33,    20.25
      146.0,      20.22,    23.06,    18.31,    19.29,    20.20
      147.0,      20.18,    23.04,    18.28,    19.26,    20.16
      148.0,      20.15,    23.01,    18.25,    19.23,    20.12
      149.0,      20.12,    22.98,    18.22,    19.19,    20.08
      150.0,      20.09,    22.96,    18.19,    19.16,    20.04
      151.0,      20.06,    22.93,    18.16,    19.13,    20.01
      152.0,      20.02,    22.91,    18.13,    19.09,    19.97
      153.0,      19.99,    22.88,    18.10,    19.06,    19.93
      154.0,      19.96,    22.85,    18.08,    19.03,    19.89
      155.0,      19.93,    22.83,    18.05,    19.00,    19.86
      156.0,      19.90,    22.80,    18.02,    18.96,    19.82
      157.0,      19.87,    22.78,    18.00,    18.93,    19.78
      158.0,      19.84,    22.75,    17.97,    18.90,    19.75
      159.0,      19.81,    22.73,    17.94,    18.87,    19.71
      160.0,      19.78,    22.70,    17.92,    18.84,    19.68
      161.0,      19.75,    22.68,    17.89,    18.80,    19.64
      162.0,      19.72,    22.65,    17.86,    18.77,    19.61
      163.0,      19.70,    22.63,    17.84,    18.74,    19.57
      164.0,      19.67,    22.60,    17.81,    18.71,    19.54
      165.0,      19.64,    22.58,    17.79,    18.68,    19.50
      166.0,      19.61,    22.55,    17.77,    18.65,    19.47
      167.0,      19.58,    22.53,    17.74,    18.62,    19.44
      168.0,      19.55,    22.51,    17.72,    18.58,    19.41
      169.0,      19.53,    22.48,    17.69,    18.55,    19.37
      170.0,      19.50,    22.46,    17.67,    18.52,    19.34
      171.0,      19.47,    22.43,    17.65,    18.49,    19.31
      172.0,      19.44,    22.41,    17.62,    18.46,    19.28
      173.0,      19.42,    22.39,    17.60,    18.43,    19.25
      174.0,      19.39,    22.36,    17.58,    18.40,    19.22
      175.0,      19.36,    22.34,    17.55,    18.37,    19.19
      176.0,      19.33,    22.32,    17.53,    18.34,    19.16
      177.0,      19.31,    22.29,    17.51,    18.31,    19.13
      178.0,      19.28,    22.27,    17.49,    18.28,    19.10
      179.0,      19.26,    22.25,    17.46,    18.25,    19.07
      180.0,      19.23,    22.22,    17.44,    18.22,    19.04
      181.0,      19.20,    22.20,    17.42,    18.19,    19.01
      182.0,      19.18,    22.18,    17.40,    18.16,    18.98
      183.0,      19.15,    22.15,    17.38,    18.12,    18.95
      184.0,      19.13,    22.13,    17.36,    18.09,    18.92
      185.0,      19.10,    22.11,    17.33,    18.06,    18.89
      186.0,      19.07,    22.08,    17.31,    18.03,    18.86
      187.0,      19.05,    22.06,    17.29,    18.01,    18.84
      188.0,      19.02,    22.04,    17.27,    17.98,    18.81
      189.0,      19.00,    22.02,    17.25,    17.95,    18.78
      190.0,      18.97,    21.99,    17.23,    17.92,    18.75
      191.0,      18.95,    21.97,    17.21,    17.89,    18.73
      192.0,      18.92,    21.95,    17.19,    17.86,    18.70
      193.0,      18.90,    21.93,    17.17,    17.83,    18.67
      194.0,      18.87,    21.90,    17.15,    17.80,    18.64
      195.0,      18.85,    21.88,    17.13,    17.77,    18.62
      196.0,      18.82,    21.86,    17.11,    17.74,    18.59
      197.0,      18.80,    21.84,    17.09,    17.71,    18.56
      198.0,      18.78,    21.81,    17.07,    17.68,    18.54
      199.0,      18.75,    21.79,    17.05,    17.65,    18.51
      200.0,      18.73,    21.77,    17.03,    17.62,    18.49
      201.0,      18.70,    21.75,    17.01,    17.59,    18.46
      202.0,      18.68,    21.72,    16.99,    17.56,    18.43
      203.0,      18.65,    21.70,    16.97,    17.54,    18.41
      204.0,      18.63,    21.68,    16.95,    17.51,    18.38
      205.0,      18.61,    21.66,    16.93,    17.48,    18.36
      206.0,      18.58,    21.64,    16.91,    17.45,    18.33
      207.0,      18.56,    21.61,    16.90,    17.42,    18.31
      208.0,      18.54,    21.59,    16.88,    17.39,    18.28
      209.0,      18.51,    21.57,    16.86,    17.36,    18.26
      210.0,      18.49,    21.55,    16.84,    17.33,    18.23
      211.0,      18.47,    21.53,    16.82,    17.31,    18.21
      212.0,      18.44,    21.51,    16.80,    17.28,    18.18
      213.0,      18.42,    21.48,    16.78,    17.25,    18.16
      214.0,      18.40,    21.46,    16.76,    17.22,    18.14
      215.0,      18.37,    21.44,    16.75,    17.19,    18.11
      216.0,      18.35,    21.42,    16.73,    17.16,    18.09
      217.0,      18.33,    21.40,    16.71,    17.14,    18.06
      218.0,      18.30,    21.38,    16.69,    17.11,    18.04
      219.0,      18.28,    21.35,    16.67,    17.08,    18.02
      220.0,      18.26,    21.33,    16.66,    17.05,    17.99
      221.0,      18.23,    21.31,    16.64,    17.02,    17.97
      222.0,      18.21,    21.29,    16.62,    17.00,    17.94
      223.0,      18.19,    21.27,    16.60,    16.97,    17.92
      224.0,      18.17,    21.25,    16.58,    16.94,    17.90
      225.0,      18.14,    21.22,    16.57,    16.91,    17.87
      226.0,      18.12,    21.20,    16.55,    16.88,    17.85
      227.0,      18.10,    21.18,    16.53,    16.86,    17.83
      228.0,      18.08,    21.16,    16.51,    16.83,    17.80
      229.0,      18.05,    21.14,    16.50,    16.80,    17.78
      230.0,      18.03,    21.12,    16.48,    16.77,    17.76
      231.0,      18.01,    21.10,    16.46,    16.75,    17.74
      232.0,      17.99,    21.08,    16.44,    16.72,    17.71
      233.0,      17.97,    21.05,    16.43,    16.69,    17.69
      234.0,      17.94,    21.03,    16.41,    16.66,    17.67
      235.0,      17.92,    21.01,    16.39,    16.64,    17.65
      236.0,      17.90,    20.99,    16.37,    16.61,    17.62
      237.0,      17.88,    20.97,    16.36,    16.58,    17.60
      238.0,      17.86,    20.95,    16.34,    16.56,    17.58
      239.0,      17.83,    20.93,    16.32,    16.53,    17.56
      240.0,      17.81,    20.91,    16.30,    16.50,    17.53
      241.0,      17.79,    20.89,    16.29,    16.47,    17.51
      242.0,      17.77,    20.86,    16.27,    16.45,    17.49
      243.0,      17.75,    20.84,    16.25,    16.42,    17.47
      244.0,      17.72,    20.82,    16.24,    16.39,    17.45
      245.0,      17.70,    20.80,    16.22,    16.37,    17.42
      246.0,      17.68,    20.78,    16.20,    16.34,    17.40
      247.0,      17.66,    20.76,    16.19,    16.31,    17.38
      248.0,      17.64,    20.74,    16.17,    16.29,    17.36
      249.0,      17.62,    20.72,    16.15,    16.26,    17.34
      250.0,      17.60,    20.70,    16.14,    16.23,    17.32
      251.0,      17.57,    20.68,    16.12,    16.21,    17.29
      252.0,      17.55,    20.66,    16.10,    16.18,    17.27
      253.0,      17.53,    20.64,    16.09,    16.15,    17.25
      254.0,      17.51,    20.62,    16.07,    16.13,    17.23
      255.0,      17.49,    20.59,    16.05,    16.10,    17.21
      256.0,      17.47,    20.57,    16.04,    16.07,    17.19
      257.0,      17.45,    20.55,    16.02,    16.05,    17.17
      258.0,      17.43,    20.53,    16.00,    16.02,    17.14
      259.0,      17.40,    20.51,    15.99,    15.99,    17.12
      260.0,      17.38,    20.49,    15.97,    15.97,    17.10
      261.0,      17.36,    20.47,    15.95,    15.94,    17.08
      262.0,      17.34,    20.45,    15.94,    15.92,    17.06
      263.0,      17.32,    20.43,    15.92,    15.89,    17.04
      264.0,      17.30,    20.41,    15.90,    15.86,    17.02
      265.0,      17.28,    20.39,    15.89,    15.84,    17.00
      266.0,      17.26,    20.37,    15.87,    15.81,    16.98
      267.0,      17.24,    20.35,    15.86,    15.79,    16.96
      268.0,      17.22,    20.33,    15.84,    15.76,    16.93
      269.0,      17.20,    20.31,    15.82,    15.73,    16.91
      270.0,      17.17,    20.29,    15.81,    15.71,    16.89
      271.0,      17.15,    20.27,    15.79,    15.68,    16.87
      272.0,      17.13,    20.25,    15.78,    15.66,    16.85
      273.0,      17.11,    20.23,    15.76,    15.63,    16.83
      274.0,      17.09,    20.21,    15.74,    15.61,    16.81
      275.0,      17.07,    20.19,    15.73,    15.58,    16.79
      276.0,      17.05,    20.17,    15.71,    15.56,    16.77
      277.0,      17.03,    20.15,    15.70,    15.53,    16.75
      278.0,      17.01,    20.13,    15.68,    15.50,    16.73
      279.0,      16.99,    20.11,    15.66,    15.48,    16.71
      280.0,      16.97,    20.09,    15.65,    15.45,    16.69
      281.0,      16.95,    20.07,    15.63,    15.43,    16.67
      282.0,      16.93,    20.05,    15.62,    15.40,    16.65
      283.0,      16.91,    20.03,    15.60,    15.38,    16.63
      284.0,      16.89,    20.00,    15.58,    15.35,    16.61
      285.0,      16.87,    19.98,    15.57,    15.33,    16.59
      286.0,      16.85,    19.96,    15.55,    15.30,    16.57
      287.0,      16.83,    19.95,    15.54,    15.28,    16.55
      288.0,      16.81,    19.93,    15.52,    15.25,    16.53
      289.0,      16.79,    19.91,    15.51,    15.23,    16.51
      290.0,      16.77,    19.89,    15.49,    15.20,    16.49
      291.0,      16.75,    19.87,    15.47,    15.18,    16.47
      292.0,      16.73,    19.85,    15.46,    15.15,    16.45
      293.0,      16.71,    19.83,    15.44,    15.13,    16.43
      294.0,      16.69,    19.81,    15.43,    15.10,    16.41
      295.0,      16.67,    19.79,    15.41,    15.08,    16.39
      296.0,      16.65,    19.77,    15.40,    15.05,    16.37
      297.0,      16.63,    19.75,    15.38,    15.03,    16.35
      298.0,      16.61,    19.73,    15.37,    15.00,    16.33
      299.0,      16.59,    19.71,    15.35,    14.98,    16.31
      300.0,      16.57,    19.69,    15.33,    14.96,    16.29
      301.0,      16.55,    19.67,    15.32,    14.93,    16.27
      302.0,      16.53,    19.65,    15.30,    14.91,    16.25
      303.0,      16.51,    19.63,    15.29,    14.88,    16.23
      304.0,      16.49,    19.61,    15.27,    14.86,    16.21
      305.0,      16.47,    19.59,    15.26,    14.83,    16.19
      306.0,      16.45,    19.57,    15.24,    14.81,    16.17
      307.0,      16.43,    19.55,    15.23,    14.78,    16.15
      308.0,      16.41,    19.53,    15.21,    14.76,    16.13
      309.0,      16.39,    19.51,    15.20,    14.74,    16.11
      310.0,      16.37,    19.49,    15.18,    14.71,    16.10
