Radius (km), Mean (m/s), NE (m/s), SE (m/s), SW (m/s), NW (m/s)
        0.0,       0.00,     0.00,     0.00,     0.00,     0.00
        1.0,       1.37,     1.31,     1.37,     1.42,     1.38
        2.0,       2.21,     2.15,     2.21,     2.26,     2.23
        3.0,       2.93,     2.87,     2.93,     2.98,     2.94
        4.0,       3.57,     3.52,     3.57,     3.61,     3.59
        5.0,       4.17,     4.12,     4.17,     4.20,     4.18
        6.0,       4.73,     4.69,     4.73,     4.75,     4.74
        7.0,       5.26,     5.23,     5.26,     5.27,     5.26
        8.0,       5.77,     5.76,     5.77,     5.77,     5.77
        9.0,       6.26,     6.26,     6.26,     6.25,     6.26
       10.0,       6.73,     6.75,     6.73,     6.71,     6.72
       11.0,       7.19,     7.22,     7.19,     7.15,     7.18
       12.0,       7.63,     7.68,     7.64,     7.59,     7.62
       13.0,       8.07,     8.13,     8.07,     8.01,     8.05
       14.0,       8.49,     8.57,     8.50,     8.42,     8.47
       15.0,       8.90,     9.00,     8.91,     8.82,     8.88
       16.0,       9.31,     9.42,     9.32,     9.21,     9.28
       17.0,       9.71,     9.84,     9.72,     9.60,     9.68
       18.0,      10.10,    10.25,    10.11,     9.98,    10.07
       19.0,      10.49,    10.65,    10.50,    10.35,    10.45
       20.0,      10.86,    11.04,    10.88,    10.71,    10.82
       21.0,      11.24,    11.44,    11.25,    11.07,    11.19
       22.0,      11.60,    11.82,    11.62,    11.42,    11.55
       23.0,      11.97,    12.20,    11.98,    11.77,    11.91
       24.0,      12.32,    12.57,    12.34,    12.11,    12.26
       25.0,      12.68,    12.94,    12.69,    12.45,    12.61
       26.0,      13.02,    13.31,    13.04,    12.79,    12.96
       27.0,      13.37,    13.67,    13.39,    13.12,    13.30
       28.0,      13.71,    14.03,    13.73,    13.44,    13.63
       29.0,      14.05,    14.39,    14.07,    13.77,    13.96
       30.0,      14.38,    14.74,    14.40,    14.08,    14.29
       31.0,      14.71,    15.08,    14.73,    14.40,    14.62
       32.0,      15.04,    15.43,    15.06,    14.71,    14.94
       33.0,      15.36,    15.77,    15.38,    15.02,    15.26
       34.0,      15.68,    16.11,    15.71,    15.33,    15.57
       35.0,      16.00,    16.44,    16.02,    15.63,    15.89
       36.0,      16.31,    16.78,    16.34,    15.93,    16.20
       37.0,      16.62,    17.11,    16.65,    16.23,    16.50
       38.0,      16.93,    17.44,    16.96,    16.52,    16.81
       39.0,      17.24,    17.76,    17.27,    16.81,    17.11
       40.0,      17.54,    18.08,    17.58,    17.10,    17.41
       41.0,      17.85,    18.40,    17.88,    17.39,    17.71
       42.0,      18.15,    18.72,    18.18,    17.68,    18.00
       43.0,      18.44,    19.04,    18.48,    17.96,    18.30
       44.0,      18.74,    19.35,    18.77,    18.24,    18.59
       45.0,      19.03,    19.66,    19.07,    18.52,    18.88
       46.0,      19.32,    19.97,    19.36,    18.80,    19.16
       47.0,      19.61,    20.28,    19.65,    19.07,    19.45
       48.0,      19.90,    20.59,    19.94,    19.34,    19.73
       49.0,      20.19,    20.89,    20.23,    19.62,    20.01
       50.0,      20.47,    21.19,    20.51,    19.88,    20.29
       51.0,      20.75,    21.49,    20.79,    20.15,    20.57
       52.0,      21.03,    21.79,    21.08,    20.42,    20.85
       53.0,      21.31,    22.09,    21.36,    20.68,    21.12
       54.0,      21.59,    22.39,    21.63,    20.95,    21.39
       55.0,      21.87,    22.68,    21.91,    21.21,    21.66
       56.0,      22.14,    22.97,    22.19,    21.47,    21.93
       57.0,      22.41,    23.26,    22.46,    21.72,    22.20
       58.0,      22.68,    23.55,    22.73,    21.98,    22.47
       59.0,      22.95,    23.84,    23.00,    22.24,    22.73
       60.0,      23.22,    24.13,    23.27,    22.49,    23.00
       61.0,      23.49,    24.41,    23.54,    22.74,    23.26
       62.0,      23.75,    24.70,    23.81,    22.99,    23.52
       63.0,      24.02,    24.98,    24.07,    23.24,    23.78
       64.0,      24.28,    25.26,    24.33,    23.49,    24.04
       65.0,      24.54,    25.54,    24.60,    23.74,    24.30
       66.0,      24.80,    25.82,    24.86,    23.98,    24.55
       67.0,      25.06,    26.10,    25.12,    24.23,    24.81
       68.0,      25.32,    26.37,    25.38,    24.47,    25.06
       69.0,      25.58,    26.65,    25.64,    24.72,    25.31
       70.0,      25.83,    26.92,    25.89,    24.96,    25.56
       71.0,      26.09,    27.20,    26.15,    25.20,    25.81
       72.0,      26.35,    27.47,    26.40,    25.44,    26.07
       73.0,      26.62,    27.77,    26.67,    25.70,    26.33
       74.0,      26.91,    28.09,    26.95,    25.99,    26.62
       75.0,      27.25,    28.48,    27.26,    26.31,    26.97
       76.0,      27.64,    28.92,    27.59,    26.68,    27.37
       77.0,      28.07,    29.42,    27.96,    27.08,    27.83
       78.0,      28.53,    29.95,    28.34,    27.50,    28.33
       79.0,      28.99,    30.49,    28.72,    27.92,    28.84
       80.0,      29.42,    30.98,    29.08,    28.30,    29.31
       81.0,      29.78,    31.39,    29.40,    28.62,    29.71
       82.0,      30.05,    31.68,    29.66,    28.86,    29.99
       83.0,      30.20,    31.83,    29.85,    29.00,    30.13
       84.0,      30.24,    31.83,    29.96,    29.04,    30.13
       85.0,      30.16,    31.69,    30.01,    28.98,    29.97
       86.0,      29.99,    31.42,    29.99,    28.85,    29.69
       87.0,      29.74,    31.07,    29.91,    28.66,    29.32
       88.0,      29.44,    30.65,    29.81,    28.43,    28.87
       89.0,      29.12,    30.21,    29.69,    28.18,    28.40
       90.0,      28.80,    29.77,    29.56,    27.94,    27.93
       91.0,      28.49,    29.34,    29.44,    27.71,    27.47
       92.0,      28.20,    28.94,    29.32,    27.49,    27.04
       93.0,      27.92,    28.56,    29.21,    27.28,    26.64
       94.0,      27.66,    28.21,    29.11,    27.08,    26.25
       95.0,      27.41,    27.86,    29.01,    26.89,    25.89
       96.0,      27.17,    27.53,    28.91,    26.70,    25.53
       97.0,      26.94,    27.21,    28.82,    26.53,    25.19
       98.0,      26.71,    26.91,    28.72,    26.35,    24.87
       99.0,      26.50,    26.61,    28.63,    26.19,    24.55
      100.0,      26.29,    26.32,    28.54,    26.03,    24.25
      101.0,      26.08,    26.05,    28.46,    25.87,    23.95
      102.0,      25.89,    25.79,    28.37,    25.72,    23.67
      103.0,      25.70,    25.53,    28.29,    25.58,    23.40
      104.0,      25.52,    25.29,    28.21,    25.44,    23.14
      105.0,      25.34,    25.05,    28.13,    25.30,    22.89
      106.0,      25.17,    24.82,    28.06,    25.17,    22.65
      107.0,      25.01,    24.60,    27.98,    25.04,    22.41
      108.0,      24.85,    24.39,    27.91,    24.92,    22.19
      109.0,      24.70,    24.18,    27.84,    24.80,    21.97
      110.0,      24.55,    23.99,    27.76,    24.69,    21.76
      111.0,      24.41,    23.80,    27.70,    24.58,    21.56
      112.0,      24.27,    23.61,    27.63,    24.47,    21.37
      113.0,      24.13,    23.43,    27.56,    24.36,    21.18
      114.0,      24.00,    23.26,    27.50,    24.26,    21.00
      115.0,      23.88,    23.10,    27.43,    24.16,    20.82
      116.0,      23.76,    22.94,    27.37,    24.07,    20.66
      117.0,      23.64,    22.79,    27.31,    23.98,    20.49
      118.0,      23.53,    22.64,    27.25,    23.89,    20.34
      119.0,      23.42,    22.49,    27.19,    23.80,    20.19
      120.0,      23.31,    22.36,    27.13,    23.72,    20.04
      121.0,      23.21,    22.22,    27.07,    23.63,    19.90
      122.0,      23.11,    22.09,    27.01,    23.56,    19.76
      123.0,      23.01,    21.97,    26.96,    23.48,    19.63
      124.0,      22.91,    21.85,    26.90,    23.40,    19.51
      125.0,      22.82,    21.73,    26.85,    23.33,    19.38
      126.0,      22.73,    21.62,    26.79,    23.26,    19.27
      127.0,      22.65,    21.51,    26.74,    23.19,    19.15
      128.0,      22.56,    21.40,    26.69,    23.12,    19.04
      129.0,      22.48,    21.30,    26.64,    23.06,    18.94
      130.0,      22.40,    21.20,    26.59,    22.99,    18.83
      131.0,      22.33,    21.10,    26.54,    22.93,    18.73
      132.0,      22.25,    21.01,    26.49,    22.87,    18.64
      133.0,      22.18,    20.92,    26.44,    22.81,    18.54
      134.0,      22.11,    20.83,    26.39,    22.76,    18.45
      135.0,      22.04,    20.75,    26.34,    22.70,    18.37
      136.0,      21.97,    20.67,    26.30,    22.65,    18.28
      137.0,      21.91,    20.59,    26.25,    22.59,    18.20
      138.0,      21.84,    20.51,    26.21,    22.54,    18.12
      139.0,      21.78,    20.44,    26.16,    22.49,    18.04
      140.0,      21.72,    20.36,    26.11,    22.44,    17.97
      141.0,      21.66,    20.29,    26.07,    22.39,    17.90
      142.0,      21.61,    20.22,    26.03,    22.34,    17.83
      143.0,      21.55,    20.16,    25.98,    22.30,    17.76
      144.0,      21.49,    20.09,    25.94,    22.25,    17.69
      145.0,      21.44,    20.03,    25.90,    22.21,    17.63
      146.0,      21.39,    19.97,    25.85,    22.16,    17.57
      147.0,      21.34,    19.91,    25.81,    22.12,    17.51
      148.0,      21.29,    19.85,    25.77,    22.08,    17.45
      149.0,      21.24,    19.80,    25.73,    22.04,    17.39
      150.0,      21.19,    19.74,    25.69,    22.00,    17.34
      151.0,      21.14,    19.69,    25.65,    21.96,    17.28
      152.0,      21.10,    19.64,    25.61,    21.92,    17.23
      153.0,      21.05,    19.59,    25.57,    21.88,    17.18
      154.0,      21.01,    19.54,    25.53,    21.85,    17.13
      155.0,      20.97,    19.49,    25.49,    21.81,    17.08
      156.0,      20.92,    19.44,    25.45,    21.77,    17.04
      157.0,      20.88,    19.39,    25.41,    21.74,    16.99
      158.0,      20.84,    19.35,    25.37,    21.70,    16.95
      159.0,      20.80,    19.31,    25.33,    21.67,    16.90
      160.0,      20.76,    19.26,    25.29,    21.63,    16.86
      161.0,      20.72,    19.22,    25.26,    21.60,    16.82
      162.0,      20.69,    19.18,    25.22,    21.57,    16.78
      163.0,      20.65,    19.14,    25.18,    21.53,    16.74
      164.0,      20.61,    19.10,    25.14,    21.50,    16.70
      165.0,      20.58,    19.06,    25.11,    21.47,    16.67
      166.0,      20.54,    19.03,    25.07,    21.44,    16.63
      167.0,      20.51,    18.99,    25.03,    21.41,    16.59
      168.0,      20.47,    18.95,    25.00,    21.38,    16.56
      169.0,      20.44,    18.92,    24.96,    21.35,    16.52
      170.0,      20.40,    18.88,    24.92,    21.32,    16.49
      171.0,      20.37,    18.85,    24.89,    21.29,    16.46
      172.0,      20.34,    18.82,    24.85,    21.26,    16.43
      173.0,      20.31,    18.78,    24.82,    21.23,    16.39
      174.0,      20.27,    18.75,    24.78,    21.21,    16.36
      175.0,      20.24,    18.72,    24.74,    21.18,    16.33
      176.0,      20.21,    18.69,    24.71,    21.15,    16.30
      177.0,      20.18,    18.66,    24.67,    21.12,    16.27
      178.0,      20.15,    18.63,    24.64,    21.10,    16.25
      179.0,      20.12,    18.60,    24.60,    21.07,    16.22
      180.0,      20.09,    18.57,    24.57,    21.04,    16.19
      181.0,      20.06,    18.54,    24.53,    21.02,    16.16
      182.0,      20.03,    18.51,    24.50,    20.99,    16.14
      183.0,      20.01,    18.48,    24.47,    20.96,    16.11
      184.0,      19.98,    18.46,    24.43,    20.94,    16.08
      185.0,      19.95,    18.43,    24.40,    20.91,    16.06
      186.0,      19.92,    18.40,    24.36,    20.89,    16.03
      187.0,      19.89,    18.38,    24.33,    20.86,    16.01
      188.0,      19.87,    18.35,    24.29,    20.84,    15.98
      189.0,      19.84,    18.33,    24.26,    20.81,    15.96
      190.0,      19.81,    18.30,    24.23,    20.79,    15.94
      191.0,      19.79,    18.27,    24.19,    20.76,    15.91
      192.0,      19.76,    18.25,    24.16,    20.74,    15.89
      193.0,      19.73,    18.23,    24.13,    20.72,    15.87
      194.0,      19.71,    18.20,    24.09,    20.69,    15.85
      195.0,      19.68,    18.18,    24.06,    20.67,    15.82
      196.0,      19.66,    18.15,    24.03,    20.65,    15.80
      197.0,      19.63,    18.13,    23.99,    20.62,    15.78
      198.0,      19.61,    18.11,    23.96,    20.60,    15.76
      199.0,      19.58,    18.08,    23.93,    20.58,    15.74
      200.0,      19.56,    18.06,    23.90,    20.55,    15.72
      201.0,      19.53,    18.04,    23.86,    20.53,    15.70
      202.0,      19.51,    18.02,    23.83,    20.51,    15.68
      203.0,      19.48,    17.99,    23.80,    20.48,    15.66
      204.0,      19.46,    17.97,    23.77,    20.46,    15.64
      205.0,      19.43,    17.95,    23.73,    20.44,    15.62
      206.0,      19.41,    17.93,    23.70,    20.42,    15.60
      207.0,      19.39,    17.91,    23.67,    20.39,    15.58
      208.0,      19.36,    17.89,    23.64,    20.37,    15.56
      209.0,      19.34,    17.86,    23.60,    20.35,    15.54
      210.0,      19.32,    17.84,    23.57,    20.33,    15.52
      211.0,      19.29,    17.82,    23.54,    20.31,    15.50
      212.0,      19.27,    17.80,    23.51,    20.28,    15.48
      213.0,      19.25,    17.78,    23.48,    20.26,    15.46
      214.0,      19.22,    17.76,    23.45,    20.24,    15.45
      215.0,      19.20,    17.74,    23.41,    20.22,    15.43
      216.0,      19.18,    17.72,    23.38,    20.20,    15.41
      217.0,      19.15,    17.70,    23.35,    20.18,    15.39
      218.0,      19.13,    17.68,    23.32,    20.16,    15.37
      219.0,      19.11,    17.66,    23.29,    20.13,    15.36
      220.0,      19.09,    17.64,    23.26,    20.11,    15.34
      221.0,      19.06,    17.62,    23.22,    20.09,    15.32
      222.0,      19.04,    17.60,    23.19,    20.07,    15.30
      223.0,      19.02,    17.58,    23.16,    20.05,    15.29
      224.0,      19.00,    17.56,    23.13,    20.03,    15.27
      225.0,      18.98,    17.54,    23.10,    20.01,    15.25
      226.0,      18.95,    17.52,    23.07,    19.99,    15.23
      227.0,      18.93,    17.50,    23.04,    19.97,    15.22
      228.0,      18.91,    17.49,    23.01,    19.94,    15.20
      229.0,      18.89,    17.47,    22.98,    19.92,    15.18
      230.0,      18.87,    17.45,    22.95,    19.90,    15.17
      231.0,      18.84,    17.43,    22.91,    19.88,    15.15
      232.0,      18.82,    17.41,    22.88,    19.86,    15.13
      233.0,      18.80,    17.39,    22.85,    19.84,    15.12
      234.0,      18.78,    17.37,    22.82,    19.82,    15.10
      235.0,      18.76,    17.35,    22.79,    19.80,    15.08
      236.0,      18.74,    17.34,    22.76,    19.78,    15.07
      237.0,      18.72,    17.32,    22.73,    19.76,    15.05
      238.0,      18.69,    17.30,    22.70,    19.74,    15.04
      239.0,      18.67,    17.28,    22.67,    19.72,    15.02
      240.0,      18.65,    17.26,    22.64,    19.70,    15.00
      241.0,      18.63,    17.24,    22.61,    19.68,    14.99
      242.0,      18.61,    17.23,    22.58,    19.66,    14.97
      243.0,      18.59,    17.21,    22.55,    19.64,    14.96
      244.0,      18.57,    17.19,    22.52,    19.62,    14.94
      245.0,      18.55,    17.17,    22.49,    19.60,    14.92
      246.0,      18.53,    17.15,    22.46,    19.58,    14.91
      247.0,      18.50,    17.14,    22.43,    19.56,    14.89
      248.0,      18.48,    17.12,    22.40,    19.54,    14.88
      249.0,      18.46,    17.10,    22.37,    19.52,    14.86
      250.0,      18.44,    17.08,    22.34,    19.50,    14.85
      251.0,      18.42,    17.07,    22.31,    19.48,    14.83
      252.0,      18.40,    17.05,    22.28,    19.46,    14.81
      253.0,      18.38,    17.03,    22.25,    19.44,    14.80
      254.0,      18.36,    17.01,    22.22,    19.42,    14.78
      255.0,      18.34,    17.00,    22.19,    19.40,    14.77
      256.0,      18.32,    16.98,    22.16,    19.38,    14.75
      257.0,      18.30,    16.96,    22.13,    19.36,    14.74
      258.0,      18.28,    16.94,    22.10,    19.34,    14.72
      259.0,      18.26,    16.93,    22.07,    19.32,    14.71
      260.0,      18.24,    16.91,    22.04,    19.30,    14.69
      261.0,      18.22,    16.89,    22.01,    19.28,    14.68
      262.0,      18.20,    16.87,    21.98,    19.26,    14.66
      263.0,      18.18,    16.86,    21.95,    19.24,    14.65
      264.0,      18.16,    16.84,    21.92,    19.22,    14.63
      265.0,      18.14,    16.82,    21.90,    19.21,    14.62
      266.0,      18.11,    16.80,    21.87,    19.19,    14.60
      267.0,      18.09,    16.79,    21.84,    19.17,    14.59
      268.0,      18.07,    16.77,    21.81,    19.15,    14.57
      269.0,      18.05,    16.75,    21.78,    19.13,    14.56
      270.0,      18.03,    16.74,    21.75,    19.11,    14.54
      271.0,      18.01,    16.72,    21.72,    19.09,    14.53
      272.0,      17.99,    16.70,    21.69,    19.07,    14.51
      273.0,      17.97,    16.69,    21.66,    19.05,    14.50
      274.0,      17.95,    16.67,    21.63,    19.03,    14.48
      275.0,      17.93,    16.65,    21.61,    19.01,    14.47
      276.0,      17.91,    16.63,    21.58,    18.99,    14.45
      277.0,      17.90,    16.62,    21.55,    18.97,    14.44
      278.0,      17.88,    16.60,    21.52,    18.96,    14.42
      279.0,      17.86,    16.58,    21.49,    18.94,    14.41
      280.0,      17.84,    16.57,    21.46,    18.92,    14.40
      281.0,      17.82,    16.55,    21.43,    18.90,    14.38
      282.0,      17.80,    16.53,    21.40,    18.88,    14.37
      283.0,      17.78,    16.52,    21.38,    18.86,    14.35
      284.0,      17.76,    16.50,    21.35,    18.84,    14.34
      285.0,      17.74,    16.48,    21.32,    18.82,    14.32
      286.0,      17.72,    16.47,    21.29,    18.80,    14.31
      287.0,      17.70,    16.45,    21.26,    18.79,    14.29
      288.0,      17.68,    16.43,    21.23,    18.77,    14.28
      289.0,      17.66,    16.42,    21.21,    18.75,    14.27
      290.0,      17.64,    16.40,    21.18,    18.73,    14.25
      291.0,      17.62,    16.38,    21.15,    18.71,    14.24
      292.0,      17.60,    16.37,    21.12,    18.69,    14.22
      293.0,      17.58,    16.35,    21.09,    18.67,    14.21
      294.0,      17.56,    16.34,    21.07,    18.65,    14.19
      295.0,      17.54,    16.32,    21.04,    18.63,    14.18
      296.0,      17.52,    16.30,    21.01,    18.62,    14.16
      297.0,      17.50,    16.29,    20.98,    18.60,    14.15
      298.0,      17.48,    16.27,    20.95,    18.58,    14.14
      299.0,      17.47,    16.25,    20.93,    18.56,    14.12
      300.0,      17.45,    16.24,    20.90,    18.54,    14.11
      301.0,      17.43,    16.22,    20.87,    18.52,    14.09
      302.0,      17.41,    16.20,    20.84,    18.50,    14.08
      303.0,      17.39,    16.19,    20.81,    18.49,    14.07
      304.0,      17.37,    16.17,    20.79,    18.47,    14.05
      305.0,      17.35,    16.16,    20.76,    18.45,    14.04
      306.0,      17.33,    16.14,    20.73,    18.43,    14.02
      307.0,      17.31,    16.12,    20.70,    18.41,    14.01
      308.0,      17.29,    16.11,    20.68,    18.39,    13.99
      309.0,      17.27,    16.09,    20.65,    18.38,    13.98
      310.0,      17.25,    16.07,    20.62,    18.36,    13.97
