Radius (km), Mean (m/s), NE (m/s), SE (m/s), SW (m/s), NW (m/s)
        0.0,       0.00,     0.00,     0.00,     0.00,     0.00
        1.0,       3.49,     3.34,     3.57,     3.73,     3.34
        2.0,       6.01,     5.96,     6.09,     6.04,     5.96
        3.0,       8.34,     8.43,     8.42,     8.06,     8.45
        4.0,      10.65,    10.93,    10.73,     9.99,    10.97
        5.0,      13.06,    13.54,    13.14,    11.94,    13.63
        6.0,      15.62,    16.35,    15.69,    13.96,    16.49
        7.0,      18.33,    19.33,    18.35,    16.06,    19.56
        8.0,      21.12,    22.45,    21.06,    18.21,    22.76
        9.0,      23.91,    25.59,    23.74,    20.34,    25.98
       10.0,      26.58,    28.62,    26.25,    22.36,    29.08
       11.0,      28.99,    31.39,    28.49,    24.19,    31.90
       12.0,      31.04,    33.77,    30.36,    25.74,    34.30
       13.0,      32.66,    35.68,    31.80,    26.96,    36.20
       14.0,      33.80,    37.06,    32.79,    27.83,    37.53
       15.0,      34.48,    37.92,    33.36,    28.35,    38.32
       16.0,      34.75,    38.30,    33.55,    28.56,    38.60
       17.0,      34.69,    38.29,    33.45,    28.51,    38.48
       18.0,      34.38,    38.00,    33.16,    28.29,    38.07
       19.0,      33.93,    37.54,    32.75,    27.96,    37.47
       20.0,      33.42,    36.99,    32.29,    27.58,    36.80
       21.0,      32.89,    36.42,    31.83,    27.20,    36.12
       22.0,      32.39,    35.88,    31.39,    26.82,    35.46
       23.0,      31.91,    35.37,    30.97,    26.47,    34.83
       24.0,      31.46,    34.88,    30.58,    26.13,    34.24
       25.0,      31.02,    34.41,    30.19,    25.81,    33.67
       26.0,      30.60,    33.96,    29.82,    25.50,    33.13
       27.0,      30.20,    33.53,    29.47,    25.20,    32.60
       28.0,      29.81,    33.11,    29.13,    24.91,    32.09
       29.0,      29.44,    32.71,    28.80,    24.63,    31.61
       30.0,      29.07,    32.32,    28.48,    24.37,    31.14
       31.0,      28.73,    31.94,    28.17,    24.11,    30.68
       32.0,      28.39,    31.58,    27.88,    23.86,    30.25
       33.0,      28.07,    31.23,    27.59,    23.62,    29.83
       34.0,      27.76,    30.90,    27.32,    23.39,    29.43
       35.0,      27.46,    30.57,    27.06,    23.16,    29.04
       36.0,      27.17,    30.26,    26.80,    22.95,    28.66
       37.0,      26.89,    29.96,    26.56,    22.74,    28.30
       38.0,      26.62,    29.66,    26.32,    22.54,    27.95
       39.0,      26.36,    29.38,    26.09,    22.34,    27.62
       40.0,      26.11,    29.11,    25.88,    22.16,    27.29
       41.0,      25.87,    28.85,    25.66,    21.98,    26.98
       42.0,      25.63,    28.59,    25.46,    21.80,    26.68
       43.0,      25.41,    28.35,    25.26,    21.63,    26.39
       44.0,      25.19,    28.11,    25.07,    21.47,    26.11
       45.0,      24.98,    27.88,    24.89,    21.31,    25.85
       46.0,      24.78,    27.66,    24.71,    21.16,    25.59
       47.0,      24.58,    27.45,    24.54,    21.01,    25.34
       48.0,      24.40,    27.24,    24.38,    20.87,    25.10
       49.0,      24.21,    27.04,    24.22,    20.74,    24.86
       50.0,      24.04,    26.85,    24.06,    20.60,    24.64
       51.0,      23.87,    26.66,    23.91,    20.47,    24.42
       52.0,      23.70,    26.48,    23.77,    20.35,    24.21
       53.0,      23.54,    26.30,    23.63,    20.23,    24.01
       54.0,      23.39,    26.13,    23.50,    20.11,    23.82
       55.0,      23.24,    25.97,    23.37,    20.00,    23.63
       56.0,      23.10,    25.81,    23.24,    19.89,    23.45
       57.0,      22.96,    25.66,    23.12,    19.79,    23.27
       58.0,      22.82,    25.51,    23.00,    19.68,    23.10
       59.0,      22.69,    25.36,    22.89,    19.59,    22.94
       60.0,      22.57,    25.22,    22.78,    19.49,    22.78
       61.0,      22.44,    25.08,    22.67,    19.40,    22.62
       62.0,      22.33,    24.95,    22.57,    19.31,    22.48
       63.0,      22.21,    24.82,    22.47,    19.22,    22.33
       64.0,      22.10,    24.70,    22.38,    19.13,    22.19
       65.0,      21.99,    24.58,    22.28,    19.05,    22.06
       66.0,      21.89,    24.46,    22.19,    18.97,    21.93
       67.0,      21.79,    24.35,    22.10,    18.89,    21.80
       68.0,      21.69,    24.23,    22.02,    18.82,    21.68
       69.0,      21.59,    24.13,    21.94,    18.74,    21.57
       70.0,      21.50,    24.02,    21.85,    18.67,    21.45
       71.0,      21.41,    23.92,    21.78,    18.60,    21.34
       72.0,      21.32,    23.82,    21.70,    18.53,    21.23
       73.0,      21.24,    23.72,    21.63,    18.47,    21.13
       74.0,      21.15,    23.63,    21.56,    18.40,    21.03
       75.0,      21.07,    23.54,    21.49,    18.34,    20.93
       76.0,      21.00,    23.45,    21.42,    18.28,    20.84
       77.0,      20.92,    23.36,    21.35,    18.22,    20.74
       78.0,      20.85,    23.27,    21.29,    18.16,    20.66
       79.0,      20.77,    23.19,    21.23,    18.11,    20.57
       80.0,      20.70,    23.11,    21.17,    18.05,    20.48
       81.0,      20.64,    23.03,    21.11,    18.00,    20.40
       82.0,      20.57,    22.95,    21.05,    17.95,    20.32
       83.0,      20.50,    22.88,    21.00,    17.90,    20.25
       84.0,      20.44,    22.80,    20.94,    17.85,    20.17
       85.0,      20.38,    22.73,    20.89,    17.80,    20.10
       86.0,      20.32,    22.66,    20.84,    17.75,    20.03
       87.0,      20.26,    22.59,    20.79,    17.70,    19.96
       88.0,      20.20,    22.53,    20.74,    17.66,    19.89
       89.0,      20.15,    22.46,    20.69,    17.61,    19.82
       90.0,      20.09,    22.39,    20.64,    17.57,    19.76
       91.0,      20.04,    22.33,    20.60,    17.53,    19.70
       92.0,      19.99,    22.27,    20.55,    17.48,    19.64
       93.0,      19.93,    22.21,    20.51,    17.44,    19.58
       94.0,      19.88,    22.15,    20.47,    17.40,    19.52
       95.0,      19.83,    22.09,    20.43,    17.36,    19.46
       96.0,      19.79,    22.03,    20.38,    17.32,    19.41
       97.0,      19.74,    21.97,    20.34,    17.29,    19.35
       98.0,      19.69,    21.92,    20.30,    17.25,    19.30
       99.0,      19.65,    21.86,    20.27,    17.21,    19.25
      100.0,      19.60,    21.81,    20.23,    17.18,    19.20
      101.0,      19.56,    21.76,    20.19,    17.14,    19.15
      102.0,      19.52,    21.70,    20.15,    17.11,    19.10
      103.0,      19.47,    21.65,    20.12,    17.07,    19.05
      104.0,      19.43,    21.60,    20.08,    17.04,    19.01
      105.0,      19.39,    21.55,    20.05,    17.00,    18.96
      106.0,      19.35,    21.50,    20.02,    16.97,    18.92
      107.0,      19.31,    21.46,    19.98,    16.94,    18.87
      108.0,      19.27,    21.41,    19.95,    16.91,    18.83
      109.0,      19.24,    21.36,    19.92,    16.88,    18.79
      110.0,      19.20,    21.32,    19.89,    16.84,    18.75
      111.0,      19.16,    21.27,    19.85,    16.81,    18.71
      112.0,      19.12,    21.23,    19.82,    16.78,    18.67
      113.0,      19.09,    21.18,    19.79,    16.75,    18.63
      114.0,      19.05,    21.14,    19.76,    16.72,    18.59
      115.0,      19.02,    21.09,    19.73,    16.70,    18.55
      116.0,      18.98,    21.05,    19.71,    16.67,    18.51
      117.0,      18.95,    21.01,    19.68,    16.64,    18.48
      118.0,      18.92,    20.97,    19.65,    16.61,    18.44
      119.0,      18.88,    20.92,    19.62,    16.58,    18.41
      120.0,      18.85,    20.88,    19.59,    16.56,    18.37
      121.0,      18.82,    20.84,    19.57,    16.53,    18.34
      122.0,      18.79,    20.80,    19.54,    16.50,    18.30
      123.0,      18.75,    20.76,    19.51,    16.47,    18.27
      124.0,      18.72,    20.72,    19.49,    16.45,    18.24
      125.0,      18.69,    20.68,    19.46,    16.42,    18.20
      126.0,      18.66,    20.65,    19.44,    16.40,    18.17
      127.0,      18.63,    20.61,    19.41,    16.37,    18.14
      128.0,      18.60,    20.57,    19.38,    16.35,    18.11
      129.0,      18.57,    20.53,    19.36,    16.32,    18.08
      130.0,      18.54,    20.49,    19.34,    16.30,    18.04
      131.0,      18.51,    20.46,    19.31,    16.27,    18.01
      132.0,      18.48,    20.42,    19.29,    16.25,    17.98
      133.0,      18.46,    20.38,    19.26,    16.22,    17.95
      134.0,      18.43,    20.35,    19.24,    16.20,    17.93
      135.0,      18.40,    20.31,    19.22,    16.17,    17.90
      136.0,      18.37,    20.28,    19.19,    16.15,    17.87
      137.0,      18.34,    20.24,    19.17,    16.13,    17.84
      138.0,      18.32,    20.21,    19.15,    16.10,    17.81
      139.0,      18.29,    20.17,    19.12,    16.08,    17.78
      140.0,      18.26,    20.14,    19.10,    16.06,    17.75
      141.0,      18.24,    20.10,    19.08,    16.03,    17.73
      142.0,      18.21,    20.07,    19.06,    16.01,    17.70
      143.0,      18.18,    20.03,    19.03,    15.99,    17.67
      144.0,      18.16,    20.00,    19.01,    15.97,    17.65
      145.0,      18.13,    19.97,    18.99,    15.94,    17.62
      146.0,      18.10,    19.93,    18.97,    15.92,    17.59
      147.0,      18.08,    19.90,    18.95,    15.90,    17.57
      148.0,      18.05,    19.87,    18.92,    15.88,    17.54
      149.0,      18.03,    19.83,    18.90,    15.85,    17.51
      150.0,      18.00,    19.80,    18.88,    15.83,    17.49
      151.0,      17.98,    19.77,    18.86,    15.81,    17.46
      152.0,      17.95,    19.73,    18.84,    15.79,    17.44
      153.0,      17.92,    19.70,    18.82,    15.77,    17.41
      154.0,      17.90,    19.67,    18.80,    15.74,    17.39
      155.0,      17.88,    19.64,    18.78,    15.72,    17.36
      156.0,      17.85,    19.61,    18.76,    15.70,    17.34
      157.0,      17.83,    19.57,    18.74,    15.68,    17.31
      158.0,      17.80,    19.54,    18.72,    15.66,    17.29
      159.0,      17.78,    19.51,    18.70,    15.64,    17.26
      160.0,      17.75,    19.48,    18.67,    15.62,    17.24
      161.0,      17.73,    19.45,    18.65,    15.60,    17.22
      162.0,      17.70,    19.42,    18.63,    15.58,    17.19
      163.0,      17.68,    19.39,    18.61,    15.55,    17.17
      164.0,      17.66,    19.35,    18.59,    15.53,    17.14
      165.0,      17.63,    19.32,    18.57,    15.51,    17.12
      166.0,      17.61,    19.29,    18.55,    15.49,    17.10
      167.0,      17.59,    19.26,    18.54,    15.47,    17.07
      168.0,      17.56,    19.23,    18.52,    15.45,    17.05
      169.0,      17.54,    19.20,    18.50,    15.43,    17.03
      170.0,      17.52,    19.17,    18.48,    15.41,    17.00
      171.0,      17.49,    19.14,    18.46,    15.39,    16.98
      172.0,      17.47,    19.11,    18.44,    15.37,    16.96
      173.0,      17.45,    19.08,    18.42,    15.35,    16.94
      174.0,      17.42,    19.05,    18.40,    15.33,    16.91
      175.0,      17.40,    19.02,    18.38,    15.31,    16.89
      176.0,      17.38,    18.99,    18.36,    15.29,    16.87
      177.0,      17.35,    18.96,    18.34,    15.27,    16.84
      178.0,      17.33,    18.93,    18.32,    15.25,    16.82
      179.0,      17.31,    18.90,    18.30,    15.23,    16.80
      180.0,      17.29,    18.87,    18.28,    15.21,    16.78
      181.0,      17.26,    18.84,    18.26,    15.19,    16.76
      182.0,      17.24,    18.81,    18.25,    15.17,    16.73
      183.0,      17.22,    18.78,    18.23,    15.15,    16.71
      184.0,      17.20,    18.75,    18.21,    15.13,    16.69
      185.0,      17.17,    18.73,    18.19,    15.11,    16.67
      186.0,      17.15,    18.70,    18.17,    15.09,    16.64
      187.0,      17.13,    18.67,    18.15,    15.07,    16.62
      188.0,      17.11,    18.64,    18.13,    15.05,    16.60
      189.0,      17.08,    18.61,    18.11,    15.03,    16.58
      190.0,      17.06,    18.58,    18.10,    15.02,    16.56
      191.0,      17.04,    18.55,    18.08,    15.00,    16.54
      192.0,      17.02,    18.52,    18.06,    14.98,    16.51
      193.0,      17.00,    18.49,    18.04,    14.96,    16.49
      194.0,      16.97,    18.47,    18.02,    14.94,    16.47
      195.0,      16.95,    18.44,    18.00,    14.92,    16.45
      196.0,      16.93,    18.41,    17.99,    14.90,    16.43
      197.0,      16.91,    18.38,    17.97,    14.88,    16.41
      198.0,      16.89,    18.35,    17.95,    14.86,    16.39
      199.0,      16.87,    18.32,    17.93,    14.84,    16.36
      200.0,      16.84,    18.30,    17.91,    14.82,    16.34
      201.0,      16.82,    18.27,    17.89,    14.80,    16.32
      202.0,      16.80,    18.24,    17.88,    14.79,    16.30
      203.0,      16.78,    18.21,    17.86,    14.77,    16.28
      204.0,      16.76,    18.18,    17.84,    14.75,    16.26
      205.0,      16.74,    18.16,    17.82,    14.73,    16.24
      206.0,      16.71,    18.13,    17.80,    14.71,    16.22
      207.0,      16.69,    18.10,    17.79,    14.69,    16.20
      208.0,      16.67,    18.07,    17.77,    14.67,    16.18
      209.0,      16.65,    18.05,    17.75,    14.65,    16.15
      210.0,      16.63,    18.02,    17.73,    14.64,    16.13
      211.0,      16.61,    17.99,    17.71,    14.62,    16.11
      212.0,      16.59,    17.96,    17.70,    14.60,    16.09
      213.0,      16.57,    17.93,    17.68,    14.58,    16.07
      214.0,      16.55,    17.91,    17.66,    14.56,    16.05
      215.0,      16.52,    17.88,    17.64,    14.54,    16.03
      216.0,      16.50,    17.85,    17.62,    14.52,    16.01
      217.0,      16.48,    17.83,    17.61,    14.51,    15.99
      218.0,      16.46,    17.80,    17.59,    14.49,    15.97
      219.0,      16.44,    17.77,    17.57,    14.47,    15.95
      220.0,      16.42,    17.74,    17.55,    14.45,    15.93
      221.0,      16.40,    17.72,    17.54,    14.43,    15.91
      222.0,      16.38,    17.69,    17.52,    14.41,    15.89
      223.0,      16.36,    17.66,    17.50,    14.40,    15.87
      224.0,      16.34,    17.64,    17.48,    14.38,    15.85
      225.0,      16.32,    17.61,    17.46,    14.36,    15.83
      226.0,      16.29,    17.58,    17.45,    14.34,    15.81
      227.0,      16.27,    17.56,    17.43,    14.32,    15.79
      228.0,      16.25,    17.53,    17.41,    14.30,    15.77
      229.0,      16.23,    17.50,    17.39,    14.29,    15.75
      230.0,      16.21,    17.48,    17.38,    14.27,    15.73
      231.0,      16.19,    17.45,    17.36,    14.25,    15.71
      232.0,      16.17,    17.42,    17.34,    14.23,    15.69
      233.0,      16.15,    17.40,    17.33,    14.21,    15.67
      234.0,      16.13,    17.37,    17.31,    14.20,    15.65
      235.0,      16.11,    17.34,    17.29,    14.18,    15.63
      236.0,      16.09,    17.32,    17.27,    14.16,    15.61
      237.0,      16.07,    17.29,    17.26,    14.14,    15.59
      238.0,      16.05,    17.26,    17.24,    14.12,    15.57
      239.0,      16.03,    17.24,    17.22,    14.11,    15.55
      240.0,      16.01,    17.21,    17.20,    14.09,    15.53
      241.0,      15.99,    17.18,    17.19,    14.07,    15.51
      242.0,      15.97,    17.16,    17.17,    14.05,    15.49
      243.0,      15.95,    17.13,    17.15,    14.04,    15.47
      244.0,      15.93,    17.11,    17.13,    14.02,    15.45
      245.0,      15.91,    17.08,    17.12,    14.00,    15.43
      246.0,      15.89,    17.05,    17.10,    13.98,    15.41
      247.0,      15.87,    17.03,    17.08,    13.96,    15.39
      248.0,      15.85,    17.00,    17.07,    13.95,    15.37
      249.0,      15.83,    16.98,    17.05,    13.93,    15.35
      250.0,      15.81,    16.95,    17.03,    13.91,    15.33
      251.0,      15.79,    16.93,    17.01,    13.89,    15.31
      252.0,      15.77,    16.90,    17.00,    13.88,    15.29
      253.0,      15.75,    16.87,    16.98,    13.86,    15.27
      254.0,      15.73,    16.85,    16.96,    13.84,    15.25
      255.0,      15.71,    16.82,    16.95,    13.82,    15.23
      256.0,      15.69,    16.80,    16.93,    13.81,    15.21
      257.0,      15.67,    16.77,    16.91,    13.79,    15.20
      258.0,      15.65,    16.75,    16.90,    13.77,    15.18
      259.0,      15.63,    16.72,    16.88,    13.75,    15.16
      260.0,      15.61,    16.70,    16.86,    13.74,    15.14
      261.0,      15.59,    16.67,    16.85,    13.72,    15.12
      262.0,      15.57,    16.64,    16.83,    13.70,    15.10
      263.0,      15.55,    16.62,    16.81,    13.69,    15.08
      264.0,      15.53,    16.59,    16.79,    13.67,    15.06
      265.0,      15.51,    16.57,    16.78,    13.65,    15.04
      266.0,      15.49,    16.54,    16.76,    13.63,    15.02
      267.0,      15.47,    16.52,    16.74,    13.62,    15.00
      268.0,      15.45,    16.49,    16.73,    13.60,    14.98
      269.0,      15.43,    16.47,    16.71,    13.58,    14.97
      270.0,      15.41,    16.44,    16.69,    13.56,    14.95
      271.0,      15.39,    16.42,    16.68,    13.55,    14.93
      272.0,      15.37,    16.39,    16.66,    13.53,    14.91
      273.0,      15.35,    16.37,    16.64,    13.51,    14.89
      274.0,      15.33,    16.34,    16.63,    13.50,    14.87
      275.0,      15.32,    16.32,    16.61,    13.48,    14.85
      276.0,      15.30,    16.29,    16.59,    13.46,    14.83
      277.0,      15.28,    16.27,    16.58,    13.45,    14.81
      278.0,      15.26,    16.24,    16.56,    13.43,    14.80
      279.0,      15.24,    16.22,    16.54,    13.41,    14.78
      280.0,      15.22,    16.20,    16.53,    13.39,    14.76
      281.0,      15.20,    16.17,    16.51,    13.38,    14.74
      282.0,      15.18,    16.15,    16.49,    13.36,    14.72
      283.0,      15.16,    16.12,    16.48,    13.34,    14.70
      284.0,      15.14,    16.10,    16.46,    13.33,    14.68
      285.0,      15.12,    16.07,    16.45,    13.31,    14.67
      286.0,      15.10,    16.05,    16.43,    13.29,    14.65
      287.0,      15.09,    16.02,    16.41,    13.28,    14.63
      288.0,      15.07,    16.00,    16.40,    13.26,    14.61
      289.0,      15.05,    15.98,    16.38,    13.24,    14.59
      290.0,      15.03,    15.95,    16.36,    13.23,    14.57
      291.0,      15.01,    15.93,    16.35,    13.21,    14.55
      292.0,      14.99,    15.90,    16.33,    13.19,    14.54
      293.0,      14.97,    15.88,    16.31,    13.18,    14.52
      294.0,      14.95,    15.86,    16.30,    13.16,    14.50
      295.0,      14.93,    15.83,    16.28,    13.14,    14.48
      296.0,      14.92,    15.81,    16.27,    13.13,    14.46
      297.0,      14.90,    15.78,    16.25,    13.11,    14.44
      298.0,      14.88,    15.76,    16.23,    13.09,    14.43
      299.0,      14.86,    15.74,    16.22,    13.08,    14.41
      300.0,      14.84,    15.71,    16.20,    13.06,    14.39
      301.0,      14.82,    15.69,    16.18,    13.04,    14.37
      302.0,      14.80,    15.66,    16.17,    13.03,    14.35
      303.0,      14.78,    15.64,    16.15,    13.01,    14.33
      304.0,      14.77,    15.62,    16.14,    12.99,    14.32
      305.0,      14.75,    15.59,    16.12,    12.98,    14.30
      306.0,      14.73,    15.57,    16.10,    12.96,    14.28
      307.0,      14.71,    15.55,    16.09,    12.95,    14.26
      308.0,      14.69,    15.52,    16.07,    12.93,    14.24
      309.0,      14.67,    15.50,    16.06,    12.91,    14.23
      310.0,      14.65,    15.47,    16.04,    12.90,    14.21
