Radius (km), Mean (m/s), NE (m/s), SE (m/s), SW (m/s), NW (m/s)
        0.0,       0.00,     0.00,     0.00,     0.00,     0.00
        1.0,       1.42,     1.38,     1.38,     1.45,     1.47
        2.0,       2.27,     2.23,     2.23,     2.31,     2.32
        3.0,       2.99,     2.95,     2.95,     3.02,     3.03
        4.0,       3.63,     3.60,     3.60,     3.66,     3.67
        5.0,       4.22,     4.20,     4.20,     4.25,     4.26
        6.0,       4.78,     4.76,     4.76,     4.80,     4.80
        7.0,       5.31,     5.30,     5.30,     5.32,     5.32
        8.0,       5.81,     5.81,     5.81,     5.81,     5.81
        9.0,       6.29,     6.30,     6.30,     6.28,     6.28
       10.0,       6.76,     6.78,     6.78,     6.74,     6.73
       11.0,       7.21,     7.24,     7.24,     7.18,     7.17
       12.0,       7.65,     7.69,     7.69,     7.61,     7.60
       13.0,       8.07,     8.13,     8.13,     8.03,     8.01
       14.0,       8.49,     8.56,     8.56,     8.43,     8.41
       15.0,       8.90,     8.98,     8.98,     8.83,     8.81
       16.0,       9.29,     9.38,     9.38,     9.22,     9.19
       17.0,       9.69,     9.79,     9.79,     9.60,     9.57
       18.0,      10.07,    10.18,    10.18,     9.97,     9.94
       19.0,      10.44,    10.57,    10.57,    10.34,    10.30
       20.0,      10.81,    10.95,    10.95,    10.70,    10.65
       21.0,      11.18,    11.33,    11.33,    11.05,    11.00
       22.0,      11.54,    11.70,    11.70,    11.40,    11.35
       23.0,      11.89,    12.06,    12.06,    11.74,    11.69
       24.0,      12.24,    12.42,    12.42,    12.08,    12.02
       25.0,      12.58,    12.78,    12.78,    12.41,    12.35
       26.0,      12.92,    13.13,    13.13,    12.74,    12.67
       27.0,      13.25,    13.48,    13.48,    13.06,    13.00
       28.0,      13.58,    13.82,    13.82,    13.38,    13.31
       29.0,      13.91,    14.16,    14.16,    13.70,    13.62
       30.0,      14.24,    14.50,    14.50,    14.01,    13.93
       31.0,      14.56,    14.83,    14.83,    14.32,    14.24
       32.0,      14.87,    15.16,    15.16,    14.63,    14.54
       33.0,      15.19,    15.49,    15.49,    14.93,    14.84
       34.0,      15.50,    15.81,    15.81,    15.23,    15.14
       35.0,      15.80,    16.13,    16.13,    15.53,    15.43
       36.0,      16.11,    16.45,    16.45,    15.82,    15.72
       37.0,      16.41,    16.76,    16.76,    16.11,    16.01
       38.0,      16.71,    17.07,    17.07,    16.40,    16.29
       39.0,      17.01,    17.38,    17.38,    16.69,    16.58
       40.0,      17.30,    17.69,    17.69,    16.97,    16.86
       41.0,      17.59,    18.00,    18.00,    17.25,    17.13
       42.0,      17.88,    18.30,    18.30,    17.53,    17.41
       43.0,      18.17,    18.60,    18.60,    17.81,    17.68
       44.0,      18.46,    18.90,    18.90,    18.08,    17.95
       45.0,      18.74,    19.19,    19.19,    18.36,    18.22
       46.0,      19.02,    19.49,    19.49,    18.63,    18.49
       47.0,      19.30,    19.78,    19.78,    18.89,    18.76
       48.0,      19.58,    20.07,    20.07,    19.16,    19.02
       49.0,      19.86,    20.36,    20.36,    19.43,    19.28
       50.0,      20.13,    20.64,    20.64,    19.69,    19.54
       51.0,      20.40,    20.93,    20.93,    19.95,    19.80
       52.0,      20.67,    21.21,    21.21,    20.21,    20.05
       53.0,      20.94,    21.49,    21.49,    20.47,    20.31
       54.0,      21.21,    21.77,    21.77,    20.73,    20.56
       55.0,      21.47,    22.05,    22.05,    20.98,    20.81
       56.0,      21.74,    22.33,    22.33,    21.23,    21.06
       57.0,      22.00,    22.60,    22.60,    21.49,    21.31
       58.0,      22.26,    22.88,    22.88,    21.74,    21.56
       59.0,      22.52,    23.15,    23.15,    21.98,    21.80
       60.0,      22.78,    23.42,    23.42,    22.23,    22.05
       61.0,      23.04,    23.69,    23.69,    22.48,    22.29
       62.0,      23.29,    23.96,    23.96,    22.72,    22.53
       63.0,      23.55,    24.22,    24.22,    22.97,    22.77
       64.0,      23.80,    24.49,    24.49,    23.21,    23.01
       65.0,      24.05,    24.75,    24.75,    23.45,    23.25
       66.0,      24.30,    25.01,    25.01,    23.69,    23.48
       67.0,      24.55,    25.28,    25.28,    23.93,    23.72
       68.0,      24.80,    25.54,    25.54,    24.16,    23.95
       69.0,      25.04,    25.80,    25.80,    24.40,    24.18
       70.0,      25.29,    26.05,    26.05,    24.64,    24.42
       71.0,      25.53,    26.31,    26.31,    24.87,    24.65
       72.0,      25.78,    26.57,    26.57,    25.11,    24.88
       73.0,      26.03,    26.84,    26.83,    25.35,    25.11
       74.0,      26.31,    27.13,    27.11,    25.62,    25.37
       75.0,      26.61,    27.45,    27.40,    25.91,    25.66
       76.0,      26.94,    27.82,    27.73,    26.23,    25.98
       77.0,      27.30,    28.22,    28.07,    26.58,    26.35
       78.0,      27.69,    28.65,    28.43,    26.94,    26.74
       79.0,      28.07,    29.08,    28.79,    27.30,    27.13
       80.0,      28.44,    29.49,    29.13,    27.63,    27.51
       81.0,      28.76,    29.84,    29.45,    27.92,    27.84
       82.0,      29.02,    30.12,    29.71,    28.16,    28.09
       83.0,      29.20,    30.29,    29.91,    28.32,    28.26
       84.0,      29.29,    30.37,    30.05,    28.41,    28.32
       85.0,      29.29,    30.34,    30.13,    28.42,    28.28
       86.0,      29.23,    30.22,    30.15,    28.38,    28.15
       87.0,      29.10,    30.03,    30.13,    28.29,    27.95
       88.0,      28.93,    29.79,    30.07,    28.17,    27.70
       89.0,      28.75,    29.53,    29.99,    28.04,    27.42
       90.0,      28.55,    29.26,    29.91,    27.90,    27.14
       91.0,      28.36,    28.99,    29.83,    27.77,    26.86
       92.0,      28.18,    28.74,    29.76,    27.64,    26.59
       93.0,      28.01,    28.50,    29.69,    27.52,    26.34
       94.0,      27.84,    28.27,    29.62,    27.40,    26.09
       95.0,      27.68,    28.04,    29.55,    27.28,    25.86
       96.0,      27.52,    27.82,    29.48,    27.17,    25.62
       97.0,      27.37,    27.60,    29.42,    27.06,    25.40
       98.0,      27.22,    27.39,    29.35,    26.95,    25.17
       99.0,      27.07,    27.18,    29.29,    26.84,    24.96
      100.0,      26.92,    26.98,    29.22,    26.74,    24.75
      101.0,      26.78,    26.78,    29.16,    26.63,    24.54
      102.0,      26.64,    26.59,    29.10,    26.53,    24.33
      103.0,      26.50,    26.39,    29.03,    26.43,    24.14
      104.0,      26.36,    26.21,    28.97,    26.33,    23.94
      105.0,      26.23,    26.02,    28.91,    26.23,    23.75
      106.0,      26.10,    25.84,    28.85,    26.14,    23.57
      107.0,      25.97,    25.67,    28.79,    26.05,    23.38
      108.0,      25.85,    25.50,    28.73,    25.95,    23.21
      109.0,      25.72,    25.33,    28.67,    25.86,    23.03
      110.0,      25.60,    25.16,    28.61,    25.77,    22.86
      111.0,      25.48,    25.00,    28.55,    25.69,    22.69
      112.0,      25.36,    24.84,    28.49,    25.60,    22.53
      113.0,      25.25,    24.69,    28.43,    25.52,    22.37
      114.0,      25.14,    24.53,    28.37,    25.43,    22.21
      115.0,      25.03,    24.38,    28.31,    25.35,    22.06
      116.0,      24.92,    24.24,    28.26,    25.27,    21.91
      117.0,      24.81,    24.09,    28.20,    25.19,    21.76
      118.0,      24.71,    23.95,    28.14,    25.11,    21.62
      119.0,      24.61,    23.82,    28.09,    25.04,    21.48
      120.0,      24.50,    23.68,    28.03,    24.96,    21.34
      121.0,      24.41,    23.55,    27.98,    24.89,    21.21
      122.0,      24.31,    23.42,    27.92,    24.81,    21.08
      123.0,      24.21,    23.29,    27.87,    24.74,    20.95
      124.0,      24.12,    23.17,    27.81,    24.67,    20.82
      125.0,      24.03,    23.05,    27.76,    24.60,    20.70
      126.0,      23.93,    22.93,    27.71,    24.53,    20.57
      127.0,      23.85,    22.81,    27.65,    24.46,    20.46
      128.0,      23.76,    22.69,    27.60,    24.40,    20.34
      129.0,      23.67,    22.58,    27.55,    24.33,    20.23
      130.0,      23.59,    22.47,    27.49,    24.27,    20.11
      131.0,      23.50,    22.36,    27.44,    24.20,    20.00
      132.0,      23.42,    22.25,    27.39,    24.14,    19.90
      133.0,      23.34,    22.15,    27.34,    24.08,    19.79
      134.0,      23.26,    22.05,    27.29,    24.02,    19.69
      135.0,      23.18,    21.95,    27.24,    23.96,    19.59
      136.0,      23.11,    21.85,    27.19,    23.90,    19.49
      137.0,      23.03,    21.75,    27.14,    23.84,    19.39
      138.0,      22.96,    21.66,    27.09,    23.78,    19.30
      139.0,      22.88,    21.56,    27.04,    23.73,    19.20
      140.0,      22.81,    21.47,    26.99,    23.67,    19.11
      141.0,      22.74,    21.38,    26.94,    23.62,    19.02
      142.0,      22.67,    21.29,    26.89,    23.56,    18.94
      143.0,      22.60,    21.21,    26.84,    23.51,    18.85
      144.0,      22.53,    21.12,    26.80,    23.45,    18.77
      145.0,      22.47,    21.04,    26.75,    23.40,    18.68
      146.0,      22.40,    20.95,    26.70,    23.35,    18.60
      147.0,      22.34,    20.87,    26.65,    23.30,    18.52
      148.0,      22.27,    20.79,    26.60,    23.25,    18.44
      149.0,      22.21,    20.72,    26.56,    23.20,    18.37
      150.0,      22.15,    20.64,    26.51,    23.15,    18.29
      151.0,      22.09,    20.57,    26.46,    23.10,    18.22
      152.0,      22.03,    20.49,    26.42,    23.06,    18.15
      153.0,      21.97,    20.42,    26.37,    23.01,    18.08
      154.0,      21.91,    20.35,    26.33,    22.96,    18.01
      155.0,      21.85,    20.28,    26.28,    22.92,    17.94
      156.0,      21.80,    20.21,    26.24,    22.87,    17.87
      157.0,      21.74,    20.14,    26.19,    22.83,    17.80
      158.0,      21.69,    20.08,    26.15,    22.78,    17.74
      159.0,      21.63,    20.01,    26.10,    22.74,    17.68
      160.0,      21.58,    19.95,    26.06,    22.69,    17.61
      161.0,      21.52,    19.88,    26.01,    22.65,    17.55
      162.0,      21.47,    19.82,    25.97,    22.61,    17.49
      163.0,      21.42,    19.76,    25.92,    22.57,    17.43
      164.0,      21.37,    19.70,    25.88,    22.53,    17.38
      165.0,      21.32,    19.64,    25.84,    22.48,    17.32
      166.0,      21.27,    19.58,    25.79,    22.44,    17.26
      167.0,      21.22,    19.53,    25.75,    22.40,    17.21
      168.0,      21.17,    19.47,    25.71,    22.36,    17.15
      169.0,      21.13,    19.41,    25.67,    22.33,    17.10
      170.0,      21.08,    19.36,    25.62,    22.29,    17.05
      171.0,      21.03,    19.31,    25.58,    22.25,    17.00
      172.0,      20.99,    19.25,    25.54,    22.21,    16.95
      173.0,      20.94,    19.20,    25.50,    22.17,    16.90
      174.0,      20.90,    19.15,    25.45,    22.14,    16.85
      175.0,      20.85,    19.10,    25.41,    22.10,    16.80
      176.0,      20.81,    19.05,    25.37,    22.06,    16.75
      177.0,      20.77,    19.00,    25.33,    22.03,    16.71
      178.0,      20.72,    18.95,    25.29,    21.99,    16.66
      179.0,      20.68,    18.91,    25.25,    21.95,    16.62
      180.0,      20.64,    18.86,    25.21,    21.92,    16.57
      181.0,      20.60,    18.81,    25.17,    21.88,    16.53
      182.0,      20.56,    18.77,    25.13,    21.85,    16.48
      183.0,      20.52,    18.72,    25.09,    21.82,    16.44
      184.0,      20.48,    18.68,    25.05,    21.78,    16.40
      185.0,      20.44,    18.63,    25.01,    21.75,    16.36
      186.0,      20.40,    18.59,    24.97,    21.72,    16.32
      187.0,      20.36,    18.55,    24.93,    21.68,    16.28
      188.0,      20.32,    18.51,    24.89,    21.65,    16.24
      189.0,      20.28,    18.47,    24.85,    21.62,    16.20
      190.0,      20.25,    18.43,    24.81,    21.59,    16.16
      191.0,      20.21,    18.39,    24.77,    21.55,    16.13
      192.0,      20.17,    18.35,    24.73,    21.52,    16.09
      193.0,      20.14,    18.31,    24.69,    21.49,    16.05
      194.0,      20.10,    18.27,    24.65,    21.46,    16.02
      195.0,      20.06,    18.23,    24.61,    21.43,    15.98
      196.0,      20.03,    18.19,    24.57,    21.40,    15.95
      197.0,      19.99,    18.16,    24.54,    21.37,    15.91
      198.0,      19.96,    18.12,    24.50,    21.34,    15.88
      199.0,      19.92,    18.08,    24.46,    21.31,    15.84
      200.0,      19.89,    18.05,    24.42,    21.28,    15.81
      201.0,      19.86,    18.01,    24.38,    21.25,    15.78
      202.0,      19.82,    17.98,    24.35,    21.22,    15.75
      203.0,      19.79,    17.94,    24.31,    21.19,    15.72
      204.0,      19.76,    17.91,    24.27,    21.16,    15.68
      205.0,      19.72,    17.88,    24.23,    21.13,    15.65
      206.0,      19.69,    17.84,    24.20,    21.10,    15.62
      207.0,      19.66,    17.81,    24.16,    21.08,    15.59
      208.0,      19.63,    17.78,    24.12,    21.05,    15.56
      209.0,      19.60,    17.75,    24.08,    21.02,    15.53
      210.0,      19.56,    17.71,    24.05,    20.99,    15.50
      211.0,      19.53,    17.68,    24.01,    20.96,    15.48
      212.0,      19.50,    17.65,    23.97,    20.94,    15.45
      213.0,      19.47,    17.62,    23.94,    20.91,    15.42
      214.0,      19.44,    17.59,    23.90,    20.88,    15.39
      215.0,      19.41,    17.56,    23.87,    20.86,    15.36
      216.0,      19.38,    17.53,    23.83,    20.83,    15.34
      217.0,      19.35,    17.50,    23.79,    20.80,    15.31
      218.0,      19.32,    17.47,    23.76,    20.78,    15.28
      219.0,      19.29,    17.44,    23.72,    20.75,    15.26
      220.0,      19.26,    17.42,    23.69,    20.72,    15.23
      221.0,      19.24,    17.39,    23.65,    20.70,    15.21
      222.0,      19.21,    17.36,    23.61,    20.67,    15.18
      223.0,      19.18,    17.33,    23.58,    20.65,    15.16
      224.0,      19.15,    17.30,    23.54,    20.62,    15.13
      225.0,      19.12,    17.28,    23.51,    20.60,    15.11
      226.0,      19.09,    17.25,    23.47,    20.57,    15.08
      227.0,      19.07,    17.22,    23.44,    20.55,    15.06
      228.0,      19.04,    17.20,    23.40,    20.52,    15.03
      229.0,      19.01,    17.17,    23.37,    20.50,    15.01
      230.0,      18.98,    17.14,    23.33,    20.47,    14.99
      231.0,      18.96,    17.12,    23.30,    20.45,    14.96
      232.0,      18.93,    17.09,    23.26,    20.42,    14.94
      233.0,      18.90,    17.07,    23.23,    20.40,    14.92
      234.0,      18.88,    17.04,    23.19,    20.37,    14.90
      235.0,      18.85,    17.02,    23.16,    20.35,    14.87
      236.0,      18.82,    16.99,    23.13,    20.32,    14.85
      237.0,      18.80,    16.97,    23.09,    20.30,    14.83
      238.0,      18.77,    16.95,    23.06,    20.28,    14.81
      239.0,      18.75,    16.92,    23.02,    20.25,    14.79
      240.0,      18.72,    16.90,    22.99,    20.23,    14.76
      241.0,      18.69,    16.87,    22.96,    20.21,    14.74
      242.0,      18.67,    16.85,    22.92,    20.18,    14.72
      243.0,      18.64,    16.83,    22.89,    20.16,    14.70
      244.0,      18.62,    16.80,    22.85,    20.14,    14.68
      245.0,      18.59,    16.78,    22.82,    20.11,    14.66
      246.0,      18.57,    16.76,    22.79,    20.09,    14.64
      247.0,      18.54,    16.73,    22.75,    20.07,    14.62
      248.0,      18.52,    16.71,    22.72,    20.04,    14.60
      249.0,      18.49,    16.69,    22.69,    20.02,    14.58
      250.0,      18.47,    16.67,    22.65,    20.00,    14.56
      251.0,      18.45,    16.65,    22.62,    19.97,    14.54
      252.0,      18.42,    16.62,    22.59,    19.95,    14.52
      253.0,      18.40,    16.60,    22.55,    19.93,    14.50
      254.0,      18.37,    16.58,    22.52,    19.91,    14.48
      255.0,      18.35,    16.56,    22.49,    19.88,    14.46
      256.0,      18.32,    16.54,    22.46,    19.86,    14.44
      257.0,      18.30,    16.52,    22.42,    19.84,    14.42
      258.0,      18.28,    16.49,    22.39,    19.82,    14.41
      259.0,      18.25,    16.47,    22.36,    19.80,    14.39
      260.0,      18.23,    16.45,    22.33,    19.77,    14.37
      261.0,      18.21,    16.43,    22.29,    19.75,    14.35
      262.0,      18.18,    16.41,    22.26,    19.73,    14.33
      263.0,      18.16,    16.39,    22.23,    19.71,    14.31
      264.0,      18.14,    16.37,    22.20,    19.69,    14.30
      265.0,      18.11,    16.35,    22.16,    19.67,    14.28
      266.0,      18.09,    16.33,    22.13,    19.64,    14.26
      267.0,      18.07,    16.31,    22.10,    19.62,    14.24
      268.0,      18.05,    16.29,    22.07,    19.60,    14.23
      269.0,      18.02,    16.27,    22.04,    19.58,    14.21
      270.0,      18.00,    16.25,    22.00,    19.56,    14.19
      271.0,      17.98,    16.23,    21.97,    19.54,    14.17
      272.0,      17.96,    16.21,    21.94,    19.52,    14.16
      273.0,      17.93,    16.19,    21.91,    19.49,    14.14
      274.0,      17.91,    16.17,    21.88,    19.47,    14.12
      275.0,      17.89,    16.15,    21.85,    19.45,    14.10
      276.0,      17.87,    16.13,    21.82,    19.43,    14.09
      277.0,      17.84,    16.11,    21.78,    19.41,    14.07
      278.0,      17.82,    16.10,    21.75,    19.39,    14.05
      279.0,      17.80,    16.08,    21.72,    19.37,    14.04
      280.0,      17.78,    16.06,    21.69,    19.35,    14.02
      281.0,      17.76,    16.04,    21.66,    19.33,    14.00
      282.0,      17.74,    16.02,    21.63,    19.31,    13.99
      283.0,      17.71,    16.00,    21.60,    19.29,    13.97
      284.0,      17.69,    15.98,    21.57,    19.27,    13.96
      285.0,      17.67,    15.97,    21.54,    19.24,    13.94
      286.0,      17.65,    15.95,    21.50,    19.22,    13.92
      287.0,      17.63,    15.93,    21.47,    19.20,    13.91
      288.0,      17.61,    15.91,    21.44,    19.18,    13.89
      289.0,      17.59,    15.89,    21.41,    19.16,    13.87
      290.0,      17.56,    15.87,    21.38,    19.14,    13.86
      291.0,      17.54,    15.86,    21.35,    19.12,    13.84
      292.0,      17.52,    15.84,    21.32,    19.10,    13.83
      293.0,      17.50,    15.82,    21.29,    19.08,    13.81
      294.0,      17.48,    15.80,    21.26,    19.06,    13.80
      295.0,      17.46,    15.78,    21.23,    19.04,    13.78
      296.0,      17.44,    15.77,    21.20,    19.02,    13.77
      297.0,      17.42,    15.75,    21.17,    19.00,    13.75
      298.0,      17.40,    15.73,    21.14,    18.98,    13.73
      299.0,      17.38,    15.71,    21.11,    18.96,    13.72
      300.0,      17.36,    15.70,    21.08,    18.94,    13.70
      301.0,      17.33,    15.68,    21.05,    18.92,    13.69
      302.0,      17.31,    15.66,    21.02,    18.90,    13.67
      303.0,      17.29,    15.64,    20.99,    18.88,    13.66
      304.0,      17.27,    15.63,    20.96,    18.86,    13.64
      305.0,      17.25,    15.61,    20.93,    18.84,    13.63
      306.0,      17.23,    15.59,    20.90,    18.82,    13.61
      307.0,      17.21,    15.58,    20.87,    18.80,    13.60
      308.0,      17.19,    15.56,    20.84,    18.79,    13.58
      309.0,      17.17,    15.54,    20.81,    18.77,    13.57
      310.0,      17.15,    15.53,    20.78,    18.75,    13.55
