Radius (km), Mean (m/s), NE (m/s), SE (m/s), SW (m/s), NW (m/s)
        0.0,       0.00,     0.00,     0.00,     0.00,     0.00
        1.0,       3.64,     3.60,     3.61,     3.78,     3.60
        2.0,       6.12,     6.12,     6.16,     6.10,     6.11
        3.0,       8.35,     8.41,     8.51,     8.10,     8.38
        4.0,      10.51,    10.64,    10.85,     9.99,    10.58
        5.0,      12.72,    12.90,    13.28,    11.87,    12.82
        6.0,      15.01,    15.25,    15.84,    13.79,    15.15
        7.0,      17.40,    17.69,    18.51,    15.78,    17.60
        8.0,      19.84,    20.19,    21.23,    17.82,    20.13
        9.0,      22.27,    22.67,    23.90,    19.85,    22.67
       10.0,      24.59,    25.05,    26.40,    21.80,    25.12
       11.0,      26.71,    27.23,    28.63,    23.59,    27.38
       12.0,      28.53,    29.13,    30.49,    25.14,    29.36
       13.0,      30.00,    30.68,    31.93,    26.41,    30.97
       14.0,      31.08,    31.86,    32.92,    27.35,    32.19
       15.0,      31.79,    32.68,    33.50,    27.98,    32.99
       16.0,      32.15,    33.16,    33.71,    28.31,    33.43
       17.0,      32.24,    33.37,    33.65,    28.40,    33.56
       18.0,      32.13,    33.39,    33.39,    28.31,    33.46
       19.0,      31.90,    33.27,    33.01,    28.11,    33.21
       20.0,      31.60,    33.10,    32.60,    27.84,    32.88
       21.0,      31.29,    32.90,    32.18,    27.56,    32.53
       22.0,      30.99,    32.71,    31.78,    27.29,    32.19
       23.0,      30.71,    32.53,    31.40,    27.04,    31.88
       24.0,      30.44,    32.35,    31.04,    26.79,    31.57
       25.0,      30.18,    32.18,    30.69,    26.56,    31.29
       26.0,      29.93,    32.01,    30.36,    26.34,    31.00
       27.0,      29.68,    31.84,    30.03,    26.12,    30.73
       28.0,      29.45,    31.68,    29.72,    25.91,    30.47
       29.0,      29.22,    31.52,    29.42,    25.71,    30.21
       30.0,      28.99,    31.36,    29.13,    25.51,    29.97
       31.0,      28.78,    31.20,    28.85,    25.32,    29.73
       32.0,      28.57,    31.04,    28.59,    25.14,    29.50
       33.0,      28.36,    30.89,    28.33,    24.96,    29.27
       34.0,      28.16,    30.74,    28.08,    24.79,    29.05
       35.0,      27.97,    30.59,    27.84,    24.62,    28.84
       36.0,      27.78,    30.44,    27.60,    24.46,    28.63
       37.0,      27.60,    30.29,    27.38,    24.30,    28.43
       38.0,      27.43,    30.15,    27.16,    24.15,    28.24
       39.0,      27.25,    30.01,    26.96,    24.00,    28.05
       40.0,      27.09,    29.87,    26.75,    23.85,    27.87
       41.0,      26.92,    29.73,    26.56,    23.72,    27.69
       42.0,      26.77,    29.60,    26.37,    23.58,    27.52
       43.0,      26.61,    29.46,    26.19,    23.45,    27.35
       44.0,      26.46,    29.33,    26.02,    23.32,    27.19
       45.0,      26.32,    29.20,    25.85,    23.20,    27.03
       46.0,      26.18,    29.07,    25.69,    23.08,    26.87
       47.0,      26.04,    28.94,    25.53,    22.96,    26.72
       48.0,      25.90,    28.82,    25.38,    22.84,    26.58
       49.0,      25.77,    28.69,    25.23,    22.73,    26.43
       50.0,      25.65,    28.57,    25.09,    22.62,    26.30
       51.0,      25.52,    28.45,    24.95,    22.52,    26.16
       52.0,      25.40,    28.33,    24.82,    22.42,    26.03
       53.0,      25.28,    28.21,    24.69,    22.32,    25.90
       54.0,      25.16,    28.10,    24.57,    22.22,    25.78
       55.0,      25.05,    27.98,    24.45,    22.12,    25.65
       56.0,      24.94,    27.87,    24.33,    22.03,    25.53
       57.0,      24.83,    27.76,    24.22,    21.94,    25.42
       58.0,      24.73,    27.65,    24.11,    21.85,    25.30
       59.0,      24.63,    27.54,    24.00,    21.77,    25.19
       60.0,      24.52,    27.43,    23.90,    21.68,    25.08
       61.0,      24.43,    27.32,    23.80,    21.60,    24.98
       62.0,      24.33,    27.22,    23.71,    21.52,    24.88
       63.0,      24.24,    27.12,    23.61,    21.44,    24.77
       64.0,      24.14,    27.01,    23.52,    21.37,    24.68
       65.0,      24.05,    26.91,    23.43,    21.29,    24.58
       66.0,      23.97,    26.81,    23.35,    21.22,    24.48
       67.0,      23.88,    26.71,    23.27,    21.15,    24.39
       68.0,      23.79,    26.62,    23.19,    21.07,    24.30
       69.0,      23.71,    26.52,    23.11,    21.01,    24.21
       70.0,      23.63,    26.42,    23.03,    20.94,    24.12
       71.0,      23.55,    26.33,    22.96,    20.87,    24.04
       72.0,      23.47,    26.24,    22.89,    20.81,    23.96
       73.0,      23.39,    26.14,    22.82,    20.74,    23.87
       74.0,      23.32,    26.05,    22.75,    20.68,    23.79
       75.0,      23.25,    25.96,    22.69,    20.62,    23.71
       76.0,      23.17,    25.87,    22.62,    20.56,    23.64
       77.0,      23.10,    25.79,    22.56,    20.50,    23.56
       78.0,      23.03,    25.70,    22.50,    20.44,    23.48
       79.0,      22.96,    25.61,    22.44,    20.38,    23.41
       80.0,      22.89,    25.53,    22.38,    20.33,    23.34
       81.0,      22.83,    25.44,    22.33,    20.27,    23.27
       82.0,      22.76,    25.36,    22.27,    20.21,    23.20
       83.0,      22.70,    25.28,    22.22,    20.16,    23.13
       84.0,      22.63,    25.20,    22.17,    20.11,    23.06
       85.0,      22.57,    25.12,    22.12,    20.06,    22.99
       86.0,      22.51,    25.04,    22.07,    20.00,    22.93
       87.0,      22.45,    24.96,    22.02,    19.95,    22.86
       88.0,      22.39,    24.88,    21.97,    19.90,    22.80
       89.0,      22.33,    24.80,    21.92,    19.85,    22.74
       90.0,      22.27,    24.73,    21.88,    19.80,    22.67
       91.0,      22.21,    24.65,    21.83,    19.76,    22.61
       92.0,      22.16,    24.58,    21.79,    19.71,    22.55
       93.0,      22.10,    24.50,    21.75,    19.66,    22.49
       94.0,      22.05,    24.43,    21.71,    19.61,    22.43
       95.0,      21.99,    24.36,    21.66,    19.57,    22.37
       96.0,      21.94,    24.29,    21.62,    19.52,    22.32
       97.0,      21.88,    24.22,    21.58,    19.48,    22.26
       98.0,      21.83,    24.15,    21.55,    19.43,    22.20
       99.0,      21.78,    24.08,    21.51,    19.39,    22.15
      100.0,      21.73,    24.01,    21.47,    19.35,    22.09
      101.0,      21.68,    23.94,    21.43,    19.30,    22.04
      102.0,      21.63,    23.87,    21.40,    19.26,    21.99
      103.0,      21.58,    23.81,    21.36,    19.22,    21.93
      104.0,      21.53,    23.74,    21.33,    19.18,    21.88
      105.0,      21.48,    23.67,    21.29,    19.13,    21.83
      106.0,      21.43,    23.61,    21.26,    19.09,    21.78
      107.0,      21.39,    23.55,    21.23,    19.05,    21.72
      108.0,      21.34,    23.48,    21.19,    19.01,    21.67
      109.0,      21.29,    23.42,    21.16,    18.97,    21.62
      110.0,      21.25,    23.36,    21.13,    18.93,    21.57
      111.0,      21.20,    23.29,    21.10,    18.89,    21.52
      112.0,      21.16,    23.23,    21.07,    18.85,    21.48
      113.0,      21.11,    23.17,    21.04,    18.81,    21.43
      114.0,      21.07,    23.11,    21.01,    18.78,    21.38
      115.0,      21.03,    23.05,    20.98,    18.74,    21.33
      116.0,      20.98,    22.99,    20.95,    18.70,    21.28
      117.0,      20.94,    22.94,    20.92,    18.66,    21.24
      118.0,      20.90,    22.88,    20.89,    18.62,    21.19
      119.0,      20.85,    22.82,    20.86,    18.59,    21.14
      120.0,      20.81,    22.76,    20.83,    18.55,    21.10
      121.0,      20.77,    22.71,    20.81,    18.51,    21.05
      122.0,      20.73,    22.65,    20.78,    18.48,    21.01
      123.0,      20.69,    22.59,    20.75,    18.44,    20.96
      124.0,      20.65,    22.54,    20.73,    18.40,    20.92
      125.0,      20.61,    22.48,    20.70,    18.37,    20.87
      126.0,      20.57,    22.43,    20.67,    18.33,    20.83
      127.0,      20.53,    22.38,    20.65,    18.30,    20.79
      128.0,      20.49,    22.32,    20.62,    18.26,    20.74
      129.0,      20.45,    22.27,    20.60,    18.23,    20.70
      130.0,      20.41,    22.22,    20.57,    18.19,    20.66
      131.0,      20.37,    22.17,    20.54,    18.16,    20.61
      132.0,      20.33,    22.11,    20.52,    18.12,    20.57
      133.0,      20.29,    22.06,    20.50,    18.09,    20.53
      134.0,      20.25,    22.01,    20.47,    18.05,    20.49
      135.0,      20.22,    21.96,    20.45,    18.02,    20.44
      136.0,      20.18,    21.91,    20.42,    17.98,    20.40
      137.0,      20.14,    21.86,    20.40,    17.95,    20.36
      138.0,      20.11,    21.81,    20.37,    17.92,    20.32
      139.0,      20.07,    21.76,    20.35,    17.88,    20.28
      140.0,      20.03,    21.71,    20.33,    17.85,    20.24
      141.0,      20.00,    21.67,    20.30,    17.81,    20.20
      142.0,      19.96,    21.62,    20.28,    17.78,    20.16
      143.0,      19.92,    21.57,    20.26,    17.75,    20.12
      144.0,      19.89,    21.52,    20.23,    17.72,    20.08
      145.0,      19.85,    21.48,    20.21,    17.68,    20.04
      146.0,      19.82,    21.43,    20.19,    17.65,    20.00
      147.0,      19.78,    21.38,    20.17,    17.62,    19.96
      148.0,      19.75,    21.34,    20.14,    17.58,    19.92
      149.0,      19.71,    21.29,    20.12,    17.55,    19.88
      150.0,      19.68,    21.25,    20.10,    17.52,    19.84
      151.0,      19.64,    21.20,    20.08,    17.49,    19.80
      152.0,      19.61,    21.16,    20.06,    17.45,    19.76
      153.0,      19.57,    21.11,    20.03,    17.42,    19.72
      154.0,      19.54,    21.07,    20.01,    17.39,    19.68
      155.0,      19.50,    21.02,    19.99,    17.36,    19.64
      156.0,      19.47,    20.98,    19.97,    17.33,    19.60
      157.0,      19.44,    20.94,    19.95,    17.30,    19.57
      158.0,      19.40,    20.89,    19.92,    17.26,    19.53
      159.0,      19.37,    20.85,    19.90,    17.23,    19.49
      160.0,      19.34,    20.81,    19.88,    17.20,    19.45
      161.0,      19.30,    20.77,    19.86,    17.17,    19.41
      162.0,      19.27,    20.72,    19.84,    17.14,    19.38
      163.0,      19.24,    20.68,    19.82,    17.11,    19.34
      164.0,      19.20,    20.64,    19.80,    17.08,    19.30
      165.0,      19.17,    20.60,    19.78,    17.05,    19.26
      166.0,      19.14,    20.56,    19.76,    17.01,    19.23
      167.0,      19.11,    20.52,    19.73,    16.98,    19.19
      168.0,      19.07,    20.48,    19.71,    16.95,    19.15
      169.0,      19.04,    20.44,    19.69,    16.92,    19.12
      170.0,      19.01,    20.40,    19.67,    16.89,    19.08
      171.0,      18.98,    20.36,    19.65,    16.86,    19.04
      172.0,      18.95,    20.32,    19.63,    16.83,    19.01
      173.0,      18.92,    20.28,    19.61,    16.80,    18.97
      174.0,      18.88,    20.24,    19.59,    16.77,    18.93
      175.0,      18.85,    20.20,    19.57,    16.74,    18.90
      176.0,      18.82,    20.16,    19.55,    16.71,    18.86
      177.0,      18.79,    20.12,    19.53,    16.68,    18.83
      178.0,      18.76,    20.09,    19.51,    16.65,    18.79
      179.0,      18.73,    20.05,    19.49,    16.62,    18.75
      180.0,      18.70,    20.01,    19.47,    16.59,    18.72
      181.0,      18.67,    19.97,    19.45,    16.56,    18.68
      182.0,      18.63,    19.93,    19.43,    16.53,    18.65
      183.0,      18.60,    19.90,    19.41,    16.50,    18.61
      184.0,      18.57,    19.86,    19.39,    16.47,    18.58
      185.0,      18.54,    19.82,    19.37,    16.44,    18.54
      186.0,      18.51,    19.79,    19.35,    16.41,    18.50
      187.0,      18.48,    19.75,    19.33,    16.38,    18.47
      188.0,      18.45,    19.71,    19.31,    16.35,    18.43
      189.0,      18.42,    19.68,    19.29,    16.32,    18.40
      190.0,      18.39,    19.64,    19.27,    16.30,    18.36
      191.0,      18.36,    19.60,    19.25,    16.27,    18.33
      192.0,      18.33,    19.57,    19.23,    16.24,    18.29
      193.0,      18.30,    19.53,    19.21,    16.21,    18.26
      194.0,      18.27,    19.50,    19.19,    16.18,    18.23
      195.0,      18.24,    19.46,    19.17,    16.15,    18.19
      196.0,      18.21,    19.43,    19.15,    16.12,    18.16
      197.0,      18.19,    19.39,    19.13,    16.09,    18.12
      198.0,      18.16,    19.36,    19.11,    16.06,    18.09
      199.0,      18.13,    19.32,    19.09,    16.04,    18.05
      200.0,      18.10,    19.29,    19.08,    16.01,    18.02
      201.0,      18.07,    19.25,    19.06,    15.98,    17.99
      202.0,      18.04,    19.22,    19.04,    15.95,    17.95
      203.0,      18.01,    19.19,    19.02,    15.92,    17.92
      204.0,      17.98,    19.15,    19.00,    15.89,    17.88
      205.0,      17.95,    19.12,    18.98,    15.86,    17.85
      206.0,      17.92,    19.09,    18.96,    15.84,    17.82
      207.0,      17.90,    19.05,    18.94,    15.81,    17.78
      208.0,      17.87,    19.02,    18.92,    15.78,    17.75
      209.0,      17.84,    18.99,    18.90,    15.75,    17.72
      210.0,      17.81,    18.95,    18.88,    15.72,    17.68
      211.0,      17.78,    18.92,    18.86,    15.70,    17.65
      212.0,      17.75,    18.89,    18.84,    15.67,    17.62
      213.0,      17.73,    18.85,    18.83,    15.64,    17.58
      214.0,      17.70,    18.82,    18.81,    15.61,    17.55
      215.0,      17.67,    18.79,    18.79,    15.58,    17.52
      216.0,      17.64,    18.76,    18.77,    15.56,    17.48
      217.0,      17.61,    18.72,    18.75,    15.53,    17.45
      218.0,      17.59,    18.69,    18.73,    15.50,    17.42
      219.0,      17.56,    18.66,    18.71,    15.47,    17.38
      220.0,      17.53,    18.63,    18.69,    15.45,    17.35
      221.0,      17.50,    18.60,    18.67,    15.42,    17.32
      222.0,      17.47,    18.57,    18.66,    15.39,    17.29
      223.0,      17.45,    18.53,    18.64,    15.36,    17.25
      224.0,      17.42,    18.50,    18.62,    15.34,    17.22
      225.0,      17.39,    18.47,    18.60,    15.31,    17.19
      226.0,      17.37,    18.44,    18.58,    15.28,    17.16
      227.0,      17.34,    18.41,    18.56,    15.25,    17.12
      228.0,      17.31,    18.38,    18.54,    15.23,    17.09
      229.0,      17.28,    18.35,    18.53,    15.20,    17.06
      230.0,      17.26,    18.32,    18.51,    15.17,    17.03
      231.0,      17.23,    18.29,    18.49,    15.15,    17.00
      232.0,      17.20,    18.26,    18.47,    15.12,    16.96
      233.0,      17.18,    18.23,    18.45,    15.09,    16.93
      234.0,      17.15,    18.20,    18.43,    15.07,    16.90
      235.0,      17.12,    18.17,    18.41,    15.04,    16.87
      236.0,      17.10,    18.14,    18.40,    15.01,    16.84
      237.0,      17.07,    18.11,    18.38,    14.99,    16.81
      238.0,      17.04,    18.08,    18.36,    14.96,    16.77
      239.0,      17.02,    18.05,    18.34,    14.93,    16.74
      240.0,      16.99,    18.02,    18.32,    14.91,    16.71
      241.0,      16.96,    17.99,    18.30,    14.88,    16.68
      242.0,      16.94,    17.96,    18.28,    14.85,    16.65
      243.0,      16.91,    17.93,    18.27,    14.83,    16.62
      244.0,      16.88,    17.90,    18.25,    14.80,    16.59
      245.0,      16.86,    17.87,    18.23,    14.77,    16.55
      246.0,      16.83,    17.84,    18.21,    14.75,    16.52
      247.0,      16.80,    17.81,    18.19,    14.72,    16.49
      248.0,      16.78,    17.78,    18.18,    14.70,    16.46
      249.0,      16.75,    17.75,    18.16,    14.67,    16.43
      250.0,      16.73,    17.72,    18.14,    14.64,    16.40
      251.0,      16.70,    17.70,    18.12,    14.62,    16.37
      252.0,      16.67,    17.67,    18.10,    14.59,    16.34
      253.0,      16.65,    17.64,    18.08,    14.57,    16.31
      254.0,      16.62,    17.61,    18.07,    14.54,    16.28
      255.0,      16.60,    17.58,    18.05,    14.51,    16.25
      256.0,      16.57,    17.55,    18.03,    14.49,    16.22
      257.0,      16.55,    17.52,    18.01,    14.46,    16.19
      258.0,      16.52,    17.50,    17.99,    14.44,    16.15
      259.0,      16.50,    17.47,    17.98,    14.41,    16.12
      260.0,      16.47,    17.44,    17.96,    14.39,    16.09
      261.0,      16.44,    17.41,    17.94,    14.36,    16.06
      262.0,      16.42,    17.38,    17.92,    14.33,    16.03
      263.0,      16.39,    17.36,    17.90,    14.31,    16.00
      264.0,      16.37,    17.33,    17.89,    14.28,    15.97
      265.0,      16.34,    17.30,    17.87,    14.26,    15.94
      266.0,      16.32,    17.27,    17.85,    14.23,    15.91
      267.0,      16.29,    17.25,    17.83,    14.21,    15.88
      268.0,      16.27,    17.22,    17.81,    14.18,    15.85
      269.0,      16.24,    17.19,    17.80,    14.16,    15.82
      270.0,      16.22,    17.16,    17.78,    14.13,    15.79
      271.0,      16.19,    17.14,    17.76,    14.11,    15.77
      272.0,      16.17,    17.11,    17.74,    14.08,    15.74
      273.0,      16.14,    17.08,    17.73,    14.06,    15.71
      274.0,      16.12,    17.06,    17.71,    14.03,    15.68
      275.0,      16.09,    17.03,    17.69,    14.01,    15.65
      276.0,      16.07,    17.00,    17.67,    13.98,    15.62
      277.0,      16.04,    16.97,    17.66,    13.96,    15.59
      278.0,      16.02,    16.95,    17.64,    13.93,    15.56
      279.0,      15.99,    16.92,    17.62,    13.91,    15.53
      280.0,      15.97,    16.89,    17.60,    13.88,    15.50
      281.0,      15.95,    16.87,    17.58,    13.86,    15.47
      282.0,      15.92,    16.84,    17.57,    13.83,    15.44
      283.0,      15.90,    16.82,    17.55,    13.81,    15.41
      284.0,      15.87,    16.79,    17.53,    13.79,    15.39
      285.0,      15.85,    16.76,    17.51,    13.76,    15.36
      286.0,      15.82,    16.74,    17.50,    13.74,    15.33
      287.0,      15.80,    16.71,    17.48,    13.71,    15.30
      288.0,      15.78,    16.68,    17.46,    13.69,    15.27
      289.0,      15.75,    16.66,    17.44,    13.66,    15.24
      290.0,      15.73,    16.63,    17.43,    13.64,    15.21
      291.0,      15.70,    16.61,    17.41,    13.62,    15.18
      292.0,      15.68,    16.58,    17.39,    13.59,    15.16
      293.0,      15.66,    16.55,    17.37,    13.57,    15.13
      294.0,      15.63,    16.53,    17.36,    13.54,    15.10
      295.0,      15.61,    16.50,    17.34,    13.52,    15.07
      296.0,      15.58,    16.48,    17.32,    13.50,    15.04
      297.0,      15.56,    16.45,    17.31,    13.47,    15.01
      298.0,      15.54,    16.43,    17.29,    13.45,    14.99
      299.0,      15.51,    16.40,    17.27,    13.42,    14.96
      300.0,      15.49,    16.37,    17.25,    13.40,    14.93
      301.0,      15.47,    16.35,    17.24,    13.38,    14.90
      302.0,      15.44,    16.32,    17.22,    13.35,    14.87
      303.0,      15.42,    16.30,    17.20,    13.33,    14.85
      304.0,      15.40,    16.27,    17.18,    13.30,    14.82
      305.0,      15.37,    16.25,    17.17,    13.28,    14.79
      306.0,      15.35,    16.22,    17.15,    13.26,    14.76
      307.0,      15.33,    16.20,    17.13,    13.23,    14.73
      308.0,      15.30,    16.17,    17.12,    13.21,    14.71
      309.0,      15.28,    16.15,    17.10,    13.19,    14.68
      310.0,      15.26,    16.12,    17.08,    13.16,    14.65
