Radius (km), Mean (m/s), NE (m/s), SE (m/s), SW (m/s), NW (m/s)
        0.0,       0.00,     0.00,     0.00,     0.00,     0.00
        1.0,       2.18,     1.98,     2.24,     2.40,     2.12
        2.0,       3.54,     3.41,     3.62,     3.58,     3.53
        3.0,       4.69,     4.69,     4.79,     4.53,     4.77
        4.0,       5.74,     5.88,     5.85,     5.35,     5.90
        5.0,       6.72,     7.01,     6.83,     6.09,     6.95
        6.0,       7.64,     8.08,     7.75,     6.76,     7.96
        7.0,       8.51,     9.12,     8.62,     7.39,     8.92
        8.0,       9.35,    10.13,     9.45,     7.99,     9.84
        9.0,      10.16,    11.12,    10.26,     8.55,    10.74
       10.0,      10.95,    12.07,    11.03,     9.09,    11.61
       11.0,      11.71,    13.01,    11.79,     9.60,    12.45
       12.0,      12.46,    13.93,    12.52,    10.10,    13.28
       13.0,      13.18,    14.84,    13.23,    10.57,    14.09
       14.0,      13.89,    15.73,    13.93,    11.04,    14.88
       15.0,      14.59,    16.60,    14.61,    11.49,    15.66
       16.0,      15.27,    17.47,    15.28,    11.92,    16.43
       17.0,      15.95,    18.32,    15.94,    12.35,    17.18
       18.0,      16.61,    19.16,    16.58,    12.76,    17.92
       19.0,      17.26,    19.99,    17.21,    13.17,    18.65
       20.0,      17.90,    20.81,    17.83,    13.56,    19.37
       21.0,      18.53,    21.63,    18.45,    13.95,    20.09
       22.0,      19.19,    22.48,    19.08,    14.34,    20.84
       23.0,      19.88,    23.40,    19.76,    14.75,    21.64
       24.0,      20.65,    24.42,    20.50,    15.18,    22.52
       25.0,      21.51,    25.57,    21.33,    15.66,    23.50
       26.0,      22.46,    26.83,    22.25,    16.18,    24.57
       27.0,      23.47,    28.19,    23.24,    16.74,    25.70
       28.0,      24.49,    29.57,    24.25,    17.31,    26.84
       29.0,      25.48,    30.90,    25.22,    17.87,    27.94
       30.0,      26.38,    32.10,    26.11,    18.39,    28.93
       31.0,      27.14,    33.10,    26.85,    18.84,    29.75
       32.0,      27.71,    33.85,    27.40,    19.19,    30.38
       33.0,      28.07,    34.32,    27.75,    19.43,    30.78
       34.0,      28.23,    34.51,    27.90,    19.56,    30.97
       35.0,      28.21,    34.45,    27.85,    19.58,    30.97
       36.0,      28.04,    34.19,    27.65,    19.51,    30.82
       37.0,      27.77,    33.79,    27.35,    19.38,    30.56
       38.0,      27.43,    33.30,    26.97,    19.20,    30.24
       39.0,      27.06,    32.77,    26.57,    19.00,    29.89
       40.0,      26.69,    32.26,    26.17,    18.79,    29.54
       41.0,      26.34,    31.76,    25.78,    18.59,    29.21
       42.0,      26.00,    31.29,    25.42,    18.40,    28.90
       43.0,      25.69,    30.84,    25.07,    18.22,    28.60
       44.0,      25.38,    30.42,    24.74,    18.05,    28.32
       45.0,      25.09,    30.00,    24.42,    17.88,    28.04
       46.0,      24.80,    29.61,    24.12,    17.71,    27.77
       47.0,      24.53,    29.22,    23.82,    17.55,    27.52
       48.0,      24.26,    28.86,    23.54,    17.39,    27.27
       49.0,      24.01,    28.50,    23.26,    17.24,    27.03
       50.0,      23.76,    28.16,    23.00,    17.09,    26.80
       51.0,      23.52,    27.83,    22.75,    16.94,    26.58
       52.0,      23.30,    27.51,    22.50,    16.80,    26.37
       53.0,      23.07,    27.21,    22.27,    16.66,    26.16
       54.0,      22.86,    26.92,    22.04,    16.53,    25.96
       55.0,      22.65,    26.63,    21.82,    16.40,    25.77
       56.0,      22.45,    26.36,    21.61,    16.27,    25.58
       57.0,      22.26,    26.10,    21.41,    16.14,    25.40
       58.0,      22.08,    25.84,    21.21,    16.02,    25.23
       59.0,      21.90,    25.60,    21.02,    15.90,    25.07
       60.0,      21.72,    25.37,    20.84,    15.79,    24.90
       61.0,      21.56,    25.14,    20.66,    15.67,    24.75
       62.0,      21.39,    24.92,    20.49,    15.56,    24.60
       63.0,      21.24,    24.71,    20.33,    15.46,    24.45
       64.0,      21.09,    24.51,    20.17,    15.35,    24.31
       65.0,      20.94,    24.31,    20.02,    15.25,    24.18
       66.0,      20.80,    24.12,    19.87,    15.15,    24.05
       67.0,      20.66,    23.94,    19.73,    15.05,    23.92
       68.0,      20.53,    23.76,    19.59,    14.96,    23.80
       69.0,      20.40,    23.59,    19.46,    14.87,    23.68
       70.0,      20.28,    23.43,    19.33,    14.78,    23.56
       71.0,      20.15,    23.27,    19.21,    14.69,    23.45
       72.0,      20.04,    23.12,    19.09,    14.60,    23.34
       73.0,      19.93,    22.97,    18.98,    14.52,    23.24
       74.0,      19.82,    22.83,    18.87,    14.44,    23.14
       75.0,      19.71,    22.69,    18.76,    14.36,    23.04
       76.0,      19.61,    22.55,    18.65,    14.28,    22.95
       77.0,      19.51,    22.43,    18.55,    14.20,    22.86
       78.0,      19.41,    22.30,    18.46,    14.13,    22.77
       79.0,      19.32,    22.18,    18.36,    14.06,    22.68
       80.0,      19.23,    22.06,    18.27,    13.99,    22.60
       81.0,      19.14,    21.95,    18.18,    13.92,    22.51
       82.0,      19.06,    21.84,    18.10,    13.85,    22.44
       83.0,      18.97,    21.74,    18.02,    13.78,    22.36
       84.0,      18.89,    21.64,    17.94,    13.72,    22.29
       85.0,      18.82,    21.54,    17.86,    13.66,    22.21
       86.0,      18.74,    21.44,    17.79,    13.59,    22.14
       87.0,      18.67,    21.35,    17.71,    13.53,    22.07
       88.0,      18.60,    21.26,    17.64,    13.48,    22.01
       89.0,      18.53,    21.17,    17.57,    13.42,    21.94
       90.0,      18.46,    21.09,    17.51,    13.36,    21.88
       91.0,      18.39,    21.01,    17.44,    13.31,    21.82
       92.0,      18.33,    20.93,    17.38,    13.25,    21.76
       93.0,      18.27,    20.85,    17.32,    13.20,    21.70
       94.0,      18.21,    20.77,    17.26,    13.15,    21.64
       95.0,      18.15,    20.70,    17.21,    13.10,    21.59
       96.0,      18.09,    20.63,    17.15,    13.05,    21.54
       97.0,      18.04,    20.56,    17.10,    13.00,    21.48
       98.0,      17.98,    20.50,    17.04,    12.96,    21.43
       99.0,      17.93,    20.43,    16.99,    12.91,    21.38
      100.0,      17.88,    20.37,    16.94,    12.86,    21.33
      101.0,      17.83,    20.31,    16.90,    12.82,    21.29
      102.0,      17.78,    20.25,    16.85,    12.78,    21.24
      103.0,      17.73,    20.19,    16.80,    12.73,    21.19
      104.0,      17.68,    20.14,    16.76,    12.69,    21.15
      105.0,      17.64,    20.08,    16.71,    12.65,    21.11
      106.0,      17.59,    20.03,    16.67,    12.61,    21.06
      107.0,      17.55,    19.98,    16.63,    12.57,    21.02
      108.0,      17.51,    19.92,    16.59,    12.54,    20.98
      109.0,      17.47,    19.88,    16.55,    12.50,    20.94
      110.0,      17.43,    19.83,    16.51,    12.46,    20.90
      111.0,      17.39,    19.78,    16.48,    12.42,    20.86
      112.0,      17.35,    19.73,    16.44,    12.39,    20.82
      113.0,      17.31,    19.69,    16.40,    12.35,    20.79
      114.0,      17.27,    19.65,    16.37,    12.32,    20.75
      115.0,      17.23,    19.60,    16.33,    12.29,    20.71
      116.0,      17.20,    19.56,    16.30,    12.25,    20.68
      117.0,      17.16,    19.52,    16.27,    12.22,    20.64
      118.0,      17.13,    19.48,    16.24,    12.19,    20.61
      119.0,      17.10,    19.44,    16.20,    12.16,    20.58
      120.0,      17.06,    19.40,    16.17,    12.13,    20.54
      121.0,      17.03,    19.36,    16.14,    12.10,    20.51
      122.0,      17.00,    19.33,    16.11,    12.07,    20.48
      123.0,      16.97,    19.29,    16.08,    12.04,    20.45
      124.0,      16.94,    19.26,    16.06,    12.01,    20.42
      125.0,      16.91,    19.22,    16.03,    11.99,    20.39
      126.0,      16.88,    19.19,    16.00,    11.96,    20.36
      127.0,      16.85,    19.15,    15.97,    11.93,    20.33
      128.0,      16.82,    19.12,    15.95,    11.90,    20.30
      129.0,      16.79,    19.09,    15.92,    11.88,    20.27
      130.0,      16.76,    19.06,    15.90,    11.85,    20.24
      131.0,      16.73,    19.02,    15.87,    11.83,    20.21
      132.0,      16.71,    18.99,    15.84,    11.80,    20.18
      133.0,      16.68,    18.96,    15.82,    11.78,    20.16
      134.0,      16.65,    18.93,    15.80,    11.75,    20.13
      135.0,      16.63,    18.90,    15.77,    11.73,    20.10
      136.0,      16.60,    18.88,    15.75,    11.71,    20.08
      137.0,      16.58,    18.85,    15.73,    11.68,    20.05
      138.0,      16.55,    18.82,    15.70,    11.66,    20.02
      139.0,      16.53,    18.79,    15.68,    11.64,    20.00
      140.0,      16.50,    18.76,    15.66,    11.62,    19.97
      141.0,      16.48,    18.74,    15.64,    11.60,    19.95
      142.0,      16.46,    18.71,    15.61,    11.57,    19.92
      143.0,      16.43,    18.68,    15.59,    11.55,    19.90
      144.0,      16.41,    18.66,    15.57,    11.53,    19.87
      145.0,      16.39,    18.63,    15.55,    11.51,    19.85
      146.0,      16.36,    18.61,    15.53,    11.49,    19.82
      147.0,      16.34,    18.58,    15.51,    11.47,    19.80
      148.0,      16.32,    18.56,    15.49,    11.45,    19.78
      149.0,      16.30,    18.53,    15.47,    11.43,    19.75
      150.0,      16.27,    18.51,    15.45,    11.41,    19.73
      151.0,      16.25,    18.48,    15.43,    11.39,    19.71
      152.0,      16.23,    18.46,    15.41,    11.37,    19.68
      153.0,      16.21,    18.44,    15.39,    11.36,    19.66
      154.0,      16.19,    18.41,    15.37,    11.34,    19.64
      155.0,      16.17,    18.39,    15.35,    11.32,    19.61
      156.0,      16.15,    18.37,    15.33,    11.30,    19.59
      157.0,      16.13,    18.34,    15.32,    11.28,    19.57
      158.0,      16.11,    18.32,    15.30,    11.27,    19.55
      159.0,      16.09,    18.30,    15.28,    11.25,    19.53
      160.0,      16.07,    18.28,    15.26,    11.23,    19.50
      161.0,      16.05,    18.26,    15.24,    11.22,    19.48
      162.0,      16.03,    18.23,    15.22,    11.20,    19.46
      163.0,      16.01,    18.21,    15.21,    11.18,    19.44
      164.0,      15.99,    18.19,    15.19,    11.17,    19.42
      165.0,      15.97,    18.17,    15.17,    11.15,    19.40
      166.0,      15.95,    18.15,    15.15,    11.13,    19.37
      167.0,      15.93,    18.13,    15.14,    11.12,    19.35
      168.0,      15.91,    18.11,    15.12,    11.10,    19.33
      169.0,      15.90,    18.09,    15.10,    11.09,    19.31
      170.0,      15.88,    18.07,    15.08,    11.07,    19.29
      171.0,      15.86,    18.04,    15.07,    11.05,    19.27
      172.0,      15.84,    18.02,    15.05,    11.04,    19.25
      173.0,      15.82,    18.00,    15.03,    11.02,    19.23
      174.0,      15.80,    17.98,    15.02,    11.01,    19.21
      175.0,      15.79,    17.96,    15.00,    10.99,    19.19
      176.0,      15.77,    17.94,    14.98,    10.98,    19.17
      177.0,      15.75,    17.92,    14.97,    10.97,    19.15
      178.0,      15.73,    17.90,    14.95,    10.95,    19.12
      179.0,      15.71,    17.88,    14.93,    10.94,    19.10
      180.0,      15.70,    17.86,    14.92,    10.92,    19.08
      181.0,      15.68,    17.85,    14.90,    10.91,    19.06
      182.0,      15.66,    17.83,    14.89,    10.89,    19.04
      183.0,      15.65,    17.81,    14.87,    10.88,    19.02
      184.0,      15.63,    17.79,    14.85,    10.87,    19.00
      185.0,      15.61,    17.77,    14.84,    10.85,    18.98
      186.0,      15.59,    17.75,    14.82,    10.84,    18.96
      187.0,      15.58,    17.73,    14.81,    10.82,    18.94
      188.0,      15.56,    17.71,    14.79,    10.81,    18.92
      189.0,      15.54,    17.69,    14.78,    10.80,    18.90
      190.0,      15.53,    17.67,    14.76,    10.78,    18.89
      191.0,      15.51,    17.65,    14.74,    10.77,    18.87
      192.0,      15.49,    17.64,    14.73,    10.76,    18.85
      193.0,      15.48,    17.62,    14.71,    10.75,    18.83
      194.0,      15.46,    17.60,    14.70,    10.73,    18.81
      195.0,      15.44,    17.58,    14.68,    10.72,    18.79
      196.0,      15.43,    17.56,    14.67,    10.71,    18.77
      197.0,      15.41,    17.54,    14.65,    10.69,    18.75
      198.0,      15.39,    17.52,    14.64,    10.68,    18.73
      199.0,      15.38,    17.51,    14.62,    10.67,    18.71
      200.0,      15.36,    17.49,    14.61,    10.66,    18.69
      201.0,      15.34,    17.47,    14.59,    10.64,    18.67
      202.0,      15.33,    17.45,    14.58,    10.63,    18.65
      203.0,      15.31,    17.43,    14.56,    10.62,    18.63
      204.0,      15.30,    17.42,    14.55,    10.61,    18.61
      205.0,      15.28,    17.40,    14.53,    10.59,    18.60
      206.0,      15.26,    17.38,    14.52,    10.58,    18.58
      207.0,      15.25,    17.36,    14.50,    10.57,    18.56
      208.0,      15.23,    17.34,    14.49,    10.56,    18.54
      209.0,      15.22,    17.33,    14.47,    10.55,    18.52
      210.0,      15.20,    17.31,    14.46,    10.53,    18.50
      211.0,      15.18,    17.29,    14.44,    10.52,    18.48
      212.0,      15.17,    17.27,    14.43,    10.51,    18.46
      213.0,      15.15,    17.25,    14.41,    10.50,    18.44
      214.0,      15.14,    17.24,    14.40,    10.49,    18.43
      215.0,      15.12,    17.22,    14.38,    10.47,    18.41
      216.0,      15.10,    17.20,    14.37,    10.46,    18.39
      217.0,      15.09,    17.18,    14.35,    10.45,    18.37
      218.0,      15.07,    17.17,    14.34,    10.44,    18.35
      219.0,      15.06,    17.15,    14.32,    10.43,    18.33
      220.0,      15.04,    17.13,    14.31,    10.42,    18.31
      221.0,      15.03,    17.11,    14.29,    10.40,    18.30
      222.0,      15.01,    17.10,    14.28,    10.39,    18.28
      223.0,      15.00,    17.08,    14.26,    10.38,    18.26
      224.0,      14.98,    17.06,    14.25,    10.37,    18.24
      225.0,      14.97,    17.04,    14.24,    10.36,    18.22
      226.0,      14.95,    17.03,    14.22,    10.35,    18.20
      227.0,      14.93,    17.01,    14.21,    10.34,    18.19
      228.0,      14.92,    16.99,    14.19,    10.33,    18.17
      229.0,      14.90,    16.98,    14.18,    10.31,    18.15
      230.0,      14.89,    16.96,    14.16,    10.30,    18.13
      231.0,      14.87,    16.94,    14.15,    10.29,    18.11
      232.0,      14.86,    16.92,    14.14,    10.28,    18.09
      233.0,      14.84,    16.91,    14.12,    10.27,    18.08
      234.0,      14.83,    16.89,    14.11,    10.26,    18.06
      235.0,      14.81,    16.87,    14.09,    10.25,    18.04
      236.0,      14.80,    16.86,    14.08,    10.24,    18.02
      237.0,      14.78,    16.84,    14.06,    10.23,    18.00
      238.0,      14.77,    16.82,    14.05,    10.22,    17.98
      239.0,      14.75,    16.80,    14.04,    10.20,    17.97
      240.0,      14.74,    16.79,    14.02,    10.19,    17.95
      241.0,      14.72,    16.77,    14.01,    10.18,    17.93
      242.0,      14.71,    16.75,    13.99,    10.17,    17.91
      243.0,      14.69,    16.74,    13.98,    10.16,    17.89
      244.0,      14.68,    16.72,    13.97,    10.15,    17.88
      245.0,      14.66,    16.70,    13.95,    10.14,    17.86
      246.0,      14.65,    16.69,    13.94,    10.13,    17.84
      247.0,      14.63,    16.67,    13.92,    10.12,    17.82
      248.0,      14.62,    16.65,    13.91,    10.11,    17.81
      249.0,      14.60,    16.64,    13.89,    10.10,    17.79
      250.0,      14.59,    16.62,    13.88,    10.09,    17.77
      251.0,      14.57,    16.60,    13.87,    10.08,    17.75
      252.0,      14.56,    16.59,    13.85,    10.07,    17.73
      253.0,      14.55,    16.57,    13.84,    10.06,    17.72
      254.0,      14.53,    16.55,    13.83,    10.05,    17.70
      255.0,      14.52,    16.54,    13.81,    10.03,    17.68
      256.0,      14.50,    16.52,    13.80,    10.02,    17.66
      257.0,      14.49,    16.50,    13.78,    10.01,    17.65
      258.0,      14.47,    16.49,    13.77,    10.00,    17.63
      259.0,      14.46,    16.47,    13.76,     9.99,    17.61
      260.0,      14.44,    16.45,    13.74,     9.98,    17.59
      261.0,      14.43,    16.44,    13.73,     9.97,    17.57
      262.0,      14.41,    16.42,    13.71,     9.96,    17.56
      263.0,      14.40,    16.40,    13.70,     9.95,    17.54
      264.0,      14.38,    16.39,    13.69,     9.94,    17.52
      265.0,      14.37,    16.37,    13.67,     9.93,    17.50
      266.0,      14.36,    16.35,    13.66,     9.92,    17.49
      267.0,      14.34,    16.34,    13.65,     9.91,    17.47
      268.0,      14.33,    16.32,    13.63,     9.90,    17.45
      269.0,      14.31,    16.30,    13.62,     9.89,    17.43
      270.0,      14.30,    16.29,    13.61,     9.88,    17.42
      271.0,      14.28,    16.27,    13.59,     9.87,    17.40
      272.0,      14.27,    16.26,    13.58,     9.86,    17.38
      273.0,      14.25,    16.24,    13.56,     9.85,    17.36
      274.0,      14.24,    16.22,    13.55,     9.84,    17.35
      275.0,      14.23,    16.21,    13.54,     9.83,    17.33
      276.0,      14.21,    16.19,    13.52,     9.82,    17.31
      277.0,      14.20,    16.17,    13.51,     9.81,    17.29
      278.0,      14.18,    16.16,    13.50,     9.80,    17.28
      279.0,      14.17,    16.14,    13.48,     9.79,    17.26
      280.0,      14.15,    16.13,    13.47,     9.78,    17.24
      281.0,      14.14,    16.11,    13.46,     9.77,    17.23
      282.0,      14.13,    16.09,    13.44,     9.76,    17.21
      283.0,      14.11,    16.08,    13.43,     9.75,    17.19
      284.0,      14.10,    16.06,    13.42,     9.74,    17.17
      285.0,      14.08,    16.05,    13.40,     9.73,    17.16
      286.0,      14.07,    16.03,    13.39,     9.72,    17.14
      287.0,      14.06,    16.01,    13.38,     9.71,    17.12
      288.0,      14.04,    16.00,    13.36,     9.70,    17.11
      289.0,      14.03,    15.98,    13.35,     9.69,    17.09
      290.0,      14.01,    15.97,    13.34,     9.68,    17.07
      291.0,      14.00,    15.95,    13.32,     9.67,    17.05
      292.0,      13.99,    15.93,    13.31,     9.66,    17.04
      293.0,      13.97,    15.92,    13.30,     9.65,    17.02
      294.0,      13.96,    15.90,    13.28,     9.64,    17.00
      295.0,      13.94,    15.89,    13.27,     9.63,    16.99
      296.0,      13.93,    15.87,    13.26,     9.62,    16.97
      297.0,      13.92,    15.85,    13.24,     9.61,    16.95
      298.0,      13.90,    15.84,    13.23,     9.60,    16.94
      299.0,      13.89,    15.82,    13.22,     9.59,    16.92
      300.0,      13.87,    15.81,    13.20,     9.58,    16.90
      301.0,      13.86,    15.79,    13.19,     9.57,    16.88
      302.0,      13.85,    15.77,    13.18,     9.56,    16.87
      303.0,      13.83,    15.76,    13.16,     9.55,    16.85
      304.0,      13.82,    15.74,    13.15,     9.54,    16.83
      305.0,      13.80,    15.73,    13.14,     9.54,    16.82
      306.0,      13.79,    15.71,    13.12,     9.53,    16.80
      307.0,      13.78,    15.70,    13.11,     9.52,    16.78
      308.0,      13.76,    15.68,    13.10,     9.51,    16.77
      309.0,      13.75,    15.66,    13.08,     9.50,    16.75
      310.0,      13.74,    15.65,    13.07,     9.49,    16.73
