Radius (km), Mean (m/s), NE (m/s), SE (m/s), SW (m/s), NW (m/s)
        0.0,       0.00,     0.00,     0.00,     0.00,     0.00
        1.0,       3.47,     3.32,     3.55,     3.70,     3.32
        2.0,       6.00,     5.96,     6.06,     6.02,     5.95
        3.0,       8.35,     8.50,     8.38,     8.06,     8.46
        4.0,      10.72,    11.10,    10.70,    10.04,    11.04
        5.0,      13.20,    13.88,    13.11,    12.05,    13.78
        6.0,      15.85,    16.87,    15.65,    14.14,    16.75
        7.0,      18.65,    20.05,    18.32,    16.32,    19.92
        8.0,      21.54,    23.34,    21.04,    18.54,    23.22
        9.0,      24.40,    26.61,    23.73,    20.73,    26.53
       10.0,      27.10,    29.71,    26.25,    22.78,    29.67
       11.0,      29.52,    32.48,    28.49,    24.61,    32.51
       12.0,      31.55,    34.80,    30.37,    26.15,    34.89
       13.0,      33.12,    36.59,    31.82,    27.32,    36.73
       14.0,      34.19,    37.81,    32.81,    28.13,    37.99
       15.0,      34.78,    38.49,    33.38,    28.58,    38.67
       16.0,      34.96,    38.69,    33.57,    28.72,    38.85
       17.0,      34.80,    38.51,    33.47,    28.61,    38.62
       18.0,      34.42,    38.07,    33.16,    28.32,    38.11
       19.0,      33.90,    37.48,    32.74,    27.94,    37.44
       20.0,      33.32,    36.82,    32.28,    27.51,    36.69
       21.0,      32.75,    36.17,    31.81,    27.08,    35.94
       22.0,      32.20,    35.54,    31.36,    26.67,    35.22
       23.0,      31.67,    34.95,    30.93,    26.28,    34.53
       24.0,      31.17,    34.38,    30.53,    25.90,    33.88
       25.0,      30.69,    33.84,    30.14,    25.55,    33.26
       26.0,      30.23,    33.31,    29.76,    25.20,    32.66
       27.0,      29.79,    32.81,    29.40,    24.87,    32.08
       28.0,      29.36,    32.32,    29.05,    24.55,    31.52
       29.0,      28.95,    31.85,    28.71,    24.24,    30.99
       30.0,      28.55,    31.40,    28.39,    23.94,    30.47
       31.0,      28.17,    30.97,    28.08,    23.66,    29.98
       32.0,      27.80,    30.55,    27.78,    23.38,    29.50
       33.0,      27.45,    30.15,    27.49,    23.12,    29.04
       34.0,      27.11,    29.77,    27.21,    22.86,    28.60
       35.0,      26.78,    29.39,    26.94,    22.62,    28.18
       36.0,      26.47,    29.04,    26.68,    22.38,    27.77
       37.0,      26.16,    28.69,    26.43,    22.15,    27.37
       38.0,      25.87,    28.36,    26.19,    21.93,    26.99
       39.0,      25.59,    28.04,    25.96,    21.72,    26.63
       40.0,      25.32,    27.73,    25.74,    21.51,    26.28
       41.0,      25.05,    27.43,    25.52,    21.32,    25.94
       42.0,      24.80,    27.15,    25.32,    21.13,    25.62
       43.0,      24.56,    26.87,    25.11,    20.95,    25.30
       44.0,      24.32,    26.60,    24.92,    20.77,    25.00
       45.0,      24.10,    26.35,    24.73,    20.60,    24.71
       46.0,      23.88,    26.10,    24.55,    20.43,    24.43
       47.0,      23.67,    25.86,    24.38,    20.28,    24.16
       48.0,      23.47,    25.63,    24.21,    20.12,    23.90
       49.0,      23.27,    25.41,    24.05,    19.98,    23.65
       50.0,      23.08,    25.20,    23.89,    19.83,    23.41
       51.0,      22.90,    24.99,    23.74,    19.70,    23.18
       52.0,      22.73,    24.80,    23.60,    19.56,    22.95
       53.0,      22.56,    24.60,    23.46,    19.43,    22.74
       54.0,      22.39,    24.42,    23.32,    19.31,    22.53
       55.0,      22.24,    24.24,    23.19,    19.19,    22.33
       56.0,      22.09,    24.07,    23.06,    19.08,    22.14
       57.0,      21.94,    23.90,    22.94,    18.96,    21.95
       58.0,      21.80,    23.74,    22.82,    18.86,    21.77
       59.0,      21.66,    23.59,    22.70,    18.75,    21.60
       60.0,      21.53,    23.44,    22.59,    18.65,    21.43
       61.0,      21.40,    23.29,    22.48,    18.55,    21.27
       62.0,      21.28,    23.15,    22.38,    18.46,    21.11
       63.0,      21.16,    23.02,    22.28,    18.37,    20.96
       64.0,      21.04,    22.89,    22.18,    18.28,    20.82
       65.0,      20.93,    22.76,    22.09,    18.19,    20.68
       66.0,      20.82,    22.64,    21.99,    18.11,    20.54
       67.0,      20.72,    22.52,    21.90,    18.03,    20.41
       68.0,      20.62,    22.41,    21.82,    17.95,    20.28
       69.0,      20.52,    22.30,    21.73,    17.88,    20.16
       70.0,      20.42,    22.19,    21.65,    17.81,    20.04
       71.0,      20.33,    22.09,    21.57,    17.74,    19.93
       72.0,      20.24,    21.99,    21.50,    17.67,    19.82
       73.0,      20.16,    21.89,    21.42,    17.60,    19.71
       74.0,      20.07,    21.80,    21.35,    17.54,    19.61
       75.0,      19.99,    21.71,    21.28,    17.47,    19.51
       76.0,      19.91,    21.62,    21.21,    17.41,    19.41
       77.0,      19.84,    21.53,    21.15,    17.35,    19.32
       78.0,      19.77,    21.45,    21.08,    17.30,    19.23
       79.0,      19.69,    21.37,    21.02,    17.24,    19.14
       80.0,      19.62,    21.29,    20.96,    17.19,    19.06
       81.0,      19.56,    21.22,    20.90,    17.13,    18.98
       82.0,      19.49,    21.14,    20.84,    17.08,    18.90
       83.0,      19.43,    21.07,    20.79,    17.03,    18.82
       84.0,      19.37,    21.00,    20.73,    16.99,    18.75
       85.0,      19.31,    20.94,    20.68,    16.94,    18.67
       86.0,      19.25,    20.87,    20.63,    16.89,    18.60
       87.0,      19.19,    20.81,    20.58,    16.85,    18.54
       88.0,      19.14,    20.74,    20.53,    16.80,    18.47
       89.0,      19.08,    20.68,    20.48,    16.76,    18.41
       90.0,      19.03,    20.63,    20.43,    16.72,    18.34
       91.0,      18.98,    20.57,    20.38,    16.68,    18.28
       92.0,      18.93,    20.51,    20.34,    16.64,    18.22
       93.0,      18.88,    20.46,    20.29,    16.60,    18.17
       94.0,      18.83,    20.41,    20.25,    16.56,    18.11
       95.0,      18.79,    20.35,    20.21,    16.53,    18.06
       96.0,      18.74,    20.30,    20.17,    16.49,    18.00
       97.0,      18.70,    20.26,    20.13,    16.46,    17.95
       98.0,      18.66,    20.21,    20.09,    16.42,    17.90
       99.0,      18.61,    20.16,    20.05,    16.39,    17.85
      100.0,      18.57,    20.12,    20.01,    16.35,    17.81
      101.0,      18.53,    20.07,    19.97,    16.32,    17.76
      102.0,      18.49,    20.03,    19.94,    16.29,    17.72
      103.0,      18.45,    19.98,    19.90,    16.26,    17.67
      104.0,      18.42,    19.94,    19.87,    16.23,    17.63
      105.0,      18.38,    19.90,    19.83,    16.20,    17.59
      106.0,      18.34,    19.86,    19.80,    16.17,    17.55
      107.0,      18.31,    19.82,    19.77,    16.14,    17.51
      108.0,      18.27,    19.78,    19.73,    16.11,    17.47
      109.0,      18.24,    19.75,    19.70,    16.09,    17.43
      110.0,      18.21,    19.71,    19.67,    16.06,    17.39
      111.0,      18.18,    19.67,    19.64,    16.03,    17.36
      112.0,      18.14,    19.64,    19.61,    16.01,    17.32
      113.0,      18.11,    19.60,    19.58,    15.98,    17.29
      114.0,      18.08,    19.57,    19.55,    15.95,    17.25
      115.0,      18.05,    19.54,    19.52,    15.93,    17.22
      116.0,      18.02,    19.50,    19.49,    15.90,    17.19
      117.0,      17.99,    19.47,    19.46,    15.88,    17.15
      118.0,      17.96,    19.44,    19.43,    15.86,    17.12
      119.0,      17.93,    19.41,    19.40,    15.83,    17.09
      120.0,      17.91,    19.38,    19.38,    15.81,    17.06
      121.0,      17.88,    19.35,    19.35,    15.79,    17.03
      122.0,      17.85,    19.32,    19.32,    15.76,    17.00
      123.0,      17.82,    19.29,    19.30,    15.74,    16.97
      124.0,      17.80,    19.26,    19.27,    15.72,    16.95
      125.0,      17.77,    19.23,    19.24,    15.70,    16.92
      126.0,      17.75,    19.20,    19.22,    15.68,    16.89
      127.0,      17.72,    19.17,    19.19,    15.65,    16.86
      128.0,      17.70,    19.15,    19.17,    15.63,    16.84
      129.0,      17.67,    19.12,    19.14,    15.61,    16.81
      130.0,      17.65,    19.09,    19.12,    15.59,    16.79
      131.0,      17.62,    19.07,    19.09,    15.57,    16.76
      132.0,      17.60,    19.04,    19.07,    15.55,    16.74
      133.0,      17.58,    19.01,    19.05,    15.53,    16.71
      134.0,      17.55,    18.99,    19.02,    15.51,    16.69
      135.0,      17.53,    18.96,    19.00,    15.49,    16.66
      136.0,      17.51,    18.94,    18.98,    15.47,    16.64
      137.0,      17.48,    18.91,    18.95,    15.45,    16.62
      138.0,      17.46,    18.89,    18.93,    15.43,    16.59
      139.0,      17.44,    18.87,    18.91,    15.42,    16.57
      140.0,      17.42,    18.84,    18.88,    15.40,    16.55
      141.0,      17.40,    18.82,    18.86,    15.38,    16.53
      142.0,      17.37,    18.79,    18.84,    15.36,    16.50
      143.0,      17.35,    18.77,    18.82,    15.34,    16.48
      144.0,      17.33,    18.75,    18.80,    15.32,    16.46
      145.0,      17.31,    18.72,    18.77,    15.31,    16.44
      146.0,      17.29,    18.70,    18.75,    15.29,    16.42
      147.0,      17.27,    18.68,    18.73,    15.27,    16.40
      148.0,      17.25,    18.66,    18.71,    15.25,    16.38
      149.0,      17.23,    18.63,    18.69,    15.23,    16.36
      150.0,      17.21,    18.61,    18.67,    15.22,    16.34
      151.0,      17.19,    18.59,    18.65,    15.20,    16.32
      152.0,      17.17,    18.57,    18.63,    15.18,    16.30
      153.0,      17.15,    18.55,    18.61,    15.17,    16.28
      154.0,      17.13,    18.53,    18.58,    15.15,    16.26
      155.0,      17.11,    18.50,    18.56,    15.13,    16.24
      156.0,      17.09,    18.48,    18.54,    15.11,    16.22
      157.0,      17.07,    18.46,    18.52,    15.10,    16.20
      158.0,      17.05,    18.44,    18.50,    15.08,    16.18
      159.0,      17.03,    18.42,    18.48,    15.06,    16.16
      160.0,      17.01,    18.40,    18.46,    15.05,    16.14
      161.0,      16.99,    18.38,    18.44,    15.03,    16.12
      162.0,      16.97,    18.36,    18.42,    15.01,    16.10
      163.0,      16.96,    18.34,    18.40,    15.00,    16.08
      164.0,      16.94,    18.32,    18.38,    14.98,    16.07
      165.0,      16.92,    18.30,    18.36,    14.97,    16.05
      166.0,      16.90,    18.28,    18.34,    14.95,    16.03
      167.0,      16.88,    18.26,    18.32,    14.93,    16.01
      168.0,      16.86,    18.24,    18.30,    14.92,    15.99
      169.0,      16.85,    18.22,    18.29,    14.90,    15.98
      170.0,      16.83,    18.20,    18.27,    14.89,    15.96
      171.0,      16.81,    18.18,    18.25,    14.87,    15.94
      172.0,      16.79,    18.16,    18.23,    14.85,    15.92
      173.0,      16.77,    18.14,    18.21,    14.84,    15.91
      174.0,      16.76,    18.12,    18.19,    14.82,    15.89
      175.0,      16.74,    18.10,    18.17,    14.81,    15.87
      176.0,      16.72,    18.08,    18.15,    14.79,    15.85
      177.0,      16.70,    18.06,    18.13,    14.78,    15.84
      178.0,      16.68,    18.04,    18.11,    14.76,    15.82
      179.0,      16.67,    18.02,    18.09,    14.75,    15.80
      180.0,      16.65,    18.00,    18.08,    14.73,    15.79
      181.0,      16.63,    17.99,    18.06,    14.71,    15.77
      182.0,      16.61,    17.97,    18.04,    14.70,    15.75
      183.0,      16.60,    17.95,    18.02,    14.68,    15.73
      184.0,      16.58,    17.93,    18.00,    14.67,    15.72
      185.0,      16.56,    17.91,    17.98,    14.65,    15.70
      186.0,      16.54,    17.89,    17.96,    14.64,    15.68
      187.0,      16.53,    17.87,    17.94,    14.62,    15.67
      188.0,      16.51,    17.85,    17.93,    14.61,    15.65
      189.0,      16.49,    17.84,    17.91,    14.59,    15.64
      190.0,      16.48,    17.82,    17.89,    14.58,    15.62
      191.0,      16.46,    17.80,    17.87,    14.56,    15.60
      192.0,      16.44,    17.78,    17.85,    14.55,    15.59
      193.0,      16.42,    17.76,    17.83,    14.53,    15.57
      194.0,      16.41,    17.74,    17.82,    14.52,    15.55
      195.0,      16.39,    17.73,    17.80,    14.50,    15.54
      196.0,      16.37,    17.71,    17.78,    14.49,    15.52
      197.0,      16.36,    17.69,    17.76,    14.47,    15.50
      198.0,      16.34,    17.67,    17.74,    14.46,    15.49
      199.0,      16.32,    17.65,    17.73,    14.44,    15.47
      200.0,      16.31,    17.63,    17.71,    14.43,    15.46
      201.0,      16.29,    17.62,    17.69,    14.41,    15.44
      202.0,      16.27,    17.60,    17.67,    14.40,    15.42
      203.0,      16.26,    17.58,    17.65,    14.38,    15.41
      204.0,      16.24,    17.56,    17.64,    14.37,    15.39
      205.0,      16.22,    17.54,    17.62,    14.36,    15.38
      206.0,      16.21,    17.53,    17.60,    14.34,    15.36
      207.0,      16.19,    17.51,    17.58,    14.33,    15.35
      208.0,      16.17,    17.49,    17.56,    14.31,    15.33
      209.0,      16.16,    17.47,    17.55,    14.30,    15.31
      210.0,      16.14,    17.45,    17.53,    14.28,    15.30
      211.0,      16.12,    17.44,    17.51,    14.27,    15.28
      212.0,      16.11,    17.42,    17.49,    14.25,    15.27
      213.0,      16.09,    17.40,    17.48,    14.24,    15.25
      214.0,      16.08,    17.38,    17.46,    14.23,    15.24
      215.0,      16.06,    17.37,    17.44,    14.21,    15.22
      216.0,      16.04,    17.35,    17.42,    14.20,    15.21
      217.0,      16.03,    17.33,    17.41,    14.18,    15.19
      218.0,      16.01,    17.31,    17.39,    14.17,    15.17
      219.0,      15.99,    17.30,    17.37,    14.15,    15.16
      220.0,      15.98,    17.28,    17.35,    14.14,    15.14
      221.0,      15.96,    17.26,    17.34,    14.12,    15.13
      222.0,      15.95,    17.24,    17.32,    14.11,    15.11
      223.0,      15.93,    17.23,    17.30,    14.10,    15.10
      224.0,      15.91,    17.21,    17.28,    14.08,    15.08
      225.0,      15.90,    17.19,    17.27,    14.07,    15.07
      226.0,      15.88,    17.17,    17.25,    14.05,    15.05
      227.0,      15.87,    17.16,    17.23,    14.04,    15.04
      228.0,      15.85,    17.14,    17.21,    14.03,    15.02
      229.0,      15.83,    17.12,    17.20,    14.01,    15.01
      230.0,      15.82,    17.11,    17.18,    14.00,    14.99
      231.0,      15.80,    17.09,    17.16,    13.98,    14.98
      232.0,      15.79,    17.07,    17.14,    13.97,    14.96
      233.0,      15.77,    17.05,    17.13,    13.96,    14.95
      234.0,      15.75,    17.04,    17.11,    13.94,    14.93
      235.0,      15.74,    17.02,    17.09,    13.93,    14.92
      236.0,      15.72,    17.00,    17.08,    13.91,    14.90
      237.0,      15.71,    16.98,    17.06,    13.90,    14.89
      238.0,      15.69,    16.97,    17.04,    13.89,    14.87
      239.0,      15.68,    16.95,    17.02,    13.87,    14.86
      240.0,      15.66,    16.93,    17.01,    13.86,    14.84
      241.0,      15.64,    16.92,    16.99,    13.84,    14.83
      242.0,      15.63,    16.90,    16.97,    13.83,    14.81
      243.0,      15.61,    16.88,    16.96,    13.82,    14.80
      244.0,      15.60,    16.87,    16.94,    13.80,    14.78
      245.0,      15.58,    16.85,    16.92,    13.79,    14.77
      246.0,      15.57,    16.83,    16.91,    13.77,    14.75
      247.0,      15.55,    16.82,    16.89,    13.76,    14.74
      248.0,      15.53,    16.80,    16.87,    13.75,    14.72
      249.0,      15.52,    16.78,    16.85,    13.73,    14.71
      250.0,      15.50,    16.76,    16.84,    13.72,    14.69
      251.0,      15.49,    16.75,    16.82,    13.71,    14.68
      252.0,      15.47,    16.73,    16.80,    13.69,    14.66
      253.0,      15.46,    16.71,    16.79,    13.68,    14.65
      254.0,      15.44,    16.70,    16.77,    13.66,    14.63
      255.0,      15.43,    16.68,    16.75,    13.65,    14.62
      256.0,      15.41,    16.66,    16.74,    13.64,    14.60
      257.0,      15.39,    16.65,    16.72,    13.62,    14.59
      258.0,      15.38,    16.63,    16.70,    13.61,    14.57
      259.0,      15.36,    16.61,    16.69,    13.60,    14.56
      260.0,      15.35,    16.60,    16.67,    13.58,    14.55
      261.0,      15.33,    16.58,    16.65,    13.57,    14.53
      262.0,      15.32,    16.56,    16.64,    13.56,    14.52
      263.0,      15.30,    16.55,    16.62,    13.54,    14.50
      264.0,      15.29,    16.53,    16.60,    13.53,    14.49
      265.0,      15.27,    16.51,    16.59,    13.51,    14.47
      266.0,      15.26,    16.50,    16.57,    13.50,    14.46
      267.0,      15.24,    16.48,    16.55,    13.49,    14.44
      268.0,      15.23,    16.46,    16.54,    13.47,    14.43
      269.0,      15.21,    16.45,    16.52,    13.46,    14.41
      270.0,      15.20,    16.43,    16.50,    13.45,    14.40
      271.0,      15.18,    16.42,    16.49,    13.43,    14.39
      272.0,      15.17,    16.40,    16.47,    13.42,    14.37
      273.0,      15.15,    16.38,    16.45,    13.41,    14.36
      274.0,      15.13,    16.37,    16.44,    13.39,    14.34
      275.0,      15.12,    16.35,    16.42,    13.38,    14.33
      276.0,      15.10,    16.33,    16.40,    13.37,    14.31
      277.0,      15.09,    16.32,    16.39,    13.35,    14.30
      278.0,      15.07,    16.30,    16.37,    13.34,    14.29
      279.0,      15.06,    16.28,    16.36,    13.33,    14.27
      280.0,      15.04,    16.27,    16.34,    13.31,    14.26
      281.0,      15.03,    16.25,    16.32,    13.30,    14.24
      282.0,      15.01,    16.24,    16.31,    13.29,    14.23
      283.0,      15.00,    16.22,    16.29,    13.27,    14.21
      284.0,      14.98,    16.20,    16.27,    13.26,    14.20
      285.0,      14.97,    16.19,    16.26,    13.25,    14.19
      286.0,      14.95,    16.17,    16.24,    13.23,    14.17
      287.0,      14.94,    16.15,    16.22,    13.22,    14.16
      288.0,      14.92,    16.14,    16.21,    13.21,    14.14
      289.0,      14.91,    16.12,    16.19,    13.19,    14.13
      290.0,      14.89,    16.11,    16.18,    13.18,    14.11
      291.0,      14.88,    16.09,    16.16,    13.17,    14.10
      292.0,      14.86,    16.07,    16.14,    13.15,    14.09
      293.0,      14.85,    16.06,    16.13,    13.14,    14.07
      294.0,      14.83,    16.04,    16.11,    13.13,    14.06
      295.0,      14.82,    16.03,    16.10,    13.11,    14.04
      296.0,      14.81,    16.01,    16.08,    13.10,    14.03
      297.0,      14.79,    15.99,    16.06,    13.09,    14.02
      298.0,      14.78,    15.98,    16.05,    13.08,    14.00
      299.0,      14.76,    15.96,    16.03,    13.06,    13.99
      300.0,      14.75,    15.95,    16.02,    13.05,    13.97
      301.0,      14.73,    15.93,    16.00,    13.04,    13.96
      302.0,      14.72,    15.91,    15.98,    13.02,    13.95
      303.0,      14.70,    15.90,    15.97,    13.01,    13.93
      304.0,      14.69,    15.88,    15.95,    13.00,    13.92
      305.0,      14.67,    15.87,    15.94,    12.98,    13.90
      306.0,      14.66,    15.85,    15.92,    12.97,    13.89
      307.0,      14.64,    15.83,    15.90,    12.96,    13.88
      308.0,      14.63,    15.82,    15.89,    12.95,    13.86
      309.0,      14.61,    15.80,    15.87,    12.93,    13.85
      310.0,      14.60,    15.79,    15.86,    12.92,    13.83
