Radius (km), Mean (m/s), NE (m/s), SE (m/s), SW (m/s), NW (m/s)
        0.0,       0.00,     0.00,     0.00,     0.00,     0.00
        1.0,       1.78,     1.69,     1.78,     1.88,     1.78
        2.0,       3.25,     3.14,     3.25,     3.35,     3.25
        3.0,       4.61,     4.51,     4.61,     4.71,     4.61
        4.0,       5.91,     5.83,     5.92,     5.99,     5.92
        5.0,       7.17,     7.11,     7.17,     7.22,     7.17
        6.0,       8.40,     8.37,     8.40,     8.42,     8.40
        7.0,       9.59,     9.60,     9.60,     9.58,     9.60
        8.0,      10.77,    10.82,    10.77,    10.71,    10.77
        9.0,      11.92,    12.01,    11.93,    11.82,    11.93
       10.0,      13.06,    13.20,    13.07,    12.91,    13.07
       11.0,      14.18,    14.37,    14.19,    13.98,    14.19
       12.0,      15.29,    15.53,    15.30,    15.04,    15.30
       13.0,      16.39,    16.68,    16.40,    16.08,    16.40
       14.0,      17.48,    17.82,    17.48,    17.11,    17.48
       15.0,      18.55,    18.96,    18.56,    18.13,    18.56
       16.0,      19.62,    20.08,    19.62,    19.14,    19.62
       17.0,      20.67,    21.20,    20.68,    20.13,    20.68
       18.0,      21.72,    22.30,    21.73,    21.12,    21.73
       19.0,      22.76,    23.41,    22.77,    22.10,    22.77
       20.0,      23.79,    24.50,    23.80,    23.07,    23.80
       21.0,      24.82,    25.59,    24.83,    24.03,    24.83
       22.0,      25.85,    26.68,    25.87,    24.99,    25.85
       23.0,      26.89,    27.79,    26.94,    25.94,    26.88
       24.0,      27.97,    28.94,    28.08,    26.91,    27.93
       25.0,      29.12,    30.17,    29.32,    27.93,    29.05
       26.0,      30.35,    31.50,    30.66,    29.01,    30.25
       27.0,      31.68,    32.91,    32.10,    30.16,    31.53
       28.0,      33.07,    34.40,    33.58,    31.39,    32.89
       29.0,      34.48,    35.91,    35.07,    32.66,    34.27
       30.0,      35.86,    37.38,    36.47,    33.93,    35.64
       31.0,      37.13,    38.75,    37.74,    35.13,    36.92
       32.0,      38.25,    39.94,    38.80,    36.22,    38.05
       33.0,      39.17,    40.92,    39.63,    37.13,    39.00
       34.0,      39.85,    41.65,    40.19,    37.83,    39.72
       35.0,      40.29,    42.14,    40.52,    38.31,    40.21
       36.0,      40.52,    42.40,    40.63,    38.58,    40.48
       37.0,      40.56,    42.47,    40.57,    38.65,    40.56
       38.0,      40.47,    42.41,    40.40,    38.58,    40.51
       39.0,      40.30,    42.27,    40.16,    38.41,    40.36
       40.0,      40.08,    42.08,    39.90,    38.18,    40.17
       41.0,      39.86,    41.89,    39.64,    37.93,    39.96
       42.0,      39.64,    41.72,    39.40,    37.69,    39.77
       43.0,      39.44,    41.55,    39.17,    37.47,    39.59
       44.0,      39.26,    41.39,    38.94,    37.27,    39.42
       45.0,      39.07,    41.24,    38.71,    37.07,    39.26
       46.0,      38.89,    41.09,    38.49,    36.88,    39.10
       47.0,      38.71,    40.94,    38.27,    36.69,    38.94
       48.0,      38.53,    40.79,    38.05,    36.50,    38.78
       49.0,      38.35,    40.64,    37.83,    36.31,    38.62
       50.0,      38.17,    40.49,    37.61,    36.12,    38.46
       51.0,      37.99,    40.34,    37.40,    35.93,    38.30
       52.0,      37.82,    40.19,    37.18,    35.74,    38.15
       53.0,      37.64,    40.04,    36.97,    35.56,    37.99
       54.0,      37.47,    39.90,    36.76,    35.37,    37.84
       55.0,      37.29,    39.75,    36.56,    35.19,    37.68
       56.0,      37.12,    39.60,    36.35,    35.00,    37.53
       57.0,      36.95,    39.46,    36.15,    34.82,    37.37
       58.0,      36.78,    39.31,    35.94,    34.64,    37.22
       59.0,      36.61,    39.17,    35.74,    34.46,    37.07
       60.0,      36.44,    39.02,    35.55,    34.28,    36.92
       61.0,      36.28,    38.88,    35.35,    34.11,    36.76
       62.0,      36.11,    38.74,    35.15,    33.93,    36.61
       63.0,      35.94,    38.60,    34.96,    33.75,    36.46
       64.0,      35.78,    38.45,    34.77,    33.58,    36.31
       65.0,      35.62,    38.31,    34.58,    33.41,    36.17
       66.0,      35.45,    38.17,    34.39,    33.23,    36.02
       67.0,      35.29,    38.03,    34.20,    33.06,    35.87
       68.0,      35.13,    37.89,    34.02,    32.89,    35.72
       69.0,      34.97,    37.75,    33.83,    32.72,    35.58
       70.0,      34.81,    37.62,    33.65,    32.55,    35.43
       71.0,      34.65,    37.48,    33.47,    32.39,    35.29
       72.0,      34.50,    37.34,    33.29,    32.22,    35.14
       73.0,      34.34,    37.20,    33.11,    32.05,    35.00
       74.0,      34.19,    37.07,    32.93,    31.89,    34.85
       75.0,      34.03,    36.93,    32.76,    31.72,    34.71
       76.0,      33.88,    36.80,    32.59,    31.56,    34.57
       77.0,      33.73,    36.66,    32.41,    31.40,    34.43
       78.0,      33.57,    36.53,    32.24,    31.24,    34.29
       79.0,      33.42,    36.40,    32.07,    31.08,    34.15
       80.0,      33.27,    36.26,    31.91,    30.92,    34.01
       81.0,      33.12,    36.13,    31.74,    30.76,    33.87
       82.0,      32.98,    36.00,    31.57,    30.60,    33.73
       83.0,      32.83,    35.87,    31.41,    30.44,    33.59
       84.0,      32.68,    35.74,    31.25,    30.29,    33.45
       85.0,      32.54,    35.60,    31.09,    30.13,    33.32
       86.0,      32.39,    35.47,    30.93,    29.98,    33.18
       87.0,      32.25,    35.35,    30.77,    29.83,    33.04
       88.0,      32.10,    35.22,    30.61,    29.67,    32.91
       89.0,      31.96,    35.09,    30.46,    29.52,    32.77
       90.0,      31.82,    34.96,    30.30,    29.37,    32.64
       91.0,      31.68,    34.83,    30.15,    29.22,    32.51
       92.0,      31.54,    34.71,    30.00,    29.07,    32.37
       93.0,      31.40,    34.58,    29.85,    28.92,    32.24
       94.0,      31.26,    34.45,    29.70,    28.78,    32.11
       95.0,      31.12,    34.33,    29.55,    28.63,    31.98
       96.0,      30.98,    34.20,    29.40,    28.48,    31.85
       97.0,      30.85,    34.08,    29.26,    28.34,    31.72
       98.0,      30.71,    33.95,    29.11,    28.20,    31.59
       99.0,      30.58,    33.83,    28.97,    28.05,    31.46
      100.0,      30.44,    33.71,    28.83,    27.91,    31.33
      101.0,      30.31,    33.58,    28.68,    27.77,    31.20
      102.0,      30.18,    33.46,    28.54,    27.63,    31.07
      103.0,      30.04,    33.34,    28.41,    27.49,    30.94
      104.0,      29.91,    33.22,    28.27,    27.35,    30.82
      105.0,      29.78,    33.10,    28.13,    27.21,    30.69
      106.0,      29.65,    32.98,    28.00,    27.07,    30.57
      107.0,      29.52,    32.86,    27.86,    26.93,    30.44
      108.0,      29.40,    32.74,    27.73,    26.80,    30.32
      109.0,      29.27,    32.62,    27.60,    26.66,    30.19
      110.0,      29.14,    32.50,    27.47,    26.53,    30.07
      111.0,      29.01,    32.38,    27.34,    26.39,    29.95
      112.0,      28.89,    32.27,    27.21,    26.26,    29.82
      113.0,      28.76,    32.15,    27.08,    26.13,    29.70
      114.0,      28.64,    32.03,    26.95,    26.00,    29.58
      115.0,      28.52,    31.92,    26.83,    25.86,    29.46
      116.0,      28.39,    31.80,    26.70,    25.73,    29.34
      117.0,      28.27,    31.69,    26.58,    25.60,    29.22
      118.0,      28.15,    31.57,    26.46,    25.48,    29.10
      119.0,      28.03,    31.46,    26.33,    25.35,    28.98
      120.0,      27.91,    31.34,    26.21,    25.22,    28.86
      121.0,      27.79,    31.23,    26.09,    25.09,    28.74
      122.0,      27.67,    31.12,    25.97,    24.97,    28.62
      123.0,      27.55,    31.00,    25.86,    24.84,    28.51
      124.0,      27.43,    30.89,    25.74,    24.72,    28.39
      125.0,      27.32,    30.78,    25.62,    24.59,    28.27
      126.0,      27.20,    30.67,    25.51,    24.47,    28.16
      127.0,      27.09,    30.56,    25.39,    24.35,    28.04
      128.0,      26.97,    30.45,    25.28,    24.22,    27.93
      129.0,      26.86,    30.34,    25.17,    24.10,    27.81
      130.0,      26.74,    30.23,    25.06,    23.98,    27.70
      131.0,      26.63,    30.12,    24.95,    23.86,    27.59
      132.0,      26.52,    30.01,    24.84,    23.74,    27.47
      133.0,      26.40,    29.90,    24.73,    23.62,    27.36
      134.0,      26.29,    29.79,    24.62,    23.50,    27.25
      135.0,      26.18,    29.69,    24.51,    23.39,    27.14
      136.0,      26.07,    29.58,    24.41,    23.27,    27.03
      137.0,      25.96,    29.47,    24.30,    23.15,    26.92
      138.0,      25.85,    29.37,    24.20,    23.04,    26.81
      139.0,      25.74,    29.26,    24.09,    22.92,    26.70
      140.0,      25.64,    29.15,    23.99,    22.81,    26.59
      141.0,      25.53,    29.05,    23.89,    22.70,    26.48
      142.0,      25.42,    28.94,    23.79,    22.58,    26.37
      143.0,      25.31,    28.84,    23.69,    22.47,    26.26
      144.0,      25.21,    28.74,    23.59,    22.36,    26.15
      145.0,      25.10,    28.63,    23.49,    22.25,    26.05
      146.0,      25.00,    28.53,    23.39,    22.14,    25.94
      147.0,      24.90,    28.43,    23.29,    22.03,    25.84
      148.0,      24.79,    28.32,    23.20,    21.92,    25.73
      149.0,      24.69,    28.22,    23.10,    21.81,    25.62
      150.0,      24.59,    28.12,    23.00,    21.70,    25.52
      151.0,      24.48,    28.02,    22.91,    21.59,    25.41
      152.0,      24.38,    27.92,    22.82,    21.48,    25.31
      153.0,      24.28,    27.82,    22.72,    21.38,    25.21
      154.0,      24.18,    27.72,    22.63,    21.27,    25.10
      155.0,      24.08,    27.62,    22.54,    21.17,    25.00
      156.0,      23.98,    27.52,    22.45,    21.06,    24.90
      157.0,      23.88,    27.42,    22.36,    20.96,    24.80
      158.0,      23.79,    27.32,    22.27,    20.85,    24.70
      159.0,      23.69,    27.22,    22.18,    20.75,    24.59
      160.0,      23.59,    27.13,    22.09,    20.65,    24.49
      161.0,      23.49,    27.03,    22.00,    20.55,    24.39
      162.0,      23.40,    26.93,    21.92,    20.44,    24.29
      163.0,      23.30,    26.84,    21.83,    20.34,    24.19
      164.0,      23.21,    26.74,    21.75,    20.24,    24.10
      165.0,      23.11,    26.64,    21.66,    20.14,    24.00
      166.0,      23.02,    26.55,    21.58,    20.04,    23.90
      167.0,      22.92,    26.45,    21.49,    19.95,    23.80
      168.0,      22.83,    26.36,    21.41,    19.85,    23.70
      169.0,      22.74,    26.26,    21.33,    19.75,    23.61
      170.0,      22.64,    26.17,    21.25,    19.65,    23.51
      171.0,      22.55,    26.08,    21.17,    19.56,    23.41
      172.0,      22.46,    25.98,    21.09,    19.46,    23.32
      173.0,      22.37,    25.89,    21.01,    19.36,    23.22
      174.0,      22.28,    25.80,    20.93,    19.27,    23.13
      175.0,      22.19,    25.71,    20.85,    19.17,    23.03
      176.0,      22.10,    25.61,    20.77,    19.08,    22.94
      177.0,      22.01,    25.52,    20.69,    18.99,    22.85
      178.0,      21.92,    25.43,    20.62,    18.89,    22.75
      179.0,      21.83,    25.34,    20.54,    18.80,    22.66
      180.0,      21.75,    25.25,    20.46,    18.71,    22.57
      181.0,      21.66,    25.16,    20.39,    18.62,    22.47
      182.0,      21.57,    25.07,    20.31,    18.52,    22.38
      183.0,      21.49,    24.98,    20.24,    18.43,    22.29
      184.0,      21.40,    24.89,    20.17,    18.34,    22.20
      185.0,      21.31,    24.80,    20.09,    18.25,    22.11
      186.0,      21.23,    24.71,    20.02,    18.16,    22.02
      187.0,      21.14,    24.62,    19.95,    18.08,    21.93
      188.0,      21.06,    24.54,    19.88,    17.99,    21.84
      189.0,      20.98,    24.45,    19.81,    17.90,    21.75
      190.0,      20.89,    24.36,    19.74,    17.81,    21.66
      191.0,      20.81,    24.28,    19.67,    17.73,    21.57
      192.0,      20.73,    24.19,    19.60,    17.64,    21.48
      193.0,      20.65,    24.10,    19.53,    17.55,    21.40
      194.0,      20.56,    24.02,    19.46,    17.47,    21.31
      195.0,      20.48,    23.93,    19.39,    17.38,    21.22
      196.0,      20.40,    23.85,    19.33,    17.30,    21.13
      197.0,      20.32,    23.76,    19.26,    17.21,    21.05
      198.0,      20.24,    23.68,    19.19,    17.13,    20.96
      199.0,      20.16,    23.59,    19.13,    17.05,    20.88
      200.0,      20.08,    23.51,    19.06,    16.96,    20.79
      201.0,      20.00,    23.42,    19.00,    16.88,    20.71
      202.0,      19.92,    23.34,    18.93,    16.80,    20.62
      203.0,      19.85,    23.26,    18.87,    16.72,    20.54
      204.0,      19.77,    23.18,    18.81,    16.64,    20.45
      205.0,      19.69,    23.09,    18.74,    16.56,    20.37
      206.0,      19.61,    23.01,    18.68,    16.48,    20.29
      207.0,      19.54,    22.93,    18.62,    16.40,    20.20
      208.0,      19.46,    22.85,    18.56,    16.32,    20.12
      209.0,      19.38,    22.77,    18.50,    16.24,    20.04
      210.0,      19.31,    22.69,    18.43,    16.16,    19.96
      211.0,      19.23,    22.61,    18.37,    16.08,    19.87
      212.0,      19.16,    22.53,    18.31,    16.00,    19.79
      213.0,      19.08,    22.45,    18.25,    15.92,    19.71
      214.0,      19.01,    22.37,    18.20,    15.85,    19.63
      215.0,      18.94,    22.29,    18.14,    15.77,    19.55
      216.0,      18.86,    22.21,    18.08,    15.69,    19.47
      217.0,      18.79,    22.13,    18.02,    15.62,    19.39
      218.0,      18.72,    22.05,    17.96,    15.54,    19.31
      219.0,      18.65,    21.97,    17.91,    15.47,    19.23
      220.0,      18.57,    21.89,    17.85,    15.39,    19.15
      221.0,      18.50,    21.82,    17.79,    15.32,    19.08
      222.0,      18.43,    21.74,    17.74,    15.25,    19.00
      223.0,      18.36,    21.66,    17.68,    15.17,    18.92
      224.0,      18.29,    21.59,    17.63,    15.10,    18.84
      225.0,      18.22,    21.51,    17.57,    15.03,    18.77
      226.0,      18.15,    21.43,    17.52,    14.95,    18.69
      227.0,      18.08,    21.36,    17.46,    14.88,    18.61
      228.0,      18.01,    21.28,    17.41,    14.81,    18.54
      229.0,      17.94,    21.21,    17.36,    14.74,    18.46
      230.0,      17.87,    21.13,    17.30,    14.67,    18.39
      231.0,      17.80,    21.06,    17.25,    14.60,    18.31
      232.0,      17.74,    20.98,    17.20,    14.53,    18.24
      233.0,      17.67,    20.91,    17.15,    14.46,    18.16
      234.0,      17.60,    20.84,    17.10,    14.39,    18.09
      235.0,      17.53,    20.76,    17.05,    14.32,    18.01
      236.0,      17.47,    20.69,    16.99,    14.25,    17.94
      237.0,      17.40,    20.62,    16.94,    14.18,    17.87
      238.0,      17.34,    20.54,    16.89,    14.11,    17.79
      239.0,      17.27,    20.47,    16.84,    14.05,    17.72
      240.0,      17.21,    20.40,    16.79,    13.98,    17.65
      241.0,      17.14,    20.33,    16.75,    13.91,    17.58
      242.0,      17.08,    20.25,    16.70,    13.85,    17.50
      243.0,      17.01,    20.18,    16.65,    13.78,    17.43
      244.0,      16.95,    20.11,    16.60,    13.71,    17.36
      245.0,      16.88,    20.04,    16.55,    13.65,    17.29
      246.0,      16.82,    19.97,    16.51,    13.58,    17.22
      247.0,      16.76,    19.90,    16.46,    13.52,    17.15
      248.0,      16.69,    19.83,    16.41,    13.45,    17.08
      249.0,      16.63,    19.76,    16.36,    13.39,    17.01
      250.0,      16.57,    19.69,    16.32,    13.33,    16.94
      251.0,      16.51,    19.62,    16.27,    13.26,    16.87
      252.0,      16.44,    19.55,    16.23,    13.20,    16.80
      253.0,      16.38,    19.48,    16.18,    13.14,    16.73
      254.0,      16.32,    19.41,    16.14,    13.07,    16.66
      255.0,      16.26,    19.35,    16.09,    13.01,    16.60
      256.0,      16.20,    19.28,    16.05,    12.95,    16.53
      257.0,      16.14,    19.21,    16.00,    12.89,    16.46
      258.0,      16.08,    19.14,    15.96,    12.83,    16.39
      259.0,      16.02,    19.08,    15.92,    12.77,    16.33
      260.0,      15.96,    19.01,    15.87,    12.70,    16.26
      261.0,      15.90,    18.94,    15.83,    12.64,    16.19
      262.0,      15.84,    18.88,    15.79,    12.58,    16.13
      263.0,      15.78,    18.81,    15.74,    12.52,    16.06
      264.0,      15.73,    18.74,    15.70,    12.46,    16.00
      265.0,      15.67,    18.68,    15.66,    12.41,    15.93
      266.0,      15.61,    18.61,    15.62,    12.35,    15.87
      267.0,      15.55,    18.55,    15.58,    12.29,    15.80
      268.0,      15.50,    18.48,    15.54,    12.23,    15.74
      269.0,      15.44,    18.42,    15.49,    12.17,    15.67
      270.0,      15.38,    18.35,    15.45,    12.11,    15.61
      271.0,      15.33,    18.29,    15.41,    12.06,    15.54
      272.0,      15.27,    18.22,    15.37,    12.00,    15.48
      273.0,      15.21,    18.16,    15.33,    11.94,    15.42
      274.0,      15.16,    18.10,    15.29,    11.89,    15.35
      275.0,      15.10,    18.03,    15.25,    11.83,    15.29
      276.0,      15.05,    17.97,    15.22,    11.77,    15.23
      277.0,      14.99,    17.91,    15.18,    11.72,    15.17
      278.0,      14.94,    17.84,    15.14,    11.66,    15.10
      279.0,      14.88,    17.78,    15.10,    11.61,    15.04
      280.0,      14.83,    17.72,    15.06,    11.55,    14.98
      281.0,      14.78,    17.66,    15.02,    11.50,    14.92
      282.0,      14.72,    17.60,    14.99,    11.44,    14.86
      283.0,      14.67,    17.53,    14.95,    11.39,    14.80
      284.0,      14.61,    17.47,    14.91,    11.34,    14.74
      285.0,      14.56,    17.41,    14.87,    11.28,    14.68
      286.0,      14.51,    17.35,    14.84,    11.23,    14.62
      287.0,      14.46,    17.29,    14.80,    11.18,    14.56
      288.0,      14.40,    17.23,    14.76,    11.12,    14.50
      289.0,      14.35,    17.17,    14.73,    11.07,    14.44
      290.0,      14.30,    17.11,    14.69,    11.02,    14.38
      291.0,      14.25,    17.05,    14.66,    10.97,    14.32
      292.0,      14.20,    16.99,    14.62,    10.92,    14.26
      293.0,      14.15,    16.93,    14.58,    10.87,    14.21
      294.0,      14.10,    16.87,    14.55,    10.81,    14.15
      295.0,      14.05,    16.81,    14.51,    10.76,    14.09
      296.0,      13.99,    16.76,    14.48,    10.71,    14.03
      297.0,      13.94,    16.70,    14.45,    10.66,    13.97
      298.0,      13.89,    16.64,    14.41,    10.61,    13.92
      299.0,      13.85,    16.58,    14.38,    10.56,    13.86
      300.0,      13.80,    16.52,    14.34,    10.51,    13.80
      301.0,      13.75,    16.47,    14.31,    10.46,    13.75
      302.0,      13.70,    16.41,    14.28,    10.41,    13.69
      303.0,      13.65,    16.35,    14.24,    10.37,    13.64
      304.0,      13.60,    16.29,    14.21,    10.32,    13.58
      305.0,      13.55,    16.24,    14.18,    10.27,    13.52
      306.0,      13.50,    16.18,    14.14,    10.22,    13.47
      307.0,      13.46,    16.12,    14.11,    10.17,    13.41
      308.0,      13.41,    16.07,    14.08,    10.13,    13.36
      309.0,      13.36,    16.01,    14.05,    10.08,    13.30
      310.0,      13.31,    15.96,    14.01,    10.03,    13.25
