Radius (km), Mean (m/s), NE (m/s), SE (m/s), SW (m/s), NW (m/s)
        0.0,       0.00,     0.00,     0.00,     0.00,     0.00
        1.0,       2.06,     1.95,     1.95,     2.38,     1.95
        2.0,       3.77,     3.67,     3.67,     4.06,     3.67
        3.0,       5.38,     5.33,     5.33,     5.55,     5.33
        4.0,       6.93,     6.94,     6.94,     6.93,     6.94
        5.0,       8.44,     8.51,     8.51,     8.22,     8.51
        6.0,       9.91,    10.06,    10.06,     9.46,    10.06
        7.0,      11.35,    11.58,    11.58,    10.66,    11.58
        8.0,      12.77,    13.09,    13.09,    11.81,    13.09
        9.0,      14.17,    14.58,    14.58,    12.93,    14.58
       10.0,      15.55,    16.06,    16.06,    14.02,    16.06
       11.0,      16.92,    17.53,    17.53,    15.09,    17.53
       12.0,      18.28,    18.99,    18.98,    16.14,    19.00
       13.0,      19.66,    20.49,    20.44,    17.19,    20.50
       14.0,      21.10,    22.09,    21.93,    18.26,    22.11
       15.0,      22.66,    23.83,    23.51,    19.40,    23.89
       16.0,      24.38,    25.77,    25.25,    20.63,    25.86
       17.0,      26.27,    27.89,    27.19,    21.96,    28.03
       18.0,      28.29,    30.15,    29.30,    23.38,    30.35
       19.0,      30.39,    32.47,    31.53,    24.84,    32.71
       20.0,      32.45,    34.72,    33.80,    26.27,    35.01
       21.0,      34.36,    36.79,    35.96,    27.60,    37.11
       22.0,      36.03,    38.56,    37.90,    28.77,    38.89
       23.0,      37.35,    39.94,    39.49,    29.72,    40.26
       24.0,      38.28,    40.89,    40.64,    30.41,    41.18
       25.0,      38.80,    41.41,    41.33,    30.83,    41.63
       26.0,      38.94,    41.52,    41.55,    31.00,    41.68
       27.0,      38.75,    41.31,    41.35,    30.96,    41.38
       28.0,      38.32,    40.85,    40.83,    30.75,    40.83
       29.0,      37.73,    40.26,    40.08,    30.43,    40.14
       30.0,      37.06,    39.59,    39.21,    30.05,    39.38
       31.0,      36.38,    38.92,    38.31,    29.66,    38.61
       32.0,      35.71,    38.28,    37.42,    29.28,    37.88
       33.0,      35.09,    37.67,    36.59,    28.92,    37.18
       34.0,      34.50,    37.09,    35.82,    28.57,    36.51
       35.0,      33.93,    36.53,    35.09,    28.23,    35.86
       36.0,      33.38,    35.99,    34.39,    27.90,    35.22
       37.0,      32.84,    35.46,    33.72,    27.57,    34.61
       38.0,      32.32,    34.95,    33.07,    27.25,    34.01
       39.0,      31.81,    34.45,    32.44,    26.93,    33.43
       40.0,      31.32,    33.97,    31.84,    26.62,    32.86
       41.0,      30.84,    33.50,    31.25,    26.31,    32.31
       42.0,      30.38,    33.05,    30.69,    26.01,    31.77
       43.0,      29.93,    32.61,    30.15,    25.71,    31.25
       44.0,      29.49,    32.18,    29.62,    25.41,    30.74
       45.0,      29.06,    31.77,    29.12,    25.13,    30.24
       46.0,      28.65,    31.36,    28.63,    24.84,    29.76
       47.0,      28.25,    30.97,    28.16,    24.56,    29.29
       48.0,      27.85,    30.59,    27.70,    24.29,    28.84
       49.0,      27.47,    30.22,    27.26,    24.02,    28.39
       50.0,      27.10,    29.86,    26.84,    23.75,    27.96
       51.0,      26.74,    29.51,    26.43,    23.49,    27.54
       52.0,      26.39,    29.17,    26.03,    23.23,    27.13
       53.0,      26.05,    28.84,    25.65,    22.98,    26.73
       54.0,      25.72,    28.52,    25.28,    22.73,    26.34
       55.0,      25.39,    28.21,    24.92,    22.48,    25.96
       56.0,      25.08,    27.91,    24.58,    22.24,    25.60
       57.0,      24.77,    27.61,    24.24,    22.00,    25.24
       58.0,      24.48,    27.33,    23.92,    21.77,    24.89
       59.0,      24.19,    27.05,    23.61,    21.54,    24.55
       60.0,      23.90,    26.78,    23.31,    21.31,    24.22
       61.0,      23.63,    26.52,    23.02,    21.09,    23.90
       62.0,      23.36,    26.26,    22.73,    20.87,    23.58
       63.0,      23.10,    26.01,    22.46,    20.65,    23.28
       64.0,      22.85,    25.77,    22.20,    20.44,    22.98
       65.0,      22.60,    25.53,    21.94,    20.23,    22.69
       66.0,      22.36,    25.31,    21.69,    20.02,    22.41
       67.0,      22.12,    25.08,    21.45,    19.82,    22.13
       68.0,      21.89,    24.87,    21.22,    19.62,    21.87
       69.0,      21.67,    24.66,    20.99,    19.42,    21.61
       70.0,      21.45,    24.45,    20.78,    19.23,    21.35
       71.0,      21.24,    24.25,    20.57,    19.04,    21.11
       72.0,      21.03,    24.06,    20.36,    18.85,    20.86
       73.0,      20.83,    23.87,    20.16,    18.67,    20.63
       74.0,      20.64,    23.68,    19.97,    18.49,    20.40
       75.0,      20.44,    23.50,    19.78,    18.31,    20.18
       76.0,      20.26,    23.33,    19.60,    18.13,    19.96
       77.0,      20.07,    23.16,    19.43,    17.96,    19.75
       78.0,      19.90,    22.99,    19.26,    17.79,    19.55
       79.0,      19.72,    22.83,    19.09,    17.62,    19.35
       80.0,      19.55,    22.67,    18.93,    17.46,    19.15
       81.0,      19.39,    22.52,    18.77,    17.29,    18.96
       82.0,      19.23,    22.37,    18.62,    17.13,    18.78
       83.0,      19.07,    22.23,    18.47,    16.98,    18.59
       84.0,      18.91,    22.08,    18.33,    16.82,    18.42
       85.0,      18.76,    21.94,    18.19,    16.67,    18.25
       86.0,      18.62,    21.81,    18.06,    16.52,    18.08
       87.0,      18.47,    21.68,    17.92,    16.37,    17.92
       88.0,      18.33,    21.55,    17.80,    16.23,    17.76
       89.0,      18.19,    21.42,    17.67,    16.08,    17.60
       90.0,      18.06,    21.30,    17.55,    15.94,    17.45
       91.0,      17.93,    21.18,    17.43,    15.80,    17.31
       92.0,      17.80,    21.06,    17.31,    15.66,    17.16
       93.0,      17.68,    20.95,    17.20,    15.53,    17.02
       94.0,      17.55,    20.84,    17.09,    15.40,    16.89
       95.0,      17.43,    20.73,    16.98,    15.27,    16.75
       96.0,      17.32,    20.62,    16.88,    15.14,    16.62
       97.0,      17.20,    20.52,    16.78,    15.01,    16.50
       98.0,      17.09,    20.42,    16.68,    14.89,    16.37
       99.0,      16.98,    20.32,    16.58,    14.76,    16.25
      100.0,      16.87,    20.22,    16.49,    14.64,    16.14
      101.0,      16.77,    20.13,    16.39,    14.53,    16.02
      102.0,      16.66,    20.03,    16.30,    14.41,    15.91
      103.0,      16.56,    19.94,    16.22,    14.29,    15.80
      104.0,      16.46,    19.85,    16.13,    14.18,    15.69
      105.0,      16.37,    19.77,    16.04,    14.07,    15.59
      106.0,      16.27,    19.68,    15.96,    13.96,    15.49
      107.0,      16.18,    19.60,    15.88,    13.85,    15.39
      108.0,      16.09,    19.52,    15.80,    13.74,    15.29
      109.0,      16.00,    19.44,    15.72,    13.64,    15.20
      110.0,      15.91,    19.36,    15.65,    13.53,    15.11
      111.0,      15.83,    19.28,    15.57,    13.43,    15.02
      112.0,      15.74,    19.21,    15.50,    13.33,    14.93
      113.0,      15.66,    19.13,    15.43,    13.23,    14.84
      114.0,      15.58,    19.06,    15.36,    13.13,    14.76
      115.0,      15.50,    18.99,    15.29,    13.04,    14.68
      116.0,      15.42,    18.92,    15.22,    12.94,    14.60
      117.0,      15.34,    18.85,    15.15,    12.85,    14.52
      118.0,      15.27,    18.78,    15.09,    12.76,    14.45
      119.0,      15.20,    18.72,    15.02,    12.67,    14.37
      120.0,      15.12,    18.65,    14.96,    12.58,    14.30
      121.0,      15.05,    18.59,    14.90,    12.49,    14.23
      122.0,      14.98,    18.53,    14.83,    12.41,    14.16
      123.0,      14.91,    18.47,    14.77,    12.32,    14.09
      124.0,      14.85,    18.41,    14.71,    12.24,    14.02
      125.0,      14.78,    18.35,    14.66,    12.16,    13.96
      126.0,      14.71,    18.29,    14.60,    12.07,    13.90
      127.0,      14.65,    18.23,    14.54,    11.99,    13.83
      128.0,      14.59,    18.18,    14.49,    11.92,    13.77
      129.0,      14.53,    18.12,    14.43,    11.84,    13.71
      130.0,      14.47,    18.07,    14.38,    11.76,    13.66
      131.0,      14.41,    18.01,    14.32,    11.69,    13.60
      132.0,      14.35,    17.96,    14.27,    11.61,    13.54
      133.0,      14.29,    17.91,    14.22,    11.54,    13.49
      134.0,      14.23,    17.86,    14.17,    11.47,    13.44
      135.0,      14.18,    17.81,    14.12,    11.40,    13.38
      136.0,      14.12,    17.76,    14.07,    11.33,    13.33
      137.0,      14.07,    17.71,    14.02,    11.26,    13.28
      138.0,      14.01,    17.66,    13.97,    11.19,    13.23
      139.0,      13.96,    17.61,    13.92,    11.12,    13.19
      140.0,      13.91,    17.57,    13.87,    11.06,    13.14
      141.0,      13.86,    17.52,    13.82,    10.99,    13.09
      142.0,      13.81,    17.47,    13.78,    10.93,    13.05
      143.0,      13.76,    17.43,    13.73,    10.86,    13.00
      144.0,      13.71,    17.38,    13.68,    10.80,    12.96
      145.0,      13.66,    17.34,    13.64,    10.74,    12.92
      146.0,      13.61,    17.30,    13.59,    10.68,    12.88
      147.0,      13.56,    17.25,    13.55,    10.62,    12.83
      148.0,      13.52,    17.21,    13.51,    10.56,    12.79
      149.0,      13.47,    17.17,    13.46,    10.50,    12.76
      150.0,      13.43,    17.13,    13.42,    10.45,    12.72
      151.0,      13.38,    17.09,    13.38,    10.39,    12.68
      152.0,      13.34,    17.05,    13.33,    10.34,    12.64
      153.0,      13.30,    17.01,    13.29,    10.28,    12.61
      154.0,      13.25,    16.97,    13.25,    10.23,    12.57
      155.0,      13.21,    16.93,    13.21,    10.17,    12.53
      156.0,      13.17,    16.89,    13.17,    10.12,    12.50
      157.0,      13.13,    16.85,    13.13,    10.07,    12.47
      158.0,      13.09,    16.81,    13.09,    10.02,    12.43
      159.0,      13.05,    16.78,    13.05,     9.97,    12.40
      160.0,      13.01,    16.74,    13.01,     9.92,    12.37
      161.0,      12.97,    16.70,    12.97,     9.87,    12.34
      162.0,      12.93,    16.67,    12.93,     9.82,    12.31
      163.0,      12.89,    16.63,    12.89,     9.78,    12.28
      164.0,      12.85,    16.59,    12.85,     9.73,    12.25
      165.0,      12.82,    16.56,    12.81,     9.68,    12.22
      166.0,      12.78,    16.52,    12.77,     9.64,    12.19
      167.0,      12.74,    16.49,    12.74,     9.59,    12.16
      168.0,      12.71,    16.45,    12.70,     9.55,    12.13
      169.0,      12.67,    16.42,    12.66,     9.50,    12.10
      170.0,      12.64,    16.39,    12.62,     9.46,    12.08
      171.0,      12.60,    16.35,    12.59,     9.42,    12.05
      172.0,      12.57,    16.32,    12.55,     9.38,    12.02
      173.0,      12.53,    16.29,    12.51,     9.34,    12.00
      174.0,      12.50,    16.25,    12.48,     9.30,    11.97
      175.0,      12.47,    16.22,    12.44,     9.26,    11.95
      176.0,      12.43,    16.19,    12.41,     9.22,    11.92
      177.0,      12.40,    16.16,    12.37,     9.18,    11.90
      178.0,      12.37,    16.12,    12.33,     9.14,    11.87
      179.0,      12.33,    16.09,    12.30,     9.10,    11.85
      180.0,      12.30,    16.06,    12.26,     9.06,    11.82
      181.0,      12.27,    16.03,    12.23,     9.03,    11.80
      182.0,      12.24,    16.00,    12.19,     8.99,    11.78
      183.0,      12.21,    15.97,    12.16,     8.95,    11.76
      184.0,      12.18,    15.94,    12.12,     8.92,    11.73
      185.0,      12.15,    15.91,    12.09,     8.88,    11.71
      186.0,      12.12,    15.88,    12.06,     8.85,    11.69
      187.0,      12.09,    15.85,    12.02,     8.81,    11.67
      188.0,      12.06,    15.82,    11.99,     8.78,    11.65
      189.0,      12.03,    15.79,    11.96,     8.75,    11.63
      190.0,      12.00,    15.76,    11.92,     8.71,    11.61
      191.0,      11.97,    15.73,    11.89,     8.68,    11.59
      192.0,      11.94,    15.70,    11.86,     8.65,    11.57
      193.0,      11.91,    15.67,    11.82,     8.62,    11.55
      194.0,      11.89,    15.64,    11.79,     8.59,    11.53
      195.0,      11.86,    15.61,    11.76,     8.56,    11.51
      196.0,      11.83,    15.58,    11.72,     8.53,    11.49
      197.0,      11.80,    15.55,    11.69,     8.50,    11.47
      198.0,      11.77,    15.52,    11.66,     8.47,    11.45
      199.0,      11.75,    15.50,    11.63,     8.44,    11.43
      200.0,      11.72,    15.47,    11.59,     8.41,    11.41
      201.0,      11.69,    15.44,    11.56,     8.38,    11.39
      202.0,      11.67,    15.41,    11.53,     8.35,    11.38
      203.0,      11.64,    15.38,    11.50,     8.32,    11.36
      204.0,      11.62,    15.36,    11.47,     8.29,    11.34
      205.0,      11.59,    15.33,    11.44,     8.27,    11.32
      206.0,      11.56,    15.30,    11.40,     8.24,    11.31
      207.0,      11.54,    15.27,    11.37,     8.21,    11.29
      208.0,      11.51,    15.25,    11.34,     8.19,    11.27
      209.0,      11.49,    15.22,    11.31,     8.16,    11.25
      210.0,      11.46,    15.19,    11.28,     8.14,    11.24
      211.0,      11.44,    15.17,    11.25,     8.11,    11.22
      212.0,      11.41,    15.14,    11.22,     8.09,    11.20
      213.0,      11.39,    15.11,    11.19,     8.06,    11.19
      214.0,      11.36,    15.09,    11.16,     8.04,    11.17
      215.0,      11.34,    15.06,    11.13,     8.01,    11.16
      216.0,      11.32,    15.03,    11.10,     7.99,    11.14
      217.0,      11.29,    15.01,    11.07,     7.97,    11.12
      218.0,      11.27,    14.98,    11.04,     7.94,    11.11
      219.0,      11.24,    14.96,    11.01,     7.92,    11.09
      220.0,      11.22,    14.93,    10.98,     7.90,    11.08
      221.0,      11.20,    14.90,    10.95,     7.87,    11.06
      222.0,      11.17,    14.88,    10.92,     7.85,    11.05
      223.0,      11.15,    14.85,    10.89,     7.83,    11.03
      224.0,      11.13,    14.83,    10.86,     7.81,    11.02
      225.0,      11.10,    14.80,    10.83,     7.79,    11.00
      226.0,      11.08,    14.77,    10.80,     7.77,    10.99
      227.0,      11.06,    14.75,    10.77,     7.75,    10.97
      228.0,      11.04,    14.72,    10.74,     7.72,    10.96
      229.0,      11.01,    14.70,    10.71,     7.70,    10.94
      230.0,      10.99,    14.67,    10.68,     7.68,    10.93
      231.0,      10.97,    14.65,    10.65,     7.66,    10.92
      232.0,      10.95,    14.62,    10.63,     7.64,    10.90
      233.0,      10.93,    14.60,    10.60,     7.62,    10.89
      234.0,      10.90,    14.57,    10.57,     7.60,    10.87
      235.0,      10.88,    14.55,    10.54,     7.59,    10.86
      236.0,      10.86,    14.52,    10.51,     7.57,    10.84
      237.0,      10.84,    14.50,    10.48,     7.55,    10.83
      238.0,      10.82,    14.47,    10.46,     7.53,    10.82
      239.0,      10.80,    14.45,    10.43,     7.51,    10.80
      240.0,      10.78,    14.43,    10.40,     7.49,    10.79
      241.0,      10.76,    14.40,    10.37,     7.47,    10.78
      242.0,      10.73,    14.38,    10.34,     7.46,    10.76
      243.0,      10.71,    14.35,    10.32,     7.44,    10.75
      244.0,      10.69,    14.33,    10.29,     7.42,    10.74
      245.0,      10.67,    14.30,    10.26,     7.40,    10.72
      246.0,      10.65,    14.28,    10.23,     7.39,    10.71
      247.0,      10.63,    14.26,    10.21,     7.37,    10.70
      248.0,      10.61,    14.23,    10.18,     7.35,    10.68
      249.0,      10.59,    14.21,    10.15,     7.34,    10.67
      250.0,      10.57,    14.18,    10.12,     7.32,    10.66
      251.0,      10.55,    14.16,    10.10,     7.30,    10.64
      252.0,      10.53,    14.14,    10.07,     7.29,    10.63
      253.0,      10.51,    14.11,    10.04,     7.27,    10.62
      254.0,      10.49,    14.09,    10.01,     7.26,    10.61
      255.0,      10.47,    14.06,     9.99,     7.24,    10.59
      256.0,      10.45,    14.04,     9.96,     7.22,    10.58
      257.0,      10.43,    14.02,     9.93,     7.21,    10.57
      258.0,      10.41,    13.99,     9.91,     7.19,    10.56
      259.0,      10.39,    13.97,     9.88,     7.18,    10.54
      260.0,      10.37,    13.95,     9.85,     7.16,    10.53
      261.0,      10.36,    13.92,     9.83,     7.15,    10.52
      262.0,      10.34,    13.90,     9.80,     7.13,    10.51
      263.0,      10.32,    13.88,     9.78,     7.12,    10.49
      264.0,      10.30,    13.85,     9.75,     7.11,    10.48
      265.0,      10.28,    13.83,     9.72,     7.09,    10.47
      266.0,      10.26,    13.81,     9.70,     7.08,    10.46
      267.0,      10.24,    13.79,     9.67,     7.06,    10.44
      268.0,      10.22,    13.76,     9.65,     7.05,    10.43
      269.0,      10.20,    13.74,     9.62,     7.04,    10.42
      270.0,      10.19,    13.72,     9.59,     7.02,    10.41
      271.0,      10.17,    13.69,     9.57,     7.01,    10.40
      272.0,      10.15,    13.67,     9.54,     6.99,    10.38
      273.0,      10.13,    13.65,     9.52,     6.98,    10.37
      274.0,      10.11,    13.63,     9.49,     6.97,    10.36
      275.0,      10.09,    13.60,     9.47,     6.96,    10.35
      276.0,      10.08,    13.58,     9.44,     6.94,    10.34
      277.0,      10.06,    13.56,     9.42,     6.93,    10.32
      278.0,      10.04,    13.54,     9.39,     6.92,    10.31
      279.0,      10.02,    13.51,     9.37,     6.90,    10.30
      280.0,      10.00,    13.49,     9.34,     6.89,    10.29
      281.0,       9.99,    13.47,     9.32,     6.88,    10.28
      282.0,       9.97,    13.45,     9.29,     6.87,    10.27
      283.0,       9.95,    13.42,     9.27,     6.85,    10.25
      284.0,       9.93,    13.40,     9.24,     6.84,    10.24
      285.0,       9.91,    13.38,     9.22,     6.83,    10.23
      286.0,       9.90,    13.36,     9.19,     6.82,    10.22
      287.0,       9.88,    13.33,     9.17,     6.81,    10.21
      288.0,       9.86,    13.31,     9.14,     6.79,    10.20
      289.0,       9.84,    13.29,     9.12,     6.78,    10.19
      290.0,       9.83,    13.27,     9.09,     6.77,    10.17
      291.0,       9.81,    13.25,     9.07,     6.76,    10.16
      292.0,       9.79,    13.22,     9.05,     6.75,    10.15
      293.0,       9.78,    13.20,     9.02,     6.74,    10.14
      294.0,       9.76,    13.18,     9.00,     6.73,    10.13
      295.0,       9.74,    13.16,     8.97,     6.71,    10.12
      296.0,       9.72,    13.14,     8.95,     6.70,    10.11
      297.0,       9.71,    13.12,     8.92,     6.69,    10.09
      298.0,       9.69,    13.09,     8.90,     6.68,    10.08
      299.0,       9.67,    13.07,     8.88,     6.67,    10.07
      300.0,       9.66,    13.05,     8.85,     6.66,    10.06
      301.0,       9.64,    13.03,     8.83,     6.65,    10.05
      302.0,       9.62,    13.01,     8.81,     6.64,    10.04
      303.0,       9.61,    12.99,     8.78,     6.63,    10.03
      304.0,       9.59,    12.96,     8.76,     6.62,    10.02
      305.0,       9.57,    12.94,     8.74,     6.61,    10.01
      306.0,       9.56,    12.92,     8.71,     6.60,     9.99
      307.0,       9.54,    12.90,     8.69,     6.59,     9.98
      308.0,       9.52,    12.88,     8.67,     6.58,     9.97
      309.0,       9.51,    12.86,     8.64,     6.57,     9.96
      310.0,       9.49,    12.84,     8.62,     6.56,     9.95
