Radius (km), Mean (m/s), NE (m/s), SE (m/s), SW (m/s), NW (m/s)
        0.0,       0.00,     0.00,     0.00,     0.00,     0.00
        1.0,       2.19,     2.09,     2.09,     2.50,     2.09
        2.0,       3.95,     3.86,     3.86,     4.21,     3.86
        3.0,       5.58,     5.53,     5.53,     5.71,     5.53
        4.0,       7.12,     7.14,     7.14,     7.08,     7.14
        5.0,       8.62,     8.70,     8.70,     8.38,     8.70
        6.0,      10.07,    10.22,    10.22,     9.61,    10.22
        7.0,      11.48,    11.71,    11.71,    10.79,    11.71
        8.0,      12.87,    13.18,    13.18,    11.92,    13.18
        9.0,      14.23,    14.63,    14.63,    13.03,    14.63
       10.0,      15.57,    16.06,    16.06,    14.10,    16.06
       11.0,      16.90,    17.48,    17.48,    15.15,    17.48
       12.0,      18.21,    18.91,    18.88,    16.17,    18.89
       13.0,      19.55,    20.40,    20.30,    17.17,    20.33
       14.0,      20.95,    21.98,    21.78,    18.17,    21.86
       15.0,      22.45,    23.70,    23.37,    19.20,    23.52
       16.0,      24.07,    25.57,    25.10,    20.28,    25.34
       17.0,      25.83,    27.56,    26.98,    21.43,    27.32
       18.0,      27.68,    29.63,    28.99,    22.67,    29.42
       19.0,      29.57,    31.68,    31.05,    23.97,    31.55
       20.0,      31.41,    33.64,    33.08,    25.29,    33.62
       21.0,      33.12,    35.41,    34.98,    26.56,    35.52
       22.0,      34.61,    36.91,    36.65,    27.74,    37.15
       23.0,      35.82,    38.10,    38.00,    28.74,    38.44
       24.0,      36.71,    38.95,    38.99,    29.53,    39.35
       25.0,      37.26,    39.48,    39.62,    30.08,    39.87
       26.0,      37.51,    39.74,    39.89,    30.38,    40.04
       27.0,      37.50,    39.77,    39.87,    30.45,    39.93
       28.0,      37.30,    39.65,    39.62,    30.34,    39.60
       29.0,      36.98,    39.45,    39.23,    30.09,    39.15
       30.0,      36.59,    39.21,    38.76,    29.75,    38.64
       31.0,      36.18,    38.96,    38.27,    29.38,    38.11
       32.0,      35.78,    38.72,    37.80,    29.01,    37.61
       33.0,      35.40,    38.49,    37.35,    28.65,    37.12
       34.0,      35.04,    38.27,    36.92,    28.32,    36.66
       35.0,      34.69,    38.05,    36.49,    28.00,    36.20
       36.0,      34.34,    37.83,    36.08,    27.69,    35.75
       37.0,      34.00,    37.62,    35.67,    27.39,    35.31
       38.0,      33.66,    37.41,    35.26,    27.09,    34.88
       39.0,      33.33,    37.19,    34.86,    26.80,    34.46
       40.0,      33.00,    36.98,    34.47,    26.51,    34.04
       41.0,      32.68,    36.78,    34.08,    26.22,    33.63
       42.0,      32.36,    36.57,    33.70,    25.94,    33.23
       43.0,      32.05,    36.37,    33.33,    25.67,    32.83
       44.0,      31.74,    36.17,    32.96,    25.39,    32.45
       45.0,      31.44,    35.97,    32.60,    25.13,    32.06
       46.0,      31.14,    35.77,    32.24,    24.86,    31.69
       47.0,      30.85,    35.57,    31.88,    24.61,    31.32
       48.0,      30.56,    35.38,    31.53,    24.35,    30.96
       49.0,      30.27,    35.19,    31.19,    24.10,    30.61
       50.0,      29.99,    35.00,    30.85,    23.85,    30.26
       51.0,      29.71,    34.81,    30.52,    23.61,    29.92
       52.0,      29.44,    34.62,    30.19,    23.37,    29.58
       53.0,      29.17,    34.44,    29.87,    23.13,    29.25
       54.0,      28.91,    34.25,    29.55,    22.90,    28.93
       55.0,      28.65,    34.07,    29.23,    22.67,    28.61
       56.0,      28.39,    33.89,    28.92,    22.45,    28.30
       57.0,      28.14,    33.71,    28.62,    22.23,    27.99
       58.0,      27.89,    33.54,    28.32,    22.01,    27.69
       59.0,      27.64,    33.36,    28.02,    21.79,    27.40
       60.0,      27.40,    33.19,    27.73,    21.58,    27.11
       61.0,      27.16,    33.02,    27.44,    21.37,    26.82
       62.0,      26.93,    32.85,    27.16,    21.17,    26.54
       63.0,      26.70,    32.68,    26.88,    20.97,    26.26
       64.0,      26.47,    32.51,    26.61,    20.77,    25.99
       65.0,      26.25,    32.35,    26.34,    20.57,    25.73
       66.0,      26.02,    32.18,    26.07,    20.38,    25.47
       67.0,      25.81,    32.02,    25.80,    20.19,    25.21
       68.0,      25.59,    31.86,    25.55,    20.00,    24.96
       69.0,      25.38,    31.70,    25.29,    19.82,    24.71
       70.0,      25.17,    31.55,    25.04,    19.64,    24.47
       71.0,      24.97,    31.39,    24.79,    19.46,    24.23
       72.0,      24.76,    31.23,    24.55,    19.28,    23.99
       73.0,      24.56,    31.08,    24.30,    19.11,    23.76
       74.0,      24.37,    30.93,    24.07,    18.94,    23.54
       75.0,      24.17,    30.78,    23.83,    18.77,    23.31
       76.0,      23.98,    30.63,    23.60,    18.60,    23.10
       77.0,      23.79,    30.48,    23.37,    18.44,    22.88
       78.0,      23.61,    30.34,    23.15,    18.28,    22.67
       79.0,      23.43,    30.19,    22.93,    18.12,    22.46
       80.0,      23.25,    30.05,    22.71,    17.96,    22.26
       81.0,      23.07,    29.91,    22.50,    17.81,    22.06
       82.0,      22.89,    29.77,    22.29,    17.66,    21.86
       83.0,      22.72,    29.63,    22.08,    17.51,    21.67
       84.0,      22.55,    29.49,    21.87,    17.36,    21.48
       85.0,      22.38,    29.35,    21.67,    17.22,    21.29
       86.0,      22.22,    29.22,    21.47,    17.07,    21.11
       87.0,      22.05,    29.08,    21.27,    16.93,    20.93
       88.0,      21.89,    28.95,    21.08,    16.79,    20.75
       89.0,      21.74,    28.82,    20.89,    16.66,    20.58
       90.0,      21.58,    28.69,    20.70,    16.52,    20.41
       91.0,      21.43,    28.56,    20.52,    16.39,    20.24
       92.0,      21.27,    28.43,    20.33,    16.26,    20.07
       93.0,      21.12,    28.30,    20.15,    16.13,    19.91
       94.0,      20.98,    28.17,    19.98,    16.00,    19.75
       95.0,      20.83,    28.05,    19.80,    15.88,    19.59
       96.0,      20.69,    27.93,    19.63,    15.75,    19.44
       97.0,      20.55,    27.80,    19.46,    15.63,    19.29
       98.0,      20.41,    27.68,    19.29,    15.51,    19.14
       99.0,      20.27,    27.56,    19.13,    15.39,    18.99
      100.0,      20.13,    27.44,    18.96,    15.28,    18.85
      101.0,      20.00,    27.32,    18.80,    15.16,    18.71
      102.0,      19.87,    27.21,    18.64,    15.05,    18.57
      103.0,      19.74,    27.09,    18.49,    14.93,    18.43
      104.0,      19.61,    26.97,    18.33,    14.82,    18.30
      105.0,      19.48,    26.86,    18.18,    14.72,    18.17
      106.0,      19.36,    26.75,    18.03,    14.61,    18.04
      107.0,      19.23,    26.64,    17.89,    14.50,    17.91
      108.0,      19.11,    26.52,    17.74,    14.40,    17.78
      109.0,      18.99,    26.41,    17.60,    14.29,    17.66
      110.0,      18.87,    26.31,    17.46,    14.19,    17.54
      111.0,      18.76,    26.20,    17.32,    14.09,    17.42
      112.0,      18.64,    26.09,    17.18,    13.99,    17.30
      113.0,      18.53,    25.98,    17.05,    13.90,    17.19
      114.0,      18.42,    25.88,    16.91,    13.80,    17.07
      115.0,      18.31,    25.77,    16.78,    13.70,    16.96
      116.0,      18.20,    25.67,    16.65,    13.61,    16.85
      117.0,      18.09,    25.57,    16.52,    13.52,    16.75
      118.0,      17.98,    25.47,    16.40,    13.43,    16.64
      119.0,      17.88,    25.37,    16.28,    13.34,    16.54
      120.0,      17.78,    25.27,    16.15,    13.25,    16.43
      121.0,      17.67,    25.17,    16.03,    13.16,    16.33
      122.0,      17.57,    25.07,    15.91,    13.07,    16.23
      123.0,      17.47,    24.97,    15.80,    12.99,    16.14
      124.0,      17.38,    24.88,    15.68,    12.90,    16.04
      125.0,      17.28,    24.78,    15.57,    12.82,    15.94
      126.0,      17.18,    24.69,    15.45,    12.74,    15.85
      127.0,      17.09,    24.59,    15.34,    12.66,    15.76
      128.0,      17.00,    24.50,    15.23,    12.58,    15.67
      129.0,      16.90,    24.41,    15.13,    12.50,    15.58
      130.0,      16.81,    24.32,    15.02,    12.42,    15.50
      131.0,      16.72,    24.23,    14.92,    12.35,    15.41
      132.0,      16.64,    24.14,    14.81,    12.27,    15.33
      133.0,      16.55,    24.05,    14.71,    12.19,    15.24
      134.0,      16.46,    23.96,    14.61,    12.12,    15.16
      135.0,      16.38,    23.87,    14.51,    12.05,    15.08
      136.0,      16.29,    23.78,    14.41,    11.98,    15.00
      137.0,      16.21,    23.70,    14.32,    11.90,    14.93
      138.0,      16.13,    23.61,    14.22,    11.83,    14.85
      139.0,      16.05,    23.53,    14.13,    11.76,    14.77
      140.0,      15.97,    23.44,    14.04,    11.70,    14.70
      141.0,      15.89,    23.36,    13.94,    11.63,    14.63
      142.0,      15.81,    23.28,    13.86,    11.56,    14.56
      143.0,      15.74,    23.20,    13.77,    11.49,    14.48
      144.0,      15.66,    23.12,    13.68,    11.43,    14.42
      145.0,      15.59,    23.04,    13.59,    11.36,    14.35
      146.0,      15.51,    22.96,    13.51,    11.30,    14.28
      147.0,      15.44,    22.88,    13.42,    11.24,    14.21
      148.0,      15.37,    22.80,    13.34,    11.18,    14.15
      149.0,      15.29,    22.72,    13.26,    11.11,    14.08
      150.0,      15.22,    22.64,    13.18,    11.05,    14.02
      151.0,      15.15,    22.57,    13.10,    10.99,    13.96
      152.0,      15.09,    22.49,    13.02,    10.93,    13.90
      153.0,      15.02,    22.42,    12.94,    10.88,    13.84
      154.0,      14.95,    22.34,    12.87,    10.82,    13.78
      155.0,      14.89,    22.27,    12.79,    10.76,    13.72
      156.0,      14.82,    22.20,    12.72,    10.70,    13.66
      157.0,      14.76,    22.12,    12.65,    10.65,    13.60
      158.0,      14.69,    22.05,    12.57,    10.59,    13.55
      159.0,      14.63,    21.98,    12.50,    10.54,    13.49
      160.0,      14.57,    21.91,    12.43,    10.48,    13.44
      161.0,      14.50,    21.84,    12.36,    10.43,    13.39
      162.0,      14.44,    21.77,    12.29,    10.38,    13.33
      163.0,      14.38,    21.70,    12.23,    10.32,    13.28
      164.0,      14.32,    21.63,    12.16,    10.27,    13.23
      165.0,      14.26,    21.56,    12.09,    10.22,    13.18
      166.0,      14.21,    21.50,    12.03,    10.17,    13.13
      167.0,      14.15,    21.43,    11.97,    10.12,    13.08
      168.0,      14.09,    21.36,    11.90,    10.07,    13.03
      169.0,      14.04,    21.30,    11.84,    10.02,    12.99
      170.0,      13.98,    21.23,    11.78,     9.97,    12.94
      171.0,      13.93,    21.17,    11.72,     9.93,    12.89
      172.0,      13.87,    21.10,    11.66,     9.88,    12.85
      173.0,      13.82,    21.04,    11.60,     9.83,    12.80
      174.0,      13.77,    20.98,    11.54,     9.79,    12.76
      175.0,      13.71,    20.91,    11.48,     9.74,    12.71
      176.0,      13.66,    20.85,    11.43,     9.69,    12.67
      177.0,      13.61,    20.79,    11.37,     9.65,    12.63
      178.0,      13.56,    20.73,    11.32,     9.60,    12.59
      179.0,      13.51,    20.67,    11.26,     9.56,    12.55
      180.0,      13.46,    20.61,    11.21,     9.52,    12.51
      181.0,      13.41,    20.55,    11.15,     9.47,    12.47
      182.0,      13.36,    20.49,    11.10,     9.43,    12.43
      183.0,      13.31,    20.43,    11.05,     9.39,    12.39
      184.0,      13.27,    20.37,    11.00,     9.35,    12.35
      185.0,      13.22,    20.31,    10.95,     9.31,    12.31
      186.0,      13.17,    20.25,    10.90,     9.26,    12.27
      187.0,      13.13,    20.20,    10.85,     9.22,    12.24
      188.0,      13.08,    20.14,    10.80,     9.18,    12.20
      189.0,      13.04,    20.08,    10.75,     9.14,    12.16
      190.0,      12.99,    20.03,    10.70,     9.10,    12.13
      191.0,      12.95,    19.97,    10.66,     9.07,    12.09
      192.0,      12.90,    19.92,    10.61,     9.03,    12.06
      193.0,      12.86,    19.86,    10.57,     8.99,    12.03
      194.0,      12.82,    19.81,    10.52,     8.95,    11.99
      195.0,      12.78,    19.76,    10.48,     8.91,    11.96
      196.0,      12.73,    19.70,    10.43,     8.88,    11.93
      197.0,      12.69,    19.65,    10.39,     8.84,    11.89
      198.0,      12.65,    19.60,    10.35,     8.80,    11.86
      199.0,      12.61,    19.55,    10.30,     8.77,    11.83
      200.0,      12.57,    19.49,    10.26,     8.73,    11.80
      201.0,      12.53,    19.44,    10.22,     8.69,    11.77
      202.0,      12.49,    19.39,    10.18,     8.66,    11.74
      203.0,      12.45,    19.34,    10.14,     8.62,    11.71
      204.0,      12.42,    19.29,    10.10,     8.59,    11.68
      205.0,      12.38,    19.24,    10.06,     8.56,    11.65
      206.0,      12.34,    19.19,    10.02,     8.52,    11.62
      207.0,      12.30,    19.14,     9.98,     8.49,    11.59
      208.0,      12.26,    19.09,     9.95,     8.45,    11.56
      209.0,      12.23,    19.05,     9.91,     8.42,    11.53
      210.0,      12.19,    19.00,     9.87,     8.39,    11.51
      211.0,      12.16,    18.95,     9.84,     8.36,    11.48
      212.0,      12.12,    18.90,     9.80,     8.32,    11.45
      213.0,      12.08,    18.86,     9.76,     8.29,    11.43
      214.0,      12.05,    18.81,     9.73,     8.26,    11.40
      215.0,      12.02,    18.76,     9.69,     8.23,    11.37
      216.0,      11.98,    18.72,     9.66,     8.20,    11.35
      217.0,      11.95,    18.67,     9.63,     8.17,    11.32
      218.0,      11.91,    18.63,     9.59,     8.14,    11.30
      219.0,      11.88,    18.58,     9.56,     8.11,    11.27
      220.0,      11.85,    18.54,     9.53,     8.08,    11.25
      221.0,      11.81,    18.49,     9.49,     8.05,    11.22
      222.0,      11.78,    18.45,     9.46,     8.02,    11.20
      223.0,      11.75,    18.41,     9.43,     7.99,    11.18
      224.0,      11.72,    18.36,     9.40,     7.96,    11.15
      225.0,      11.69,    18.32,     9.37,     7.93,    11.13
      226.0,      11.66,    18.28,     9.34,     7.90,    11.11
      227.0,      11.62,    18.23,     9.31,     7.87,    11.08
      228.0,      11.59,    18.19,     9.28,     7.84,    11.06
      229.0,      11.56,    18.15,     9.25,     7.81,    11.04
      230.0,      11.53,    18.11,     9.22,     7.79,    11.02
      231.0,      11.50,    18.07,     9.19,     7.76,    10.99
      232.0,      11.47,    18.03,     9.16,     7.73,    10.97
      233.0,      11.44,    17.99,     9.13,     7.70,    10.95
      234.0,      11.41,    17.95,     9.11,     7.68,    10.93
      235.0,      11.39,    17.91,     9.08,     7.65,    10.91
      236.0,      11.36,    17.87,     9.05,     7.62,    10.89
      237.0,      11.33,    17.83,     9.02,     7.60,    10.87
      238.0,      11.30,    17.79,     9.00,     7.57,    10.85
      239.0,      11.27,    17.75,     8.97,     7.54,    10.83
      240.0,      11.24,    17.71,     8.94,     7.52,    10.81
      241.0,      11.22,    17.67,     8.92,     7.49,    10.79
      242.0,      11.19,    17.63,     8.89,     7.47,    10.77
      243.0,      11.16,    17.59,     8.87,     7.44,    10.75
      244.0,      11.14,    17.56,     8.84,     7.42,    10.73
      245.0,      11.11,    17.52,     8.82,     7.39,    10.71
      246.0,      11.08,    17.48,     8.79,     7.37,    10.69
      247.0,      11.06,    17.44,     8.77,     7.34,    10.67
      248.0,      11.03,    17.41,     8.75,     7.32,    10.65
      249.0,      11.01,    17.37,     8.72,     7.29,    10.64
      250.0,      10.98,    17.33,     8.70,     7.27,    10.62
      251.0,      10.95,    17.30,     8.68,     7.24,    10.60
      252.0,      10.93,    17.26,     8.65,     7.22,    10.58
      253.0,      10.90,    17.23,     8.63,     7.20,    10.56
      254.0,      10.88,    17.19,     8.61,     7.17,    10.55
      255.0,      10.85,    17.16,     8.58,     7.15,    10.53
      256.0,      10.83,    17.12,     8.56,     7.13,    10.51
      257.0,      10.81,    17.09,     8.54,     7.10,    10.49
      258.0,      10.78,    17.05,     8.52,     7.08,    10.48
      259.0,      10.76,    17.02,     8.50,     7.06,    10.46
      260.0,      10.73,    16.98,     8.48,     7.04,    10.44
      261.0,      10.71,    16.95,     8.46,     7.01,    10.43
      262.0,      10.69,    16.92,     8.44,     6.99,    10.41
      263.0,      10.66,    16.88,     8.41,     6.97,    10.39
      264.0,      10.64,    16.85,     8.39,     6.95,    10.38
      265.0,      10.62,    16.82,     8.37,     6.92,    10.36
      266.0,      10.60,    16.78,     8.35,     6.90,    10.35
      267.0,      10.57,    16.75,     8.33,     6.88,    10.33
      268.0,      10.55,    16.72,     8.32,     6.86,    10.31
      269.0,      10.53,    16.69,     8.30,     6.84,    10.30
      270.0,      10.51,    16.65,     8.28,     6.82,    10.28
      271.0,      10.49,    16.62,     8.26,     6.79,    10.27
      272.0,      10.46,    16.59,     8.24,     6.77,    10.25
      273.0,      10.44,    16.56,     8.22,     6.75,    10.24
      274.0,      10.42,    16.53,     8.20,     6.73,    10.22
      275.0,      10.40,    16.50,     8.18,     6.71,    10.21
      276.0,      10.38,    16.46,     8.17,     6.69,    10.19
      277.0,      10.36,    16.43,     8.15,     6.67,    10.18
      278.0,      10.34,    16.40,     8.13,     6.65,    10.16
      279.0,      10.32,    16.37,     8.11,     6.63,    10.15
      280.0,      10.29,    16.34,     8.09,     6.61,    10.13
      281.0,      10.27,    16.31,     8.08,     6.59,    10.12
      282.0,      10.25,    16.28,     8.06,     6.57,    10.10
      283.0,      10.23,    16.25,     8.04,     6.55,    10.09
      284.0,      10.21,    16.22,     8.03,     6.53,    10.08
      285.0,      10.19,    16.19,     8.01,     6.51,    10.06
      286.0,      10.17,    16.16,     7.99,     6.49,    10.05
      287.0,      10.15,    16.14,     7.98,     6.47,    10.03
      288.0,      10.13,    16.11,     7.96,     6.45,    10.02
      289.0,      10.12,    16.08,     7.94,     6.43,    10.01
      290.0,      10.10,    16.05,     7.93,     6.41,     9.99
      291.0,      10.08,    16.02,     7.91,     6.39,     9.98
      292.0,      10.06,    15.99,     7.90,     6.37,     9.97
      293.0,      10.04,    15.96,     7.88,     6.36,     9.95
      294.0,      10.02,    15.94,     7.87,     6.34,     9.94
      295.0,      10.00,    15.91,     7.85,     6.32,     9.93
      296.0,       9.98,    15.88,     7.84,     6.30,     9.91
      297.0,       9.96,    15.85,     7.82,     6.28,     9.90
      298.0,       9.95,    15.83,     7.81,     6.26,     9.89
      299.0,       9.93,    15.80,     7.79,     6.24,     9.87
      300.0,       9.91,    15.77,     7.78,     6.23,     9.86
      301.0,       9.89,    15.75,     7.76,     6.21,     9.85
      302.0,       9.87,    15.72,     7.75,     6.19,     9.84
      303.0,       9.86,    15.69,     7.73,     6.17,     9.82
      304.0,       9.84,    15.67,     7.72,     6.15,     9.81
      305.0,       9.82,    15.64,     7.70,     6.14,     9.80
      306.0,       9.80,    15.61,     7.69,     6.12,     9.79
      307.0,       9.78,    15.59,     7.68,     6.10,     9.77
      308.0,       9.77,    15.56,     7.66,     6.08,     9.76
      309.0,       9.75,    15.54,     7.65,     6.07,     9.75
      310.0,       9.73,    15.51,     7.64,     6.05,     9.74
