Radius (km), Mean (m/s), NE (m/s), SE (m/s), SW (m/s), NW (m/s)
        0.0,       0.00,     0.00,     0.00,     0.00,     0.00
        1.0,       1.67,     1.43,     1.60,     1.79,     1.84
        2.0,       3.39,     3.07,     3.31,     3.55,     3.61
        3.0,       5.13,     4.80,     5.06,     5.30,     5.36
        4.0,       6.89,     6.58,     6.83,     7.05,     7.09
        5.0,       8.66,     8.42,     8.63,     8.78,     8.82
        6.0,      10.44,    10.29,    10.44,    10.52,    10.53
        7.0,      12.24,    12.20,    12.26,    12.25,    12.23
        8.0,      14.03,    14.13,    14.10,    13.97,    13.93
        9.0,      15.84,    16.09,    15.94,    15.70,    15.62
       10.0,      17.65,    18.07,    17.80,    17.42,    17.31
       11.0,      19.47,    20.08,    19.66,    19.14,    18.99
       12.0,      21.30,    22.12,    21.55,    20.86,    20.67
       13.0,      23.18,    24.27,    23.49,    22.59,    22.37
       14.0,      25.18,    26.62,    25.56,    24.39,    24.13
       15.0,      27.35,    29.25,    27.82,    26.31,    26.02
       16.0,      29.76,    32.22,    30.32,    28.44,    28.09
       17.0,      32.42,    35.50,    33.05,    30.79,    30.36
       18.0,      35.28,    39.02,    35.95,    33.35,    32.81
       19.0,      38.25,    42.63,    38.94,    36.05,    35.38
       20.0,      41.18,    46.14,    41.87,    38.78,    37.94
       21.0,      43.93,    49.36,    44.61,    41.38,    40.38
       22.0,      46.34,    52.10,    47.01,    43.71,    42.56
       23.0,      48.30,    54.23,    48.97,    45.63,    44.37
       24.0,      49.72,    55.68,    50.43,    47.05,    45.73
       25.0,      50.59,    56.46,    51.38,    47.93,    46.61
       26.0,      50.94,    56.61,    51.85,    48.28,    47.02
       27.0,      50.84,    56.26,    51.92,    48.16,    47.03
       28.0,      50.41,    55.55,    51.70,    47.67,    46.72
       29.0,      49.76,    54.63,    51.29,    46.92,    46.19
       30.0,      49.00,    53.61,    50.79,    46.04,    45.55
       31.0,      48.21,    52.59,    50.26,    45.12,    44.87
       32.0,      47.45,    51.61,    49.75,    44.23,    44.21
       33.0,      46.73,    50.68,    49.27,    43.38,    43.59
       34.0,      46.05,    49.80,    48.81,    42.59,    43.00
       35.0,      45.39,    48.94,    48.36,    41.83,    42.43
       36.0,      44.75,    48.10,    47.91,    41.10,    41.88
       37.0,      44.13,    47.30,    47.47,    40.39,    41.35
       38.0,      43.52,    46.51,    47.03,    39.70,    40.82
       39.0,      42.92,    45.75,    46.61,    39.04,    40.30
       40.0,      42.34,    45.01,    46.18,    38.39,    39.80
       41.0,      41.78,    44.29,    45.76,    37.76,    39.31
       42.0,      41.23,    43.59,    45.35,    37.14,    38.83
       43.0,      40.69,    42.91,    44.95,    36.55,    38.36
       44.0,      40.17,    42.25,    44.54,    35.97,    37.90
       45.0,      39.65,    41.61,    44.15,    35.41,    37.45
       46.0,      39.15,    40.98,    43.76,    34.86,    37.01
       47.0,      38.67,    40.38,    43.37,    34.33,    36.58
       48.0,      38.19,    39.79,    42.99,    33.82,    36.16
       49.0,      37.73,    39.22,    42.62,    33.32,    35.75
       50.0,      37.27,    38.66,    42.24,    32.83,    35.35
       51.0,      36.83,    38.12,    41.88,    32.36,    34.96
       52.0,      36.40,    37.60,    41.52,    31.90,    34.57
       53.0,      35.97,    37.09,    41.16,    31.45,    34.19
       54.0,      35.56,    36.59,    40.81,    31.02,    33.83
       55.0,      35.16,    36.11,    40.46,    30.60,    33.47
       56.0,      34.77,    35.65,    40.12,    30.19,    33.11
       57.0,      34.38,    35.19,    39.78,    29.79,    32.77
       58.0,      34.01,    34.75,    39.45,    29.40,    32.43
       59.0,      33.64,    34.32,    39.12,    29.02,    32.10
       60.0,      33.28,    33.90,    38.80,    28.66,    31.78
       61.0,      32.93,    33.50,    38.48,    28.30,    31.46
       62.0,      32.59,    33.10,    38.16,    27.95,    31.15
       63.0,      32.26,    32.72,    37.85,    27.62,    30.85
       64.0,      31.93,    32.34,    37.54,    27.29,    30.55
       65.0,      31.61,    31.98,    37.23,    26.97,    30.26
       66.0,      31.30,    31.63,    36.93,    26.66,    29.97
       67.0,      30.99,    31.28,    36.64,    26.35,    29.69
       68.0,      30.69,    30.95,    36.35,    26.06,    29.42
       69.0,      30.40,    30.63,    36.06,    25.77,    29.15
       70.0,      30.12,    30.31,    35.77,    25.49,    28.89
       71.0,      29.84,    30.00,    35.49,    25.22,    28.63
       72.0,      29.56,    29.70,    35.21,    24.96,    28.38
       73.0,      29.30,    29.41,    34.94,    24.70,    28.14
       74.0,      29.03,    29.13,    34.67,    24.45,    27.89
       75.0,      28.78,    28.85,    34.40,    24.20,    27.66
       76.0,      28.53,    28.58,    34.14,    23.97,    27.43
       77.0,      28.28,    28.32,    33.88,    23.73,    27.20
       78.0,      28.04,    28.07,    33.62,    23.51,    26.98
       79.0,      27.81,    27.82,    33.37,    23.29,    26.76
       80.0,      27.58,    27.58,    33.12,    23.07,    26.54
       81.0,      27.35,    27.35,    32.87,    22.86,    26.33
       82.0,      27.13,    27.12,    32.63,    22.66,    26.13
       83.0,      26.92,    26.90,    32.39,    22.46,    25.92
       84.0,      26.70,    26.68,    32.15,    22.26,    25.73
       85.0,      26.50,    26.47,    31.91,    22.07,    25.53
       86.0,      26.29,    26.26,    31.68,    21.89,    25.34
       87.0,      26.09,    26.06,    31.45,    21.71,    25.15
       88.0,      25.90,    25.87,    31.23,    21.53,    24.97
       89.0,      25.71,    25.68,    31.00,    21.36,    24.79
       90.0,      25.52,    25.49,    30.78,    21.19,    24.61
       91.0,      25.34,    25.31,    30.57,    21.03,    24.44
       92.0,      25.16,    25.13,    30.35,    20.87,    24.27
       93.0,      24.98,    24.96,    30.14,    20.71,    24.10
       94.0,      24.81,    24.80,    29.93,    20.56,    23.94
       95.0,      24.64,    24.63,    29.72,    20.41,    23.78
       96.0,      24.47,    24.47,    29.52,    20.27,    23.62
       97.0,      24.31,    24.32,    29.32,    20.12,    23.46
       98.0,      24.14,    24.17,    29.12,    19.98,    23.31
       99.0,      23.99,    24.02,    28.92,    19.85,    23.16
      100.0,      23.83,    23.87,    28.73,    19.71,    23.01
      101.0,      23.68,    23.73,    28.53,    19.58,    22.87
      102.0,      23.53,    23.60,    28.35,    19.46,    22.73
      103.0,      23.39,    23.46,    28.16,    19.33,    22.59
      104.0,      23.24,    23.33,    27.97,    19.21,    22.45
      105.0,      23.10,    23.20,    27.79,    19.09,    22.32
      106.0,      22.96,    23.08,    27.61,    18.97,    22.18
      107.0,      22.83,    22.96,    27.43,    18.86,    22.05
      108.0,      22.69,    22.84,    27.26,    18.75,    21.92
      109.0,      22.56,    22.72,    27.08,    18.64,    21.80
      110.0,      22.43,    22.61,    26.91,    18.53,    21.67
      111.0,      22.30,    22.50,    26.74,    18.42,    21.55
      112.0,      22.18,    22.39,    26.58,    18.32,    21.43
      113.0,      22.06,    22.28,    26.41,    18.22,    21.31
      114.0,      21.94,    22.18,    26.25,    18.12,    21.20
      115.0,      21.82,    22.08,    26.09,    18.02,    21.08
      116.0,      21.70,    21.98,    25.93,    17.93,    20.97
      117.0,      21.59,    21.88,    25.77,    17.83,    20.86
      118.0,      21.47,    21.79,    25.61,    17.74,    20.75
      119.0,      21.36,    21.69,    25.46,    17.65,    20.64
      120.0,      21.25,    21.60,    25.31,    17.56,    20.54
      121.0,      21.15,    21.51,    25.16,    17.48,    20.43
      122.0,      21.04,    21.43,    25.01,    17.39,    20.33
      123.0,      20.94,    21.34,    24.87,    17.31,    20.23
      124.0,      20.83,    21.26,    24.72,    17.22,    20.13
      125.0,      20.73,    21.18,    24.58,    17.14,    20.03
      126.0,      20.63,    21.10,    24.44,    17.06,    19.93
      127.0,      20.53,    21.02,    24.30,    16.99,    19.84
      128.0,      20.44,    20.94,    24.16,    16.91,    19.74
      129.0,      20.34,    20.86,    24.02,    16.83,    19.65
      130.0,      20.25,    20.79,    23.89,    16.76,    19.56
      131.0,      20.16,    20.72,    23.76,    16.69,    19.47
      132.0,      20.07,    20.65,    23.63,    16.61,    19.38
      133.0,      19.98,    20.58,    23.50,    16.54,    19.29
      134.0,      19.89,    20.51,    23.37,    16.47,    19.20
      135.0,      19.80,    20.44,    23.24,    16.40,    19.12
      136.0,      19.71,    20.37,    23.12,    16.34,    19.03
      137.0,      19.63,    20.31,    22.99,    16.27,    18.95
      138.0,      19.55,    20.25,    22.87,    16.20,    18.87
      139.0,      19.46,    20.18,    22.75,    16.14,    18.79
      140.0,      19.38,    20.12,    22.63,    16.07,    18.71
      141.0,      19.30,    20.06,    22.51,    16.01,    18.63
      142.0,      19.22,    20.00,    22.39,    15.95,    18.55
      143.0,      19.15,    19.94,    22.28,    15.89,    18.47
      144.0,      19.07,    19.88,    22.17,    15.83,    18.40
      145.0,      18.99,    19.83,    22.05,    15.77,    18.32
      146.0,      18.92,    19.77,    21.94,    15.71,    18.25
      147.0,      18.84,    19.72,    21.83,    15.65,    18.17
      148.0,      18.77,    19.66,    21.72,    15.59,    18.10
      149.0,      18.70,    19.61,    21.61,    15.53,    18.03
      150.0,      18.63,    19.56,    21.51,    15.48,    17.96
      151.0,      18.56,    19.51,    21.40,    15.42,    17.89
      152.0,      18.49,    19.46,    21.30,    15.37,    17.82
      153.0,      18.42,    19.41,    21.20,    15.31,    17.75
      154.0,      18.35,    19.36,    21.09,    15.26,    17.68
      155.0,      18.28,    19.31,    20.99,    15.21,    17.61
      156.0,      18.21,    19.26,    20.89,    15.16,    17.55
      157.0,      18.15,    19.21,    20.80,    15.10,    17.48
      158.0,      18.08,    19.17,    20.70,    15.05,    17.42
      159.0,      18.02,    19.12,    20.60,    15.00,    17.35
      160.0,      17.96,    19.08,    20.51,    14.95,    17.29
      161.0,      17.89,    19.03,    20.41,    14.90,    17.23
      162.0,      17.83,    18.99,    20.32,    14.85,    17.16
      163.0,      17.77,    18.94,    20.23,    14.81,    17.10
      164.0,      17.71,    18.90,    20.14,    14.76,    17.04
      165.0,      17.65,    18.86,    20.05,    14.71,    16.98
      166.0,      17.59,    18.82,    19.96,    14.66,    16.92
      167.0,      17.53,    18.77,    19.87,    14.62,    16.86
      168.0,      17.47,    18.73,    19.78,    14.57,    16.80
      169.0,      17.41,    18.69,    19.70,    14.52,    16.74
      170.0,      17.36,    18.65,    19.61,    14.48,    16.69
      171.0,      17.30,    18.61,    19.53,    14.43,    16.63
      172.0,      17.24,    18.57,    19.44,    14.39,    16.57
      173.0,      17.19,    18.54,    19.36,    14.34,    16.51
      174.0,      17.13,    18.50,    19.28,    14.30,    16.46
      175.0,      17.08,    18.46,    19.20,    14.26,    16.40
      176.0,      17.03,    18.42,    19.12,    14.21,    16.35
      177.0,      16.97,    18.38,    19.04,    14.17,    16.29
      178.0,      16.92,    18.35,    18.96,    14.13,    16.24
      179.0,      16.87,    18.31,    18.88,    14.09,    16.19
      180.0,      16.81,    18.28,    18.81,    14.04,    16.13
      181.0,      16.76,    18.24,    18.73,    14.00,    16.08
      182.0,      16.71,    18.20,    18.66,    13.96,    16.03
      183.0,      16.66,    18.17,    18.58,    13.92,    15.98
      184.0,      16.61,    18.13,    18.51,    13.88,    15.93
      185.0,      16.56,    18.10,    18.44,    13.84,    15.87
      186.0,      16.51,    18.07,    18.36,    13.80,    15.82
      187.0,      16.46,    18.03,    18.29,    13.76,    15.77
      188.0,      16.42,    18.00,    18.22,    13.72,    15.72
      189.0,      16.37,    17.97,    18.15,    13.68,    15.67
      190.0,      16.32,    17.93,    18.08,    13.64,    15.62
      191.0,      16.27,    17.90,    18.01,    13.60,    15.58
      192.0,      16.23,    17.87,    17.95,    13.56,    15.53
      193.0,      16.18,    17.84,    17.88,    13.53,    15.48
      194.0,      16.13,    17.80,    17.81,    13.49,    15.43
      195.0,      16.09,    17.77,    17.75,    13.45,    15.38
      196.0,      16.04,    17.74,    17.68,    13.41,    15.34
      197.0,      16.00,    17.71,    17.62,    13.38,    15.29
      198.0,      15.95,    17.68,    17.55,    13.34,    15.24
      199.0,      15.91,    17.65,    17.49,    13.30,    15.20
      200.0,      15.86,    17.62,    17.43,    13.26,    15.15
      201.0,      15.82,    17.59,    17.37,    13.23,    15.11
      202.0,      15.78,    17.56,    17.30,    13.19,    15.06
      203.0,      15.73,    17.52,    17.24,    13.16,    15.02
      204.0,      15.69,    17.50,    17.18,    13.12,    14.97
      205.0,      15.65,    17.47,    17.12,    13.08,    14.93
      206.0,      15.61,    17.44,    17.07,    13.05,    14.88
      207.0,      15.57,    17.41,    17.01,    13.01,    14.84
      208.0,      15.52,    17.38,    16.95,    12.98,    14.79
      209.0,      15.48,    17.35,    16.89,    12.94,    14.75
      210.0,      15.44,    17.32,    16.83,    12.91,    14.71
      211.0,      15.40,    17.29,    16.78,    12.87,    14.67
      212.0,      15.36,    17.26,    16.72,    12.84,    14.62
      213.0,      15.32,    17.23,    16.67,    12.80,    14.58
      214.0,      15.28,    17.21,    16.61,    12.77,    14.54
      215.0,      15.24,    17.18,    16.56,    12.74,    14.50
      216.0,      15.20,    17.15,    16.50,    12.70,    14.45
      217.0,      15.16,    17.12,    16.45,    12.67,    14.41
      218.0,      15.12,    17.09,    16.40,    12.63,    14.37
      219.0,      15.09,    17.07,    16.35,    12.60,    14.33
      220.0,      15.05,    17.04,    16.29,    12.57,    14.29
      221.0,      15.01,    17.01,    16.24,    12.53,    14.25
      222.0,      14.97,    16.98,    16.19,    12.50,    14.21
      223.0,      14.93,    16.96,    16.14,    12.47,    14.17
      224.0,      14.90,    16.93,    16.09,    12.44,    14.13
      225.0,      14.86,    16.90,    16.04,    12.40,    14.09
      226.0,      14.82,    16.88,    15.99,    12.37,    14.05
      227.0,      14.79,    16.85,    15.94,    12.34,    14.01
      228.0,      14.75,    16.82,    15.90,    12.31,    13.97
      229.0,      14.71,    16.80,    15.85,    12.27,    13.93
      230.0,      14.68,    16.77,    15.80,    12.24,    13.89
      231.0,      14.64,    16.74,    15.75,    12.21,    13.85
      232.0,      14.60,    16.72,    15.71,    12.18,    13.81
      233.0,      14.57,    16.69,    15.66,    12.15,    13.78
      234.0,      14.53,    16.67,    15.62,    12.11,    13.74
      235.0,      14.50,    16.64,    15.57,    12.08,    13.70
      236.0,      14.46,    16.62,    15.52,    12.05,    13.66
      237.0,      14.43,    16.59,    15.48,    12.02,    13.62
      238.0,      14.39,    16.56,    15.44,    11.99,    13.59
      239.0,      14.36,    16.54,    15.39,    11.96,    13.55
      240.0,      14.33,    16.51,    15.35,    11.93,    13.51
      241.0,      14.29,    16.49,    15.30,    11.90,    13.47
      242.0,      14.26,    16.46,    15.26,    11.87,    13.44
      243.0,      14.22,    16.44,    15.22,    11.84,    13.40
      244.0,      14.19,    16.41,    15.18,    11.81,    13.36
      245.0,      14.16,    16.39,    15.14,    11.78,    13.33
      246.0,      14.12,    16.36,    15.09,    11.75,    13.29
      247.0,      14.09,    16.34,    15.05,    11.72,    13.26
      248.0,      14.06,    16.31,    15.01,    11.69,    13.22
      249.0,      14.02,    16.29,    14.97,    11.66,    13.18
      250.0,      13.99,    16.26,    14.93,    11.63,    13.15
      251.0,      13.96,    16.24,    14.89,    11.60,    13.11
      252.0,      13.93,    16.21,    14.85,    11.57,    13.08
      253.0,      13.90,    16.19,    14.81,    11.54,    13.04
      254.0,      13.86,    16.17,    14.77,    11.51,    13.01
      255.0,      13.83,    16.14,    14.73,    11.48,    12.97
      256.0,      13.80,    16.12,    14.70,    11.45,    12.94
      257.0,      13.77,    16.09,    14.66,    11.42,    12.90
      258.0,      13.74,    16.07,    14.62,    11.39,    12.87
      259.0,      13.71,    16.05,    14.58,    11.36,    12.83
      260.0,      13.67,    16.02,    14.55,    11.33,    12.80
      261.0,      13.64,    16.00,    14.51,    11.30,    12.76
      262.0,      13.61,    15.97,    14.47,    11.28,    12.73
      263.0,      13.58,    15.95,    14.44,    11.25,    12.70
      264.0,      13.55,    15.93,    14.40,    11.22,    12.66
      265.0,      13.52,    15.90,    14.36,    11.19,    12.63
      266.0,      13.49,    15.88,    14.33,    11.16,    12.60
      267.0,      13.46,    15.86,    14.29,    11.13,    12.56
      268.0,      13.43,    15.83,    14.26,    11.11,    12.53
      269.0,      13.40,    15.81,    14.22,    11.08,    12.50
      270.0,      13.37,    15.79,    14.19,    11.05,    12.46
      271.0,      13.34,    15.76,    14.15,    11.02,    12.43
      272.0,      13.31,    15.74,    14.12,    10.99,    12.40
      273.0,      13.28,    15.72,    14.08,    10.97,    12.36
      274.0,      13.25,    15.69,    14.05,    10.94,    12.33
      275.0,      13.22,    15.67,    14.02,    10.91,    12.30
      276.0,      13.19,    15.65,    13.98,    10.88,    12.27
      277.0,      13.17,    15.62,    13.95,    10.86,    12.23
      278.0,      13.14,    15.60,    13.92,    10.83,    12.20
      279.0,      13.11,    15.58,    13.89,    10.80,    12.17
      280.0,      13.08,    15.55,    13.85,    10.77,    12.14
      281.0,      13.05,    15.53,    13.82,    10.75,    12.11
      282.0,      13.02,    15.51,    13.79,    10.72,    12.07
      283.0,      12.99,    15.49,    13.76,    10.69,    12.04
      284.0,      12.97,    15.46,    13.73,    10.67,    12.01
      285.0,      12.94,    15.44,    13.69,    10.64,    11.98
      286.0,      12.91,    15.42,    13.66,    10.61,    11.95
      287.0,      12.88,    15.40,    13.63,    10.59,    11.92
      288.0,      12.85,    15.37,    13.60,    10.56,    11.88
      289.0,      12.83,    15.35,    13.57,    10.53,    11.85
      290.0,      12.80,    15.33,    13.54,    10.51,    11.82
      291.0,      12.77,    15.31,    13.51,    10.48,    11.79
      292.0,      12.74,    15.28,    13.48,    10.45,    11.76
      293.0,      12.72,    15.26,    13.45,    10.43,    11.73
      294.0,      12.69,    15.24,    13.42,    10.40,    11.70
      295.0,      12.66,    15.22,    13.39,    10.37,    11.67
      296.0,      12.64,    15.19,    13.36,    10.35,    11.64
      297.0,      12.61,    15.17,    13.33,    10.32,    11.61
      298.0,      12.58,    15.15,    13.31,    10.30,    11.58
      299.0,      12.56,    15.13,    13.28,    10.27,    11.55
      300.0,      12.53,    15.11,    13.25,    10.24,    11.52
      301.0,      12.50,    15.08,    13.22,    10.22,    11.49
      302.0,      12.48,    15.06,    13.19,    10.19,    11.46
      303.0,      12.45,    15.04,    13.16,    10.17,    11.43
      304.0,      12.42,    15.02,    13.14,    10.14,    11.40
      305.0,      12.40,    15.00,    13.11,    10.12,    11.37
      306.0,      12.37,    14.97,    13.08,    10.09,    11.34
      307.0,      12.35,    14.95,    13.05,    10.07,    11.31
      308.0,      12.32,    14.93,    13.03,    10.04,    11.28
      309.0,      12.29,    14.91,    13.00,    10.02,    11.25
      310.0,      12.27,    14.89,    12.97,     9.99,    11.22
