Radius (km), Mean (m/s), NE (m/s), SE (m/s), SW (m/s), NW (m/s)
        0.0,       0.00,     0.00,     0.00,     0.00,     0.00
        1.0,       1.88,     1.71,     1.71,     2.38,     1.71
        2.0,       3.59,     3.42,     3.42,     4.11,     3.42
        3.0,       5.26,     5.13,     5.13,     5.66,     5.13
        4.0,       6.90,     6.84,     6.84,     7.11,     6.84
        5.0,       8.53,     8.54,     8.54,     8.48,     8.54
        6.0,      10.14,    10.25,    10.25,     9.80,    10.25
        7.0,      11.73,    11.96,    11.96,    11.07,    11.96
        8.0,      13.32,    13.66,    13.66,    12.30,    13.66
        9.0,      14.90,    15.37,    15.37,    13.51,    15.37
       10.0,      16.47,    17.07,    17.07,    14.68,    17.07
       11.0,      18.04,    18.78,    18.78,    15.83,    18.78
       12.0,      19.61,    20.48,    20.49,    16.96,    20.49
       13.0,      21.19,    22.21,    22.25,    18.07,    22.24
       14.0,      22.85,    24.01,    24.13,    19.18,    24.10
       15.0,      24.66,    25.94,    26.21,    20.33,    26.14
       16.0,      26.66,    28.07,    28.57,    21.57,    28.43
       17.0,      28.88,    30.41,    31.21,    22.93,    30.98
       18.0,      31.29,    32.95,    34.08,    24.42,    33.73
       19.0,      33.82,    35.61,    37.06,    26.02,    36.59
       20.0,      36.34,    38.27,    40.00,    27.65,    39.42
       21.0,      38.70,    40.81,    42.71,    29.24,    42.06
       22.0,      40.78,    43.07,    45.03,    30.67,    44.34
       23.0,      42.44,    44.94,    46.82,    31.87,    46.14
       24.0,      43.62,    46.34,    48.01,    32.75,    47.39
       25.0,      44.29,    47.24,    48.57,    33.28,    48.06
       26.0,      44.46,    47.64,    48.54,    33.44,    48.20
       27.0,      44.20,    47.62,    48.03,    33.27,    47.87
       28.0,      43.62,    47.27,    47.16,    32.82,    47.20
       29.0,      42.82,    46.70,    46.07,    32.17,    46.32
       30.0,      41.91,    46.01,    44.87,    31.41,    45.33
       31.0,      40.97,    45.29,    43.68,    30.60,    44.32
       32.0,      40.07,    44.60,    42.53,    29.81,    43.35
       33.0,      39.22,    43.94,    41.46,    29.05,    42.43
       34.0,      38.42,    43.34,    40.45,    28.35,    41.56
       35.0,      37.66,    42.76,    39.48,    27.68,    40.72
       36.0,      36.93,    42.20,    38.55,    27.05,    39.91
       37.0,      36.22,    41.67,    37.66,    26.44,    39.12
       38.0,      35.54,    41.14,    36.80,    25.84,    38.36
       39.0,      34.88,    40.64,    35.98,    25.27,    37.61
       40.0,      34.24,    40.15,    35.18,    24.72,    36.89
       41.0,      33.62,    39.68,    34.42,    24.18,    36.19
       42.0,      33.02,    39.22,    33.68,    23.66,    35.51
       43.0,      32.44,    38.78,    32.98,    23.16,    34.85
       44.0,      31.88,    38.34,    32.29,    22.67,    34.21
       45.0,      31.34,    37.93,    31.64,    22.20,    33.59
       46.0,      30.82,    37.52,    31.01,    21.75,    32.99
       47.0,      30.31,    37.13,    30.40,    21.31,    32.40
       48.0,      29.82,    36.75,    29.82,    20.88,    31.83
       49.0,      29.35,    36.38,    29.26,    20.47,    31.28
       50.0,      28.89,    36.02,    28.72,    20.07,    30.74
       51.0,      28.44,    35.67,    28.20,    19.69,    30.22
       52.0,      28.01,    35.33,    27.70,    19.32,    29.71
       53.0,      27.60,    35.00,    27.21,    18.95,    29.22
       54.0,      27.20,    34.68,    26.75,    18.60,    28.75
       55.0,      26.81,    34.37,    26.30,    18.27,    28.28
       56.0,      26.43,    34.07,    25.87,    17.94,    27.83
       57.0,      26.06,    33.77,    25.46,    17.62,    27.40
       58.0,      25.71,    33.49,    25.06,    17.31,    26.97
       59.0,      25.37,    33.21,    24.68,    17.02,    26.56
       60.0,      25.03,    32.94,    24.31,    16.73,    26.16
       61.0,      24.71,    32.67,    23.95,    16.45,    25.77
       62.0,      24.40,    32.41,    23.61,    16.18,    25.40
       63.0,      24.10,    32.16,    23.28,    15.92,    25.03
       64.0,      23.80,    31.92,    22.96,    15.67,    24.67
       65.0,      23.52,    31.68,    22.65,    15.42,    24.33
       66.0,      23.24,    31.44,    22.35,    15.18,    23.99
       67.0,      22.98,    31.22,    22.07,    14.96,    23.67
       68.0,      22.72,    31.00,    21.79,    14.73,    23.35
       69.0,      22.47,    30.78,    21.53,    14.52,    23.04
       70.0,      22.22,    30.57,    21.27,    14.31,    22.74
       71.0,      21.99,    30.36,    21.03,    14.11,    22.45
       72.0,      21.76,    30.16,    20.79,    13.91,    22.17
       73.0,      21.53,    29.96,    20.56,    13.72,    21.89
       74.0,      21.32,    29.77,    20.34,    13.53,    21.63
       75.0,      21.11,    29.58,    20.12,    13.36,    21.37
       76.0,      20.90,    29.39,    19.92,    13.18,    21.11
       77.0,      20.70,    29.21,    19.72,    13.01,    20.87
       78.0,      20.51,    29.03,    19.53,    12.85,    20.63
       79.0,      20.32,    28.86,    19.34,    12.69,    20.40
       80.0,      20.14,    28.69,    19.16,    12.54,    20.17
       81.0,      19.96,    28.52,    18.99,    12.39,    19.95
       82.0,      19.79,    28.36,    18.82,    12.25,    19.74
       83.0,      19.62,    28.20,    18.66,    12.11,    19.53
       84.0,      19.46,    28.04,    18.50,    11.97,    19.33
       85.0,      19.30,    27.88,    18.35,    11.84,    19.14
       86.0,      19.15,    27.73,    18.21,    11.71,    18.95
       87.0,      19.00,    27.58,    18.07,    11.59,    18.76
       88.0,      18.85,    27.43,    17.93,    11.47,    18.58
       89.0,      18.71,    27.29,    17.80,    11.35,    18.41
       90.0,      18.57,    27.15,    17.67,    11.24,    18.24
       91.0,      18.44,    27.01,    17.55,    11.13,    18.07
       92.0,      18.31,    26.87,    17.43,    11.02,    17.91
       93.0,      18.18,    26.73,    17.31,    10.92,    17.75
       94.0,      18.05,    26.60,    17.20,    10.82,    17.60
       95.0,      17.93,    26.47,    17.09,    10.72,    17.45
       96.0,      17.81,    26.34,    16.99,    10.63,    17.30
       97.0,      17.70,    26.21,    16.89,    10.53,    17.16
       98.0,      17.59,    26.09,    16.79,    10.44,    17.03
       99.0,      17.48,    25.96,    16.69,    10.36,    16.89
      100.0,      17.37,    25.84,    16.60,    10.27,    16.76
      101.0,      17.26,    25.72,    16.51,    10.19,    16.64
      102.0,      17.16,    25.60,    16.42,    10.11,    16.51
      103.0,      17.06,    25.48,    16.34,    10.03,    16.39
      104.0,      16.96,    25.37,    16.26,     9.95,    16.27
      105.0,      16.87,    25.25,    16.18,     9.88,    16.16
      106.0,      16.77,    25.14,    16.10,     9.81,    16.05
      107.0,      16.68,    25.03,    16.02,     9.74,    15.94
      108.0,      16.59,    24.92,    15.95,     9.67,    15.83
      109.0,      16.51,    24.81,    15.88,     9.60,    15.73
      110.0,      16.42,    24.70,    15.81,     9.54,    15.63
      111.0,      16.34,    24.60,    15.74,     9.47,    15.53
      112.0,      16.25,    24.49,    15.68,     9.41,    15.44
      113.0,      16.17,    24.39,    15.61,     9.35,    15.34
      114.0,      16.10,    24.29,    15.55,     9.29,    15.25
      115.0,      16.02,    24.18,    15.49,     9.24,    15.17
      116.0,      15.94,    24.08,    15.43,     9.18,    15.08
      117.0,      15.87,    23.98,    15.37,     9.13,    14.99
      118.0,      15.80,    23.88,    15.32,     9.08,    14.91
      119.0,      15.73,    23.79,    15.26,     9.02,    14.83
      120.0,      15.66,    23.69,    15.21,     8.97,    14.75
      121.0,      15.59,    23.59,    15.15,     8.92,    14.68
      122.0,      15.52,    23.50,    15.10,     8.88,    14.60
      123.0,      15.45,    23.40,    15.05,     8.83,    14.53
      124.0,      15.39,    23.31,    15.00,     8.78,    14.46
      125.0,      15.32,    23.22,    14.96,     8.74,    14.39
      126.0,      15.26,    23.12,    14.91,     8.69,    14.32
      127.0,      15.20,    23.03,    14.86,     8.65,    14.25
      128.0,      15.14,    22.94,    14.82,     8.61,    14.19
      129.0,      15.08,    22.85,    14.78,     8.57,    14.12
      130.0,      15.02,    22.76,    14.73,     8.53,    14.06
      131.0,      14.96,    22.67,    14.69,     8.49,    14.00
      132.0,      14.91,    22.59,    14.65,     8.45,    13.94
      133.0,      14.85,    22.50,    14.61,     8.41,    13.88
      134.0,      14.80,    22.41,    14.57,     8.38,    13.83
      135.0,      14.74,    22.33,    14.53,     8.34,    13.77
      136.0,      14.69,    22.24,    14.49,     8.31,    13.72
      137.0,      14.64,    22.16,    14.46,     8.27,    13.66
      138.0,      14.58,    22.07,    14.42,     8.24,    13.61
      139.0,      14.53,    21.99,    14.38,     8.20,    13.56
      140.0,      14.48,    21.91,    14.35,     8.17,    13.51
      141.0,      14.43,    21.82,    14.31,     8.14,    13.46
      142.0,      14.38,    21.74,    14.28,     8.11,    13.41
      143.0,      14.34,    21.66,    14.24,     8.08,    13.36
      144.0,      14.29,    21.58,    14.21,     8.05,    13.32
      145.0,      14.24,    21.50,    14.18,     8.02,    13.27
      146.0,      14.19,    21.42,    14.14,     7.99,    13.23
      147.0,      14.15,    21.34,    14.11,     7.96,    13.19
      148.0,      14.10,    21.26,    14.08,     7.93,    13.14
      149.0,      14.06,    21.18,    14.05,     7.90,    13.10
      150.0,      14.01,    21.10,    14.02,     7.88,    13.06
      151.0,      13.97,    21.02,    13.99,     7.85,    13.02
      152.0,      13.93,    20.95,    13.96,     7.82,    12.98
      153.0,      13.88,    20.87,    13.93,     7.80,    12.94
      154.0,      13.84,    20.79,    13.90,     7.77,    12.90
      155.0,      13.80,    20.72,    13.87,     7.75,    12.86
      156.0,      13.76,    20.64,    13.84,     7.72,    12.83
      157.0,      13.72,    20.57,    13.81,     7.70,    12.79
      158.0,      13.68,    20.49,    13.79,     7.67,    12.75
      159.0,      13.64,    20.42,    13.76,     7.65,    12.72
      160.0,      13.60,    20.34,    13.73,     7.63,    12.68
      161.0,      13.56,    20.27,    13.70,     7.60,    12.65
      162.0,      13.52,    20.20,    13.68,     7.58,    12.62
      163.0,      13.48,    20.12,    13.65,     7.56,    12.58
      164.0,      13.44,    20.05,    13.63,     7.54,    12.55
      165.0,      13.40,    19.98,    13.60,     7.51,    12.52
      166.0,      13.37,    19.91,    13.57,     7.49,    12.49
      167.0,      13.33,    19.84,    13.55,     7.47,    12.46
      168.0,      13.29,    19.76,    13.52,     7.45,    12.43
      169.0,      13.25,    19.69,    13.50,     7.43,    12.40
      170.0,      13.22,    19.62,    13.47,     7.41,    12.37
      171.0,      13.18,    19.55,    13.45,     7.39,    12.34
      172.0,      13.15,    19.48,    13.42,     7.37,    12.31
      173.0,      13.11,    19.41,    13.40,     7.35,    12.28
      174.0,      13.08,    19.34,    13.38,     7.33,    12.25
      175.0,      13.04,    19.27,    13.35,     7.31,    12.22
      176.0,      13.01,    19.21,    13.33,     7.29,    12.20
      177.0,      12.97,    19.14,    13.30,     7.27,    12.17
      178.0,      12.94,    19.07,    13.28,     7.25,    12.14
      179.0,      12.90,    19.00,    13.26,     7.23,    12.12
      180.0,      12.87,    18.93,    13.23,     7.21,    12.09
      181.0,      12.84,    18.87,    13.21,     7.20,    12.07
      182.0,      12.80,    18.80,    13.19,     7.18,    12.04
      183.0,      12.77,    18.73,    13.17,     7.16,    12.02
      184.0,      12.74,    18.67,    13.14,     7.14,    11.99
      185.0,      12.70,    18.60,    13.12,     7.13,    11.97
      186.0,      12.67,    18.53,    13.10,     7.11,    11.94
      187.0,      12.64,    18.47,    13.08,     7.09,    11.92
      188.0,      12.61,    18.40,    13.05,     7.07,    11.89
      189.0,      12.57,    18.34,    13.03,     7.06,    11.87
      190.0,      12.54,    18.27,    13.01,     7.04,    11.85
      191.0,      12.51,    18.21,    12.99,     7.02,    11.82
      192.0,      12.48,    18.14,    12.97,     7.01,    11.80
      193.0,      12.45,    18.08,    12.95,     6.99,    11.78
      194.0,      12.42,    18.02,    12.92,     6.97,    11.76
      195.0,      12.39,    17.95,    12.90,     6.96,    11.74
      196.0,      12.36,    17.89,    12.88,     6.94,    11.71
      197.0,      12.33,    17.83,    12.86,     6.92,    11.69
      198.0,      12.30,    17.76,    12.84,     6.91,    11.67
      199.0,      12.27,    17.70,    12.82,     6.89,    11.65
      200.0,      12.24,    17.64,    12.80,     6.88,    11.63
      201.0,      12.21,    17.58,    12.78,     6.86,    11.61
      202.0,      12.18,    17.52,    12.76,     6.85,    11.59
      203.0,      12.15,    17.45,    12.73,     6.83,    11.57
      204.0,      12.12,    17.39,    12.71,     6.81,    11.55
      205.0,      12.09,    17.33,    12.69,     6.80,    11.53
      206.0,      12.06,    17.27,    12.67,     6.78,    11.51
      207.0,      12.03,    17.21,    12.65,     6.77,    11.49
      208.0,      12.00,    17.15,    12.63,     6.75,    11.47
      209.0,      11.97,    17.09,    12.61,     6.74,    11.45
      210.0,      11.94,    17.03,    12.59,     6.72,    11.43
      211.0,      11.91,    16.97,    12.57,     6.71,    11.41
      212.0,      11.89,    16.91,    12.55,     6.69,    11.39
      213.0,      11.86,    16.85,    12.53,     6.68,    11.37
      214.0,      11.83,    16.79,    12.51,     6.67,    11.35
      215.0,      11.80,    16.73,    12.49,     6.65,    11.33
      216.0,      11.77,    16.67,    12.47,     6.64,    11.31
      217.0,      11.75,    16.61,    12.45,     6.62,    11.29
      218.0,      11.72,    16.56,    12.43,     6.61,    11.28
      219.0,      11.69,    16.50,    12.41,     6.59,    11.26
      220.0,      11.66,    16.44,    12.39,     6.58,    11.24
      221.0,      11.64,    16.38,    12.37,     6.57,    11.22
      222.0,      11.61,    16.33,    12.35,     6.55,    11.20
      223.0,      11.58,    16.27,    12.33,     6.54,    11.18
      224.0,      11.55,    16.21,    12.31,     6.52,    11.17
      225.0,      11.53,    16.15,    12.30,     6.51,    11.15
      226.0,      11.50,    16.10,    12.28,     6.50,    11.13
      227.0,      11.47,    16.04,    12.26,     6.48,    11.11
      228.0,      11.45,    15.99,    12.24,     6.47,    11.10
      229.0,      11.42,    15.93,    12.22,     6.46,    11.08
      230.0,      11.39,    15.87,    12.20,     6.44,    11.06
      231.0,      11.37,    15.82,    12.18,     6.43,    11.04
      232.0,      11.34,    15.76,    12.16,     6.42,    11.03
      233.0,      11.32,    15.71,    12.14,     6.40,    11.01
      234.0,      11.29,    15.65,    12.12,     6.39,    10.99
      235.0,      11.26,    15.60,    12.10,     6.38,    10.98
      236.0,      11.24,    15.54,    12.08,     6.36,    10.96
      237.0,      11.21,    15.49,    12.07,     6.35,    10.94
      238.0,      11.19,    15.44,    12.05,     6.34,    10.93
      239.0,      11.16,    15.38,    12.03,     6.32,    10.91
      240.0,      11.13,    15.33,    12.01,     6.31,    10.89
      241.0,      11.11,    15.27,    11.99,     6.30,    10.88
      242.0,      11.08,    15.22,    11.97,     6.28,    10.86
      243.0,      11.06,    15.17,    11.95,     6.27,    10.84
      244.0,      11.03,    15.11,    11.93,     6.26,    10.83
      245.0,      11.01,    15.06,    11.92,     6.24,    10.81
      246.0,      10.98,    15.01,    11.90,     6.23,    10.80
      247.0,      10.96,    14.96,    11.88,     6.22,    10.78
      248.0,      10.93,    14.90,    11.86,     6.21,    10.76
      249.0,      10.91,    14.85,    11.84,     6.19,    10.75
      250.0,      10.88,    14.80,    11.82,     6.18,    10.73
      251.0,      10.86,    14.75,    11.81,     6.17,    10.72
      252.0,      10.84,    14.70,    11.79,     6.16,    10.70
      253.0,      10.81,    14.65,    11.77,     6.14,    10.68
      254.0,      10.79,    14.59,    11.75,     6.13,    10.67
      255.0,      10.76,    14.54,    11.73,     6.12,    10.65
      256.0,      10.74,    14.49,    11.71,     6.11,    10.64
      257.0,      10.71,    14.44,    11.70,     6.09,    10.62
      258.0,      10.69,    14.39,    11.68,     6.08,    10.61
      259.0,      10.67,    14.34,    11.66,     6.07,    10.59
      260.0,      10.64,    14.29,    11.64,     6.06,    10.58
      261.0,      10.62,    14.24,    11.62,     6.04,    10.56
      262.0,      10.59,    14.19,    11.61,     6.03,    10.54
      263.0,      10.57,    14.14,    11.59,     6.02,    10.53
      264.0,      10.55,    14.09,    11.57,     6.01,    10.51
      265.0,      10.52,    14.04,    11.55,     6.00,    10.50
      266.0,      10.50,    13.99,    11.53,     5.98,    10.48
      267.0,      10.48,    13.95,    11.52,     5.97,    10.47
      268.0,      10.45,    13.90,    11.50,     5.96,    10.45
      269.0,      10.43,    13.85,    11.48,     5.95,    10.44
      270.0,      10.41,    13.80,    11.46,     5.94,    10.42
      271.0,      10.38,    13.75,    11.45,     5.92,    10.41
      272.0,      10.36,    13.70,    11.43,     5.91,    10.39
      273.0,      10.34,    13.66,    11.41,     5.90,    10.38
      274.0,      10.31,    13.61,    11.39,     5.89,    10.36
      275.0,      10.29,    13.56,    11.38,     5.88,    10.35
      276.0,      10.27,    13.51,    11.36,     5.86,    10.33
      277.0,      10.24,    13.47,    11.34,     5.85,    10.32
      278.0,      10.22,    13.42,    11.32,     5.84,    10.31
      279.0,      10.20,    13.37,    11.30,     5.83,    10.29
      280.0,      10.18,    13.33,    11.29,     5.82,    10.28
      281.0,      10.15,    13.28,    11.27,     5.81,    10.26
      282.0,      10.13,    13.23,    11.25,     5.79,    10.25
      283.0,      10.11,    13.19,    11.24,     5.78,    10.23
      284.0,      10.09,    13.14,    11.22,     5.77,    10.22
      285.0,      10.06,    13.10,    11.20,     5.76,    10.20
      286.0,      10.04,    13.05,    11.18,     5.75,    10.19
      287.0,      10.02,    13.00,    11.17,     5.74,    10.17
      288.0,      10.00,    12.96,    11.15,     5.72,    10.16
      289.0,       9.98,    12.91,    11.13,     5.71,    10.15
      290.0,       9.95,    12.87,    11.11,     5.70,    10.13
      291.0,       9.93,    12.82,    11.10,     5.69,    10.12
      292.0,       9.91,    12.78,    11.08,     5.68,    10.10
      293.0,       9.89,    12.73,    11.06,     5.67,    10.09
      294.0,       9.87,    12.69,    11.05,     5.66,    10.07
      295.0,       9.85,    12.65,    11.03,     5.65,    10.06
      296.0,       9.82,    12.60,    11.01,     5.63,    10.05
      297.0,       9.80,    12.56,    11.00,     5.62,    10.03
      298.0,       9.78,    12.51,    10.98,     5.61,    10.02
      299.0,       9.76,    12.47,    10.96,     5.60,    10.00
      300.0,       9.74,    12.43,    10.94,     5.59,     9.99
      301.0,       9.72,    12.38,    10.93,     5.58,     9.98
      302.0,       9.69,    12.34,    10.91,     5.57,     9.96
      303.0,       9.67,    12.30,    10.89,     5.56,     9.95
      304.0,       9.65,    12.25,    10.88,     5.54,     9.93
      305.0,       9.63,    12.21,    10.86,     5.53,     9.92
      306.0,       9.61,    12.17,    10.84,     5.52,     9.91
      307.0,       9.59,    12.13,    10.83,     5.51,     9.89
      308.0,       9.57,    12.08,    10.81,     5.50,     9.88
      309.0,       9.55,    12.04,    10.79,     5.49,     9.87
      310.0,       9.53,    12.00,    10.78,     5.48,     9.85
