Radius (km), Mean (m/s), NE (m/s), SE (m/s), SW (m/s), NW (m/s)
        0.0,       0.00,     0.00,     0.00,     0.00,     0.00
        1.0,       2.61,     2.62,     2.62,     2.72,     2.47
        2.0,       4.22,     4.27,     4.27,     4.14,     4.20
        3.0,       5.60,     5.69,     5.69,     5.30,     5.73
        4.0,       6.85,     6.97,     6.97,     6.30,     7.15
        5.0,       8.00,     8.16,     8.16,     7.22,     8.48
        6.0,       9.09,     9.28,     9.28,     8.06,     9.75
        7.0,      10.13,    10.35,    10.35,     8.85,    10.98
        8.0,      11.12,    11.37,    11.37,     9.59,    12.16
        9.0,      12.08,    12.36,    12.36,    10.30,    13.31
       10.0,      13.01,    13.31,    13.31,    10.98,    14.43
       11.0,      13.91,    14.24,    14.24,    11.63,    15.52
       12.0,      14.79,    15.14,    15.14,    12.26,    16.60
       13.0,      15.65,    16.04,    16.04,    12.88,    17.66
       14.0,      16.54,    16.95,    16.95,    13.50,    18.75
       15.0,      17.47,    17.89,    17.92,    14.16,    19.91
       16.0,      18.48,    18.89,    18.97,    14.87,    21.17
       17.0,      19.57,    19.95,    20.12,    15.65,    22.55
       18.0,      20.73,    21.06,    21.35,    16.48,    24.04
       19.0,      21.93,    22.18,    22.62,    17.34,    25.58
       20.0,      23.11,    23.29,    23.88,    18.18,    27.10
       21.0,      24.22,    24.32,    25.05,    18.96,    28.53
       22.0,      25.18,    25.24,    26.07,    19.64,    29.77
       23.0,      25.96,    26.01,    26.87,    20.17,    30.77
       24.0,      26.51,    26.61,    27.43,    20.52,    31.48
       25.0,      26.83,    27.03,    27.73,    20.69,    31.87
       26.0,      26.94,    27.28,    27.79,    20.70,    31.98
       27.0,      26.85,    27.39,    27.63,    20.56,    31.83
       28.0,      26.63,    27.39,    27.32,    20.31,    31.49
       29.0,      26.31,    27.32,    26.90,    19.99,    31.03
       30.0,      25.94,    27.20,    26.42,    19.64,    30.50
       31.0,      25.57,    27.08,    25.94,    19.28,    29.97
       32.0,      25.20,    26.96,    25.47,    18.93,    29.45
       33.0,      24.86,    26.84,    25.03,    18.61,    28.96
       34.0,      24.54,    26.74,    24.61,    18.30,    28.51
       35.0,      24.23,    26.63,    24.21,    18.01,    28.07
       36.0,      23.93,    26.53,    23.82,    17.73,    27.65
       37.0,      23.65,    26.43,    23.44,    17.46,    27.25
       38.0,      23.37,    26.33,    23.08,    17.20,    26.86
       39.0,      23.10,    26.23,    22.73,    16.95,    26.49
       40.0,      22.84,    26.12,    22.38,    16.71,    26.13
       41.0,      22.58,    26.02,    22.05,    16.47,    25.78
       42.0,      22.34,    25.93,    21.73,    16.25,    25.44
       43.0,      22.10,    25.83,    21.41,    16.03,    25.12
       44.0,      21.87,    25.73,    21.11,    15.83,    24.80
       45.0,      21.64,    25.63,    20.81,    15.62,    24.50
       46.0,      21.42,    25.53,    20.53,    15.43,    24.21
       47.0,      21.21,    25.44,    20.25,    15.24,    23.92
       48.0,      21.01,    25.34,    19.98,    15.06,    23.65
       49.0,      20.81,    25.24,    19.72,    14.89,    23.39
       50.0,      20.62,    25.15,    19.46,    14.72,    23.13
       51.0,      20.43,    25.05,    19.22,    14.56,    22.88
       52.0,      20.25,    24.96,    18.98,    14.40,    22.64
       53.0,      20.07,    24.87,    18.75,    14.25,    22.41
       54.0,      19.90,    24.77,    18.52,    14.11,    22.19
       55.0,      19.73,    24.68,    18.30,    13.96,    21.97
       56.0,      19.57,    24.59,    18.09,    13.83,    21.76
       57.0,      19.41,    24.50,    17.88,    13.70,    21.56
       58.0,      19.26,    24.41,    17.68,    13.57,    21.37
       59.0,      19.11,    24.32,    17.49,    13.45,    21.18
       60.0,      18.96,    24.23,    17.30,    13.33,    20.99
       61.0,      18.82,    24.14,    17.11,    13.21,    20.81
       62.0,      18.68,    24.05,    16.93,    13.10,    20.64
       63.0,      18.55,    23.96,    16.76,    13.00,    20.47
       64.0,      18.42,    23.87,    16.59,    12.89,    20.31
       65.0,      18.29,    23.78,    16.43,    12.79,    20.15
       66.0,      18.17,    23.70,    16.27,    12.69,    20.00
       67.0,      18.04,    23.61,    16.11,    12.60,    19.85
       68.0,      17.93,    23.53,    15.96,    12.51,    19.71
       69.0,      17.81,    23.44,    15.82,    12.42,    19.57
       70.0,      17.70,    23.35,    15.68,    12.33,    19.43
       71.0,      17.59,    23.27,    15.54,    12.25,    19.30
       72.0,      17.48,    23.19,    15.40,    12.17,    19.17
       73.0,      17.38,    23.10,    15.27,    12.09,    19.05
       74.0,      17.28,    23.02,    15.15,    12.02,    18.93
       75.0,      17.18,    22.94,    15.02,    11.94,    18.81
       76.0,      17.08,    22.85,    14.90,    11.87,    18.69
       77.0,      16.99,    22.77,    14.78,    11.80,    18.58
       78.0,      16.89,    22.69,    14.67,    11.74,    18.47
       79.0,      16.80,    22.61,    14.56,    11.67,    18.37
       80.0,      16.71,    22.53,    14.45,    11.61,    18.26
       81.0,      16.63,    22.45,    14.35,    11.55,    18.16
       82.0,      16.54,    22.37,    14.24,    11.49,    18.06
       83.0,      16.46,    22.29,    14.14,    11.43,    17.97
       84.0,      16.38,    22.21,    14.05,    11.37,    17.88
       85.0,      16.30,    22.13,    13.95,    11.32,    17.78
       86.0,      16.22,    22.05,    13.86,    11.26,    17.70
       87.0,      16.14,    21.98,    13.77,    11.21,    17.61
       88.0,      16.07,    21.90,    13.68,    11.16,    17.52
       89.0,      15.99,    21.82,    13.60,    11.11,    17.44
       90.0,      15.92,    21.74,    13.51,    11.06,    17.36
       91.0,      15.85,    21.67,    13.43,    11.02,    17.28
       92.0,      15.78,    21.59,    13.35,    10.97,    17.20
       93.0,      15.71,    21.52,    13.27,    10.93,    17.13
       94.0,      15.64,    21.44,    13.20,    10.88,    17.05
       95.0,      15.58,    21.37,    13.13,    10.84,    16.98
       96.0,      15.51,    21.29,    13.05,    10.80,    16.91
       97.0,      15.45,    21.22,    12.98,    10.76,    16.84
       98.0,      15.39,    21.15,    12.91,    10.72,    16.77
       99.0,      15.33,    21.07,    12.85,    10.68,    16.70
      100.0,      15.27,    21.00,    12.78,    10.64,    16.64
      101.0,      15.21,    20.93,    12.72,    10.60,    16.57
      102.0,      15.15,    20.86,    12.66,    10.57,    16.51
      103.0,      15.09,    20.79,    12.60,    10.53,    16.44
      104.0,      15.03,    20.71,    12.54,    10.50,    16.38
      105.0,      14.98,    20.64,    12.48,    10.46,    16.32
      106.0,      14.92,    20.57,    12.42,    10.43,    16.26
      107.0,      14.87,    20.50,    12.36,    10.40,    16.20
      108.0,      14.81,    20.43,    12.31,    10.36,    16.15
      109.0,      14.76,    20.36,    12.26,    10.33,    16.09
      110.0,      14.71,    20.30,    12.20,    10.30,    16.03
      111.0,      14.66,    20.23,    12.15,    10.27,    15.98
      112.0,      14.61,    20.16,    12.10,    10.24,    15.93
      113.0,      14.56,    20.09,    12.05,    10.21,    15.87
      114.0,      14.51,    20.02,    12.01,    10.18,    15.82
      115.0,      14.46,    19.96,    11.96,    10.15,    15.77
      116.0,      14.41,    19.89,    11.91,    10.13,    15.72
      117.0,      14.36,    19.82,    11.87,    10.10,    15.67
      118.0,      14.32,    19.76,    11.82,    10.07,    15.62
      119.0,      14.27,    19.69,    11.78,    10.04,    15.57
      120.0,      14.23,    19.62,    11.74,    10.02,    15.52
      121.0,      14.18,    19.56,    11.70,     9.99,    15.47
      122.0,      14.14,    19.49,    11.65,     9.97,    15.42
      123.0,      14.09,    19.43,    11.61,     9.94,    15.38
      124.0,      14.05,    19.37,    11.57,     9.92,    15.33
      125.0,      14.00,    19.30,    11.54,     9.89,    15.29
      126.0,      13.96,    19.24,    11.50,     9.87,    15.24
      127.0,      13.92,    19.17,    11.46,     9.84,    15.20
      128.0,      13.88,    19.11,    11.42,     9.82,    15.15
      129.0,      13.84,    19.05,    11.39,     9.80,    15.11
      130.0,      13.79,    18.99,    11.35,     9.77,    15.06
      131.0,      13.75,    18.92,    11.32,     9.75,    15.02
      132.0,      13.71,    18.86,    11.28,     9.73,    14.98
      133.0,      13.67,    18.80,    11.25,     9.71,    14.94
      134.0,      13.63,    18.74,    11.21,     9.68,    14.90
      135.0,      13.59,    18.68,    11.18,     9.66,    14.85
      136.0,      13.56,    18.62,    11.15,     9.64,    14.81
      137.0,      13.52,    18.56,    11.12,     9.62,    14.77
      138.0,      13.48,    18.50,    11.09,     9.60,    14.73
      139.0,      13.44,    18.44,    11.05,     9.58,    14.69
      140.0,      13.40,    18.38,    11.02,     9.56,    14.65
      141.0,      13.37,    18.32,    10.99,     9.54,    14.61
      142.0,      13.33,    18.26,    10.96,     9.52,    14.57
      143.0,      13.29,    18.20,    10.93,     9.50,    14.54
      144.0,      13.26,    18.14,    10.91,     9.48,    14.50
      145.0,      13.22,    18.08,    10.88,     9.46,    14.46
      146.0,      13.18,    18.03,    10.85,     9.44,    14.42
      147.0,      13.15,    17.97,    10.82,     9.42,    14.38
      148.0,      13.11,    17.91,    10.79,     9.40,    14.35
      149.0,      13.08,    17.85,    10.77,     9.38,    14.31
      150.0,      13.04,    17.80,    10.74,     9.36,    14.27
      151.0,      13.01,    17.74,    10.71,     9.34,    14.23
      152.0,      12.97,    17.68,    10.69,     9.32,    14.20
      153.0,      12.94,    17.63,    10.66,     9.30,    14.16
      154.0,      12.90,    17.57,    10.64,     9.28,    14.13
      155.0,      12.87,    17.52,    10.61,     9.27,    14.09
      156.0,      12.84,    17.46,    10.59,     9.25,    14.05
      157.0,      12.80,    17.41,    10.56,     9.23,    14.02
      158.0,      12.77,    17.35,    10.54,     9.21,    13.98
      159.0,      12.74,    17.30,    10.51,     9.19,    13.95
      160.0,      12.70,    17.24,    10.49,     9.18,    13.91
      161.0,      12.67,    17.19,    10.47,     9.16,    13.88
      162.0,      12.64,    17.13,    10.44,     9.14,    13.84
      163.0,      12.61,    17.08,    10.42,     9.12,    13.81
      164.0,      12.58,    17.03,    10.40,     9.10,    13.78
      165.0,      12.54,    16.97,    10.37,     9.09,    13.74
      166.0,      12.51,    16.92,    10.35,     9.07,    13.71
      167.0,      12.48,    16.87,    10.33,     9.05,    13.67
      168.0,      12.45,    16.82,    10.31,     9.03,    13.64
      169.0,      12.42,    16.76,    10.28,     9.02,    13.61
      170.0,      12.39,    16.71,    10.26,     9.00,    13.57
      171.0,      12.36,    16.66,    10.24,     8.98,    13.54
      172.0,      12.33,    16.61,    10.22,     8.97,    13.51
      173.0,      12.30,    16.56,    10.20,     8.95,    13.47
      174.0,      12.26,    16.51,    10.18,     8.93,    13.44
      175.0,      12.23,    16.46,    10.16,     8.92,    13.41
      176.0,      12.20,    16.41,    10.14,     8.90,    13.38
      177.0,      12.17,    16.36,    10.12,     8.88,    13.34
      178.0,      12.14,    16.31,    10.09,     8.87,    13.31
      179.0,      12.12,    16.26,    10.07,     8.85,    13.28
      180.0,      12.09,    16.21,    10.05,     8.83,    13.25
      181.0,      12.06,    16.16,    10.03,     8.82,    13.22
      182.0,      12.03,    16.11,    10.01,     8.80,    13.18
      183.0,      12.00,    16.06,     9.99,     8.79,    13.15
      184.0,      11.97,    16.01,     9.97,     8.77,    13.12
      185.0,      11.94,    15.96,     9.96,     8.75,    13.09
      186.0,      11.91,    15.91,     9.94,     8.74,    13.06
      187.0,      11.88,    15.87,     9.92,     8.72,    13.03
      188.0,      11.85,    15.82,     9.90,     8.71,    13.00
      189.0,      11.83,    15.77,     9.88,     8.69,    12.96
      190.0,      11.80,    15.72,     9.86,     8.67,    12.93
      191.0,      11.77,    15.67,     9.84,     8.66,    12.90
      192.0,      11.74,    15.63,     9.82,     8.64,    12.87
      193.0,      11.71,    15.58,     9.80,     8.63,    12.84
      194.0,      11.69,    15.53,     9.79,     8.61,    12.81
      195.0,      11.66,    15.49,     9.77,     8.59,    12.78
      196.0,      11.63,    15.44,     9.75,     8.58,    12.75
      197.0,      11.60,    15.40,     9.73,     8.56,    12.72
      198.0,      11.57,    15.35,     9.71,     8.55,    12.69
      199.0,      11.55,    15.30,     9.69,     8.53,    12.66
      200.0,      11.52,    15.26,     9.68,     8.52,    12.63
      201.0,      11.49,    15.21,     9.66,     8.50,    12.60
      202.0,      11.47,    15.17,     9.64,     8.49,    12.57
      203.0,      11.44,    15.12,     9.62,     8.47,    12.54
      204.0,      11.41,    15.08,     9.61,     8.46,    12.51
      205.0,      11.39,    15.03,     9.59,     8.44,    12.48
      206.0,      11.36,    14.99,     9.57,     8.43,    12.45
      207.0,      11.33,    14.94,     9.55,     8.41,    12.42
      208.0,      11.31,    14.90,     9.54,     8.40,    12.39
      209.0,      11.28,    14.86,     9.52,     8.38,    12.36
      210.0,      11.25,    14.81,     9.50,     8.37,    12.34
      211.0,      11.23,    14.77,     9.48,     8.35,    12.31
      212.0,      11.20,    14.73,     9.47,     8.34,    12.28
      213.0,      11.18,    14.68,     9.45,     8.32,    12.25
      214.0,      11.15,    14.64,     9.43,     8.31,    12.22
      215.0,      11.12,    14.60,     9.42,     8.29,    12.19
      216.0,      11.10,    14.55,     9.40,     8.28,    12.16
      217.0,      11.07,    14.51,     9.38,     8.26,    12.13
      218.0,      11.05,    14.47,     9.37,     8.25,    12.11
      219.0,      11.02,    14.43,     9.35,     8.23,    12.08
      220.0,      11.00,    14.39,     9.33,     8.22,    12.05
      221.0,      10.97,    14.34,     9.32,     8.20,    12.02
      222.0,      10.95,    14.30,     9.30,     8.19,    11.99
      223.0,      10.92,    14.26,     9.28,     8.17,    11.96
      224.0,      10.90,    14.22,     9.27,     8.16,    11.94
      225.0,      10.87,    14.18,     9.25,     8.15,    11.91
      226.0,      10.85,    14.14,     9.23,     8.13,    11.88
      227.0,      10.82,    14.10,     9.22,     8.12,    11.85
      228.0,      10.80,    14.06,     9.20,     8.10,    11.82
      229.0,      10.77,    14.02,     9.19,     8.09,    11.80
      230.0,      10.75,    13.98,     9.17,     8.07,    11.77
      231.0,      10.72,    13.94,     9.15,     8.06,    11.74
      232.0,      10.70,    13.90,     9.14,     8.04,    11.71
      233.0,      10.67,    13.86,     9.12,     8.03,    11.69
      234.0,      10.65,    13.82,     9.11,     8.02,    11.66
      235.0,      10.63,    13.78,     9.09,     8.00,    11.63
      236.0,      10.60,    13.74,     9.08,     7.99,    11.61
      237.0,      10.58,    13.70,     9.06,     7.97,    11.58
      238.0,      10.55,    13.66,     9.04,     7.96,    11.55
      239.0,      10.53,    13.62,     9.03,     7.95,    11.52
      240.0,      10.51,    13.58,     9.01,     7.93,    11.50
      241.0,      10.48,    13.54,     9.00,     7.92,    11.47
      242.0,      10.46,    13.51,     8.98,     7.90,    11.44
      243.0,      10.43,    13.47,     8.97,     7.89,    11.42
      244.0,      10.41,    13.43,     8.95,     7.88,    11.39
      245.0,      10.39,    13.39,     8.94,     7.86,    11.36
      246.0,      10.36,    13.35,     8.92,     7.85,    11.34
      247.0,      10.34,    13.32,     8.90,     7.83,    11.31
      248.0,      10.32,    13.28,     8.89,     7.82,    11.28
      249.0,      10.29,    13.24,     8.87,     7.81,    11.26
      250.0,      10.27,    13.20,     8.86,     7.79,    11.23
      251.0,      10.25,    13.17,     8.84,     7.78,    11.21
      252.0,      10.23,    13.13,     8.83,     7.76,    11.18
      253.0,      10.20,    13.09,     8.81,     7.75,    11.15
      254.0,      10.18,    13.06,     8.80,     7.74,    11.13
      255.0,      10.16,    13.02,     8.78,     7.72,    11.10
      256.0,      10.13,    12.98,     8.77,     7.71,    11.08
      257.0,      10.11,    12.95,     8.75,     7.70,    11.05
      258.0,      10.09,    12.91,     8.74,     7.68,    11.02
      259.0,      10.07,    12.87,     8.72,     7.67,    11.00
      260.0,      10.04,    12.84,     8.71,     7.66,    10.97
      261.0,      10.02,    12.80,     8.69,     7.64,    10.95
      262.0,      10.00,    12.77,     8.68,     7.63,    10.92
      263.0,       9.98,    12.73,     8.66,     7.61,    10.90
      264.0,       9.95,    12.70,     8.65,     7.60,    10.87
      265.0,       9.93,    12.66,     8.64,     7.59,    10.85
      266.0,       9.91,    12.63,     8.62,     7.57,    10.82
      267.0,       9.89,    12.59,     8.61,     7.56,    10.79
      268.0,       9.87,    12.56,     8.59,     7.55,    10.77
      269.0,       9.84,    12.52,     8.58,     7.53,    10.74
      270.0,       9.82,    12.49,     8.56,     7.52,    10.72
      271.0,       9.80,    12.45,     8.55,     7.51,    10.69
      272.0,       9.78,    12.42,     8.53,     7.49,    10.67
      273.0,       9.76,    12.38,     8.52,     7.48,    10.64
      274.0,       9.74,    12.35,     8.50,     7.47,    10.62
      275.0,       9.71,    12.32,     8.49,     7.46,    10.60
      276.0,       9.69,    12.28,     8.48,     7.44,    10.57
      277.0,       9.67,    12.25,     8.46,     7.43,    10.55
      278.0,       9.65,    12.22,     8.45,     7.42,    10.52
      279.0,       9.63,    12.18,     8.43,     7.40,    10.50
      280.0,       9.61,    12.15,     8.42,     7.39,    10.47
      281.0,       9.59,    12.12,     8.40,     7.38,    10.45
      282.0,       9.56,    12.08,     8.39,     7.36,    10.42
      283.0,       9.54,    12.05,     8.38,     7.35,    10.40
      284.0,       9.52,    12.02,     8.36,     7.34,    10.38
      285.0,       9.50,    11.98,     8.35,     7.32,    10.35
      286.0,       9.48,    11.95,     8.33,     7.31,    10.33
      287.0,       9.46,    11.92,     8.32,     7.30,    10.30
      288.0,       9.44,    11.89,     8.31,     7.29,    10.28
      289.0,       9.42,    11.85,     8.29,     7.27,    10.25
      290.0,       9.40,    11.82,     8.28,     7.26,    10.23
      291.0,       9.38,    11.79,     8.26,     7.25,    10.21
      292.0,       9.36,    11.76,     8.25,     7.23,    10.18
      293.0,       9.34,    11.73,     8.24,     7.22,    10.16
      294.0,       9.32,    11.69,     8.22,     7.21,    10.14
      295.0,       9.30,    11.66,     8.21,     7.20,    10.11
      296.0,       9.27,    11.63,     8.19,     7.18,    10.09
      297.0,       9.25,    11.60,     8.18,     7.17,    10.07
      298.0,       9.23,    11.57,     8.17,     7.16,    10.04
      299.0,       9.21,    11.54,     8.15,     7.15,    10.02
      300.0,       9.19,    11.51,     8.14,     7.13,    10.00
      301.0,       9.17,    11.48,     8.13,     7.12,     9.97
      302.0,       9.15,    11.44,     8.11,     7.11,     9.95
      303.0,       9.13,    11.41,     8.10,     7.10,     9.93
      304.0,       9.11,    11.38,     8.08,     7.08,     9.90
      305.0,       9.09,    11.35,     8.07,     7.07,     9.88
      306.0,       9.07,    11.32,     8.06,     7.06,     9.86
      307.0,       9.05,    11.29,     8.04,     7.05,     9.83
      308.0,       9.03,    11.26,     8.03,     7.03,     9.81
      309.0,       9.01,    11.23,     8.02,     7.02,     9.79
      310.0,       8.99,    11.20,     8.00,     7.01,     9.77
