Radius (km), Mean (m/s), NE (m/s), SE (m/s), SW (m/s), NW (m/s)
        0.0,       0.00,     0.00,     0.00,     0.00,     0.00
        1.0,       3.46,     3.44,     3.46,     3.48,     3.46
        2.0,       5.68,     5.72,     5.68,     5.65,     5.68
        3.0,       7.64,     7.78,     7.62,     7.52,     7.65
        4.0,       9.53,     9.80,     9.47,     9.29,     9.55
        5.0,      11.43,    11.88,    11.33,    11.03,    11.47
        6.0,      13.41,    14.06,    13.25,    12.83,    13.49
        7.0,      15.48,    16.34,    15.27,    14.70,    15.61
        8.0,      17.61,    18.67,    17.35,    16.63,    17.80
        9.0,      19.74,    20.96,    19.44,    18.58,    19.97
       10.0,      21.77,    23.11,    21.45,    20.47,    22.05
       11.0,      23.63,    25.04,    23.31,    22.22,    23.94
       12.0,      25.22,    26.65,    24.92,    23.77,    25.54
       13.0,      26.48,    27.89,    26.22,    25.03,    26.79
       14.0,      27.39,    28.73,    27.17,    25.98,    27.67
       15.0,      27.94,    29.21,    27.78,    26.61,    28.18
       16.0,      28.18,    29.36,    28.07,    26.93,    28.35
       17.0,      28.15,    29.25,    28.09,    27.00,    28.25
       18.0,      27.92,    28.96,    27.90,    26.86,    27.96
       19.0,      27.58,    28.57,    27.59,    26.60,    27.54
       20.0,      27.17,    28.14,    27.22,    26.26,    27.07
       21.0,      26.75,    27.70,    26.82,    25.90,    26.60
       22.0,      26.35,    27.28,    26.44,    25.54,    26.13
       23.0,      25.97,    26.89,    26.07,    25.20,    25.70
       24.0,      25.60,    26.51,    25.72,    24.88,    25.28
       25.0,      25.25,    26.15,    25.39,    24.57,    24.89
       26.0,      24.91,    25.80,    25.07,    24.26,    24.50
       27.0,      24.58,    25.46,    24.76,    23.96,    24.13
       28.0,      24.26,    25.13,    24.45,    23.67,    23.78
       29.0,      23.95,    24.82,    24.16,    23.39,    23.44
       30.0,      23.65,    24.52,    23.88,    23.11,    23.11
       31.0,      23.37,    24.23,    23.60,    22.84,    22.79
       32.0,      23.09,    23.95,    23.33,    22.57,    22.49
       33.0,      22.82,    23.68,    23.08,    22.31,    22.19
       34.0,      22.55,    23.42,    22.83,    22.06,    21.91
       35.0,      22.30,    23.17,    22.58,    21.81,    21.64
       36.0,      22.06,    22.93,    22.35,    21.57,    21.38
       37.0,      21.82,    22.70,    22.12,    21.34,    21.12
       38.0,      21.59,    22.48,    21.90,    21.11,    20.88
       39.0,      21.37,    22.26,    21.68,    20.88,    20.64
       40.0,      21.15,    22.05,    21.48,    20.67,    20.42
       41.0,      20.94,    21.85,    21.27,    20.45,    20.20
       42.0,      20.74,    21.66,    21.08,    20.24,    19.99
       43.0,      20.55,    21.47,    20.89,    20.04,    19.79
       44.0,      20.36,    21.29,    20.70,    19.84,    19.59
       45.0,      20.17,    21.12,    20.53,    19.64,    19.40
       46.0,      20.00,    20.95,    20.35,    19.45,    19.22
       47.0,      19.82,    20.79,    20.18,    19.27,    19.05
       48.0,      19.66,    20.64,    20.02,    19.09,    18.88
       49.0,      19.49,    20.49,    19.86,    18.91,    18.71
       50.0,      19.34,    20.34,    19.71,    18.74,    18.56
       51.0,      19.18,    20.20,    19.56,    18.57,    18.40
       52.0,      19.03,    20.07,    19.41,    18.40,    18.26
       53.0,      18.89,    19.94,    19.27,    18.24,    18.11
       54.0,      18.75,    19.81,    19.14,    18.08,    17.98
       55.0,      18.62,    19.69,    19.00,    17.93,    17.85
       56.0,      18.48,    19.57,    18.87,    17.77,    17.72
       57.0,      18.36,    19.46,    18.75,    17.63,    17.59
       58.0,      18.23,    19.35,    18.62,    17.48,    17.47
       59.0,      18.11,    19.24,    18.51,    17.34,    17.36
       60.0,      18.00,    19.14,    18.39,    17.20,    17.25
       61.0,      17.88,    19.04,    18.28,    17.07,    17.14
       62.0,      17.77,    18.95,    18.17,    16.93,    17.04
       63.0,      17.66,    18.85,    18.06,    16.81,    16.94
       64.0,      17.56,    18.76,    17.96,    16.68,    16.84
       65.0,      17.46,    18.68,    17.86,    16.56,    16.74
       66.0,      17.36,    18.59,    17.76,    16.43,    16.65
       67.0,      17.26,    18.51,    17.66,    16.32,    16.56
       68.0,      17.17,    18.43,    17.57,    16.20,    16.48
       69.0,      17.08,    18.35,    17.48,    16.09,    16.39
       70.0,      16.99,    18.28,    17.39,    15.98,    16.31
       71.0,      16.90,    18.21,    17.30,    15.87,    16.24
       72.0,      16.82,    18.14,    17.22,    15.76,    16.16
       73.0,      16.74,    18.07,    17.14,    15.66,    16.09
       74.0,      16.66,    18.00,    17.06,    15.56,    16.02
       75.0,      16.58,    17.94,    16.98,    15.46,    15.95
       76.0,      16.50,    17.88,    16.90,    15.36,    15.88
       77.0,      16.43,    17.82,    16.83,    15.26,    15.81
       78.0,      16.36,    17.76,    16.76,    15.17,    15.75
       79.0,      16.29,    17.70,    16.68,    15.08,    15.69
       80.0,      16.22,    17.65,    16.62,    14.99,    15.63
       81.0,      16.15,    17.59,    16.55,    14.90,    15.57
       82.0,      16.09,    17.54,    16.48,    14.82,    15.52
       83.0,      16.03,    17.49,    16.42,    14.73,    15.46
       84.0,      15.96,    17.44,    16.35,    14.65,    15.41
       85.0,      15.90,    17.39,    16.29,    14.57,    15.36
       86.0,      15.84,    17.35,    16.23,    14.49,    15.31
       87.0,      15.79,    17.30,    16.17,    14.41,    15.26
       88.0,      15.73,    17.26,    16.11,    14.34,    15.21
       89.0,      15.67,    17.21,    16.06,    14.26,    15.16
       90.0,      15.62,    17.17,    16.00,    14.19,    15.12
       91.0,      15.57,    17.13,    15.95,    14.12,    15.07
       92.0,      15.51,    17.09,    15.89,    14.05,    15.03
       93.0,      15.46,    17.05,    15.84,    13.98,    14.99
       94.0,      15.41,    17.01,    15.79,    13.91,    14.94
       95.0,      15.37,    16.97,    15.74,    13.84,    14.90
       96.0,      15.32,    16.94,    15.69,    13.78,    14.86
       97.0,      15.27,    16.90,    15.64,    13.71,    14.83
       98.0,      15.23,    16.86,    15.60,    13.65,    14.79
       99.0,      15.18,    16.83,    15.55,    13.59,    14.75
      100.0,      15.14,    16.80,    15.50,    13.53,    14.72
      101.0,      15.09,    16.76,    15.46,    13.47,    14.68
      102.0,      15.05,    16.73,    15.42,    13.41,    14.65
      103.0,      15.01,    16.70,    15.37,    13.36,    14.61
      104.0,      14.97,    16.67,    15.33,    13.30,    14.58
      105.0,      14.93,    16.64,    15.29,    13.25,    14.55
      106.0,      14.89,    16.61,    15.25,    13.19,    14.51
      107.0,      14.85,    16.58,    15.21,    13.14,    14.48
      108.0,      14.81,    16.55,    15.17,    13.09,    14.45
      109.0,      14.78,    16.52,    15.13,    13.04,    14.42
      110.0,      14.74,    16.49,    15.09,    12.99,    14.39
      111.0,      14.70,    16.47,    15.05,    12.94,    14.36
      112.0,      14.67,    16.44,    15.01,    12.89,    14.33
      113.0,      14.63,    16.41,    14.98,    12.84,    14.31
      114.0,      14.60,    16.39,    14.94,    12.79,    14.28
      115.0,      14.57,    16.36,    14.90,    12.75,    14.25
      116.0,      14.53,    16.34,    14.87,    12.70,    14.22
      117.0,      14.50,    16.31,    14.83,    12.66,    14.20
      118.0,      14.47,    16.29,    14.80,    12.61,    14.17
      119.0,      14.44,    16.26,    14.77,    12.57,    14.15
      120.0,      14.40,    16.24,    14.73,    12.53,    14.12
      121.0,      14.37,    16.21,    14.70,    12.49,    14.10
      122.0,      14.34,    16.19,    14.67,    12.44,    14.07
      123.0,      14.31,    16.17,    14.63,    12.40,    14.05
      124.0,      14.28,    16.15,    14.60,    12.36,    14.02
      125.0,      14.25,    16.12,    14.57,    12.32,    14.00
      126.0,      14.23,    16.10,    14.54,    12.29,    13.98
      127.0,      14.20,    16.08,    14.51,    12.25,    13.95
      128.0,      14.17,    16.06,    14.48,    12.21,    13.93
      129.0,      14.14,    16.04,    14.45,    12.17,    13.91
      130.0,      14.11,    16.02,    14.42,    12.14,    13.88
      131.0,      14.09,    15.99,    14.39,    12.10,    13.86
      132.0,      14.06,    15.97,    14.36,    12.07,    13.84
      133.0,      14.03,    15.95,    14.33,    12.03,    13.82
      134.0,      14.01,    15.93,    14.30,    12.00,    13.80
      135.0,      13.98,    15.91,    14.27,    11.96,    13.78
      136.0,      13.96,    15.89,    14.24,    11.93,    13.76
      137.0,      13.93,    15.87,    14.22,    11.90,    13.74
      138.0,      13.91,    15.85,    14.19,    11.86,    13.71
      139.0,      13.88,    15.83,    14.16,    11.83,    13.69
      140.0,      13.86,    15.81,    14.13,    11.80,    13.67
      141.0,      13.83,    15.80,    14.11,    11.77,    13.65
      142.0,      13.81,    15.78,    14.08,    11.74,    13.63
      143.0,      13.78,    15.76,    14.05,    11.71,    13.61
      144.0,      13.76,    15.74,    14.03,    11.68,    13.59
      145.0,      13.74,    15.72,    14.00,    11.65,    13.58
      146.0,      13.71,    15.70,    13.98,    11.62,    13.56
      147.0,      13.69,    15.68,    13.95,    11.59,    13.54
      148.0,      13.67,    15.67,    13.92,    11.56,    13.52
      149.0,      13.64,    15.65,    13.90,    11.53,    13.50
      150.0,      13.62,    15.63,    13.87,    11.50,    13.48
      151.0,      13.60,    15.61,    13.85,    11.48,    13.46
      152.0,      13.58,    15.59,    13.82,    11.45,    13.44
      153.0,      13.56,    15.58,    13.80,    11.42,    13.42
      154.0,      13.53,    15.56,    13.78,    11.40,    13.41
      155.0,      13.51,    15.54,    13.75,    11.37,    13.39
      156.0,      13.49,    15.52,    13.73,    11.34,    13.37
      157.0,      13.47,    15.51,    13.70,    11.32,    13.35
      158.0,      13.45,    15.49,    13.68,    11.29,    13.33
      159.0,      13.43,    15.47,    13.66,    11.27,    13.32
      160.0,      13.41,    15.46,    13.63,    11.24,    13.30
      161.0,      13.39,    15.44,    13.61,    11.22,    13.28
      162.0,      13.37,    15.42,    13.58,    11.19,    13.26
      163.0,      13.35,    15.41,    13.56,    11.17,    13.25
      164.0,      13.32,    15.39,    13.54,    11.14,    13.23
      165.0,      13.30,    15.37,    13.52,    11.12,    13.21
      166.0,      13.28,    15.36,    13.49,    11.10,    13.19
      167.0,      13.26,    15.34,    13.47,    11.07,    13.18
      168.0,      13.24,    15.32,    13.45,    11.05,    13.16
      169.0,      13.23,    15.31,    13.42,    11.03,    13.14
      170.0,      13.21,    15.29,    13.40,    11.01,    13.12
      171.0,      13.19,    15.27,    13.38,    10.98,    13.11
      172.0,      13.17,    15.26,    13.36,    10.96,    13.09
      173.0,      13.15,    15.24,    13.33,    10.94,    13.07
      174.0,      13.13,    15.22,    13.31,    10.92,    13.06
      175.0,      13.11,    15.21,    13.29,    10.90,    13.04
      176.0,      13.09,    15.19,    13.27,    10.87,    13.02
      177.0,      13.07,    15.18,    13.25,    10.85,    13.01
      178.0,      13.05,    15.16,    13.23,    10.83,    12.99
      179.0,      13.03,    15.14,    13.20,    10.81,    12.97
      180.0,      13.01,    15.13,    13.18,    10.79,    12.96
      181.0,      13.00,    15.11,    13.16,    10.77,    12.94
      182.0,      12.98,    15.10,    13.14,    10.75,    12.93
      183.0,      12.96,    15.08,    13.12,    10.73,    12.91
      184.0,      12.94,    15.07,    13.10,    10.71,    12.89
      185.0,      12.92,    15.05,    13.08,    10.69,    12.88
      186.0,      12.90,    15.04,    13.05,    10.67,    12.86
      187.0,      12.89,    15.02,    13.03,    10.65,    12.84
      188.0,      12.87,    15.00,    13.01,    10.63,    12.83
      189.0,      12.85,    14.99,    12.99,    10.61,    12.81
      190.0,      12.83,    14.97,    12.97,    10.59,    12.80
      191.0,      12.81,    14.96,    12.95,    10.57,    12.78
      192.0,      12.80,    14.94,    12.93,    10.55,    12.76
      193.0,      12.78,    14.93,    12.91,    10.53,    12.75
      194.0,      12.76,    14.91,    12.89,    10.51,    12.73
      195.0,      12.74,    14.90,    12.87,    10.49,    12.72
      196.0,      12.73,    14.88,    12.85,    10.48,    12.70
      197.0,      12.71,    14.87,    12.83,    10.46,    12.69
      198.0,      12.69,    14.85,    12.81,    10.44,    12.67
      199.0,      12.67,    14.84,    12.79,    10.42,    12.65
      200.0,      12.66,    14.82,    12.76,    10.40,    12.64
      201.0,      12.64,    14.81,    12.74,    10.38,    12.62
      202.0,      12.62,    14.79,    12.72,    10.37,    12.61
      203.0,      12.61,    14.78,    12.70,    10.35,    12.59
      204.0,      12.59,    14.76,    12.68,    10.33,    12.58
      205.0,      12.57,    14.75,    12.66,    10.31,    12.56
      206.0,      12.55,    14.73,    12.64,    10.30,    12.55
      207.0,      12.54,    14.72,    12.62,    10.28,    12.53
      208.0,      12.52,    14.70,    12.60,    10.26,    12.51
      209.0,      12.50,    14.69,    12.58,    10.24,    12.50
      210.0,      12.49,    14.67,    12.57,    10.23,    12.48
      211.0,      12.47,    14.66,    12.55,    10.21,    12.47
      212.0,      12.45,    14.64,    12.53,    10.19,    12.45
      213.0,      12.44,    14.63,    12.51,    10.18,    12.44
      214.0,      12.42,    14.61,    12.49,    10.16,    12.42
      215.0,      12.40,    14.60,    12.47,    10.14,    12.41
      216.0,      12.39,    14.58,    12.45,    10.12,    12.39
      217.0,      12.37,    14.57,    12.43,    10.11,    12.38
      218.0,      12.35,    14.55,    12.41,    10.09,    12.36
      219.0,      12.34,    14.54,    12.39,    10.08,    12.35
      220.0,      12.32,    14.52,    12.37,    10.06,    12.33
      221.0,      12.30,    14.51,    12.35,    10.04,    12.32
      222.0,      12.29,    14.49,    12.33,    10.03,    12.30
      223.0,      12.27,    14.48,    12.31,    10.01,    12.29
      224.0,      12.26,    14.46,    12.29,     9.99,    12.27
      225.0,      12.24,    14.45,    12.27,     9.98,    12.26
      226.0,      12.22,    14.44,    12.26,     9.96,    12.24
      227.0,      12.21,    14.42,    12.24,     9.95,    12.23
      228.0,      12.19,    14.41,    12.22,     9.93,    12.21
      229.0,      12.18,    14.39,    12.20,     9.91,    12.20
      230.0,      12.16,    14.38,    12.18,     9.90,    12.18
      231.0,      12.14,    14.36,    12.16,     9.88,    12.17
      232.0,      12.13,    14.35,    12.14,     9.87,    12.15
      233.0,      12.11,    14.33,    12.12,     9.85,    12.14
      234.0,      12.10,    14.32,    12.10,     9.84,    12.12
      235.0,      12.08,    14.30,    12.09,     9.82,    12.11
      236.0,      12.06,    14.29,    12.07,     9.80,    12.09
      237.0,      12.05,    14.28,    12.05,     9.79,    12.08
      238.0,      12.03,    14.26,    12.03,     9.77,    12.06
      239.0,      12.02,    14.25,    12.01,     9.76,    12.05
      240.0,      12.00,    14.23,    11.99,     9.74,    12.04
      241.0,      11.99,    14.22,    11.97,     9.73,    12.02
      242.0,      11.97,    14.20,    11.95,     9.71,    12.01
      243.0,      11.95,    14.19,    11.94,     9.70,    11.99
      244.0,      11.94,    14.18,    11.92,     9.68,    11.98
      245.0,      11.92,    14.16,    11.90,     9.67,    11.96
      246.0,      11.91,    14.15,    11.88,     9.65,    11.95
      247.0,      11.89,    14.13,    11.86,     9.64,    11.93
      248.0,      11.88,    14.12,    11.84,     9.62,    11.92
      249.0,      11.86,    14.11,    11.83,     9.61,    11.90
      250.0,      11.85,    14.09,    11.81,     9.59,    11.89
      251.0,      11.83,    14.08,    11.79,     9.58,    11.88
      252.0,      11.82,    14.06,    11.77,     9.56,    11.86
      253.0,      11.80,    14.05,    11.75,     9.55,    11.85
      254.0,      11.78,    14.03,    11.74,     9.54,    11.83
      255.0,      11.77,    14.02,    11.72,     9.52,    11.82
      256.0,      11.75,    14.01,    11.70,     9.51,    11.80
      257.0,      11.74,    13.99,    11.68,     9.49,    11.79
      258.0,      11.72,    13.98,    11.66,     9.48,    11.78
      259.0,      11.71,    13.96,    11.65,     9.46,    11.76
      260.0,      11.69,    13.95,    11.63,     9.45,    11.75
      261.0,      11.68,    13.94,    11.61,     9.43,    11.73
      262.0,      11.66,    13.92,    11.59,     9.42,    11.72
      263.0,      11.65,    13.91,    11.57,     9.41,    11.70
      264.0,      11.63,    13.89,    11.56,     9.39,    11.69
      265.0,      11.62,    13.88,    11.54,     9.38,    11.68
      266.0,      11.60,    13.87,    11.52,     9.36,    11.66
      267.0,      11.59,    13.85,    11.50,     9.35,    11.65
      268.0,      11.57,    13.84,    11.49,     9.34,    11.63
      269.0,      11.56,    13.83,    11.47,     9.32,    11.62
      270.0,      11.54,    13.81,    11.45,     9.31,    11.61
      271.0,      11.53,    13.80,    11.43,     9.29,    11.59
      272.0,      11.51,    13.78,    11.41,     9.28,    11.58
      273.0,      11.50,    13.77,    11.40,     9.27,    11.56
      274.0,      11.48,    13.76,    11.38,     9.25,    11.55
      275.0,      11.47,    13.74,    11.36,     9.24,    11.54
      276.0,      11.45,    13.73,    11.34,     9.22,    11.52
      277.0,      11.44,    13.72,    11.33,     9.21,    11.51
      278.0,      11.43,    13.70,    11.31,     9.20,    11.49
      279.0,      11.41,    13.69,    11.29,     9.18,    11.48
      280.0,      11.40,    13.67,    11.28,     9.17,    11.47
      281.0,      11.38,    13.66,    11.26,     9.16,    11.45
      282.0,      11.37,    13.65,    11.24,     9.14,    11.44
      283.0,      11.35,    13.63,    11.22,     9.13,    11.42
      284.0,      11.34,    13.62,    11.21,     9.12,    11.41
      285.0,      11.32,    13.61,    11.19,     9.10,    11.40
      286.0,      11.31,    13.59,    11.17,     9.09,    11.38
      287.0,      11.29,    13.58,    11.15,     9.07,    11.37
      288.0,      11.28,    13.56,    11.14,     9.06,    11.36
      289.0,      11.27,    13.55,    11.12,     9.05,    11.34
      290.0,      11.25,    13.54,    11.10,     9.03,    11.33
      291.0,      11.24,    13.52,    11.09,     9.02,    11.31
      292.0,      11.22,    13.51,    11.07,     9.01,    11.30
      293.0,      11.21,    13.50,    11.05,     8.99,    11.29
      294.0,      11.19,    13.48,    11.04,     8.98,    11.27
      295.0,      11.18,    13.47,    11.02,     8.97,    11.26
      296.0,      11.16,    13.46,    11.00,     8.96,    11.25
      297.0,      11.15,    13.44,    10.98,     8.94,    11.23
      298.0,      11.14,    13.43,    10.97,     8.93,    11.22
      299.0,      11.12,    13.42,    10.95,     8.92,    11.21
      300.0,      11.11,    13.40,    10.93,     8.90,    11.19
      301.0,      11.09,    13.39,    10.92,     8.89,    11.18
      302.0,      11.08,    13.38,    10.90,     8.88,    11.16
      303.0,      11.07,    13.36,    10.88,     8.86,    11.15
      304.0,      11.05,    13.35,    10.87,     8.85,    11.14
      305.0,      11.04,    13.34,    10.85,     8.84,    11.12
      306.0,      11.02,    13.32,    10.83,     8.82,    11.11
      307.0,      11.01,    13.31,    10.82,     8.81,    11.10
      308.0,      10.99,    13.30,    10.80,     8.80,    11.08
      309.0,      10.98,    13.28,    10.78,     8.79,    11.07
      310.0,      10.97,    13.27,    10.77,     8.77,    11.06
