Radius (km), Mean (m/s), NE (m/s), SE (m/s), SW (m/s), NW (m/s)
        0.0,       0.00,     0.00,     0.00,     0.00,     0.00
        1.0,       2.61,     2.59,     2.61,     2.62,     2.63
        2.0,       4.49,     4.47,     4.48,     4.49,     4.50
        3.0,       6.15,     6.14,     6.15,     6.16,     6.16
        4.0,       7.70,     7.70,     7.70,     7.70,     7.70
        5.0,       9.16,     9.18,     9.16,     9.16,     9.15
        6.0,      10.56,    10.59,    10.56,    10.55,    10.53
        7.0,      11.91,    11.96,    11.91,    11.90,    11.87
        8.0,      13.22,    13.28,    13.22,    13.20,    13.16
        9.0,      14.49,    14.57,    14.49,    14.47,    14.41
       10.0,      15.73,    15.83,    15.73,    15.70,    15.64
       11.0,      16.94,    17.06,    16.95,    16.91,    16.83
       12.0,      18.13,    18.27,    18.14,    18.10,    18.02
       13.0,      19.33,    19.48,    19.32,    19.27,    19.24
       14.0,      20.56,    20.72,    20.52,    20.46,    20.51
       15.0,      21.85,    22.02,    21.78,    21.71,    21.89
       16.0,      23.25,    23.40,    23.13,    23.05,    23.39
       17.0,      24.74,    24.88,    24.58,    24.50,    24.99
       18.0,      26.31,    26.42,    26.11,    26.03,    26.66
       19.0,      27.91,    27.99,    27.69,    27.62,    28.33
       20.0,      29.47,    29.53,    29.25,    29.19,    29.92
       21.0,      30.93,    30.97,    30.72,    30.68,    31.36
       22.0,      32.22,    32.26,    32.04,    32.01,    32.57
       23.0,      33.28,    33.34,    33.14,    33.11,    33.52
       24.0,      34.07,    34.18,    33.99,    33.95,    34.18
       25.0,      34.60,    34.77,    34.56,    34.51,    34.56
       26.0,      34.87,    35.14,    34.87,    34.80,    34.69
       27.0,      34.94,    35.32,    34.96,    34.85,    34.62
       28.0,      34.84,    35.34,    34.88,    34.72,    34.41
       29.0,      34.64,    35.28,    34.68,    34.47,    34.13
       30.0,      34.38,    35.16,    34.41,    34.15,    33.80
       31.0,      34.11,    35.02,    34.13,    33.81,    33.48
       32.0,      33.85,    34.89,    33.86,    33.48,    33.17
       33.0,      33.60,    34.77,    33.60,    33.17,    32.87
       34.0,      33.37,    34.65,    33.36,    32.88,    32.59
       35.0,      33.15,    34.54,    33.13,    32.61,    32.31
       36.0,      32.93,    34.43,    32.91,    32.34,    32.04
       37.0,      32.72,    34.33,    32.70,    32.08,    31.77
       38.0,      32.51,    34.22,    32.49,    31.83,    31.51
       39.0,      32.31,    34.11,    32.28,    31.59,    31.25
       40.0,      32.11,    34.00,    32.08,    31.35,    31.00
       41.0,      31.91,    33.89,    31.88,    31.12,    30.76
       42.0,      31.72,    33.78,    31.69,    30.89,    30.52
       43.0,      31.53,    33.68,    31.50,    30.67,    30.28
       44.0,      31.35,    33.57,    31.31,    30.46,    30.05
       45.0,      31.17,    33.46,    31.13,    30.25,    29.83
       46.0,      30.99,    33.36,    30.95,    30.04,    29.61
       47.0,      30.82,    33.25,    30.78,    29.84,    29.39
       48.0,      30.65,    33.15,    30.61,    29.65,    29.18
       49.0,      30.48,    33.04,    30.44,    29.46,    28.97
       50.0,      30.31,    32.94,    30.28,    29.27,    28.77
       51.0,      30.15,    32.83,    30.12,    29.09,    28.57
       52.0,      29.99,    32.73,    29.96,    28.91,    28.37
       53.0,      29.84,    32.63,    29.81,    28.74,    28.18
       54.0,      29.68,    32.52,    29.65,    28.56,    28.00
       55.0,      29.53,    32.42,    29.50,    28.40,    27.81
       56.0,      29.39,    32.32,    29.36,    28.23,    27.63
       57.0,      29.24,    32.22,    29.21,    28.07,    27.46
       58.0,      29.10,    32.12,    29.07,    27.92,    27.29
       59.0,      28.96,    32.01,    28.93,    27.76,    27.12
       60.0,      28.82,    31.91,    28.79,    27.61,    26.95
       61.0,      28.68,    31.81,    28.66,    27.47,    26.79
       62.0,      28.55,    31.71,    28.52,    27.32,    26.63
       63.0,      28.41,    31.61,    28.39,    27.18,    26.47
       64.0,      28.28,    31.51,    28.26,    27.04,    26.32
       65.0,      28.16,    31.41,    28.14,    26.90,    26.17
       66.0,      28.03,    31.31,    28.01,    26.77,    26.02
       67.0,      27.90,    31.22,    27.89,    26.63,    25.88
       68.0,      27.78,    31.12,    27.76,    26.50,    25.74
       69.0,      27.66,    31.02,    27.64,    26.38,    25.60
       70.0,      27.54,    30.92,    27.52,    26.25,    25.47
       71.0,      27.42,    30.82,    27.41,    26.13,    25.33
       72.0,      27.31,    30.73,    27.29,    26.00,    25.20
       73.0,      27.19,    30.63,    27.18,    25.88,    25.07
       74.0,      27.08,    30.54,    27.06,    25.76,    24.95
       75.0,      26.97,    30.44,    26.95,    25.65,    24.82
       76.0,      26.86,    30.34,    26.84,    25.53,    24.70
       77.0,      26.75,    30.25,    26.73,    25.42,    24.58
       78.0,      26.64,    30.15,    26.62,    25.31,    24.47
       79.0,      26.53,    30.06,    26.52,    25.20,    24.35
       80.0,      26.43,    29.96,    26.41,    25.09,    24.24
       81.0,      26.32,    29.87,    26.31,    24.98,    24.13
       82.0,      26.22,    29.78,    26.20,    24.88,    24.02
       83.0,      26.12,    29.68,    26.10,    24.77,    23.91
       84.0,      26.02,    29.59,    26.00,    24.67,    23.81
       85.0,      25.92,    29.50,    25.90,    24.57,    23.71
       86.0,      25.82,    29.41,    25.80,    24.47,    23.61
       87.0,      25.72,    29.31,    25.70,    24.37,    23.51
       88.0,      25.63,    29.22,    25.60,    24.27,    23.41
       89.0,      25.53,    29.13,    25.51,    24.17,    23.31
       90.0,      25.44,    29.04,    25.41,    24.07,    23.22
       91.0,      25.34,    28.95,    25.31,    23.98,    23.13
       92.0,      25.25,    28.86,    25.22,    23.88,    23.04
       93.0,      25.16,    28.77,    25.13,    23.79,    22.95
       94.0,      25.07,    28.68,    25.03,    23.70,    22.86
       95.0,      24.98,    28.59,    24.94,    23.61,    22.77
       96.0,      24.89,    28.50,    24.85,    23.52,    22.69
       97.0,      24.80,    28.41,    24.76,    23.43,    22.60
       98.0,      24.71,    28.32,    24.67,    23.34,    22.52
       99.0,      24.63,    28.23,    24.58,    23.25,    22.44
      100.0,      24.54,    28.14,    24.49,    23.16,    22.36
      101.0,      24.46,    28.06,    24.40,    23.08,    22.28
      102.0,      24.37,    27.97,    24.32,    22.99,    22.21
      103.0,      24.29,    27.88,    24.23,    22.91,    22.13
      104.0,      24.20,    27.80,    24.14,    22.82,    22.06
      105.0,      24.12,    27.71,    24.06,    22.74,    21.98
      106.0,      24.04,    27.62,    23.97,    22.66,    21.91
      107.0,      23.96,    27.54,    23.89,    22.57,    21.84
      108.0,      23.88,    27.45,    23.80,    22.49,    21.77
      109.0,      23.80,    27.37,    23.72,    22.41,    21.70
      110.0,      23.72,    27.28,    23.64,    22.33,    21.63
      111.0,      23.64,    27.20,    23.56,    22.25,    21.57
      112.0,      23.56,    27.11,    23.47,    22.17,    21.50
      113.0,      23.49,    27.03,    23.39,    22.09,    21.44
      114.0,      23.41,    26.94,    23.31,    22.01,    21.37
      115.0,      23.33,    26.86,    23.23,    21.94,    21.31
      116.0,      23.26,    26.78,    23.15,    21.86,    21.25
      117.0,      23.18,    26.69,    23.07,    21.78,    21.19
      118.0,      23.11,    26.61,    22.99,    21.71,    21.12
      119.0,      23.03,    26.53,    22.91,    21.63,    21.07
      120.0,      22.96,    26.44,    22.84,    21.56,    21.01
      121.0,      22.89,    26.36,    22.76,    21.48,    20.95
      122.0,      22.81,    26.28,    22.68,    21.41,    20.89
      123.0,      22.74,    26.20,    22.60,    21.33,    20.83
      124.0,      22.67,    26.12,    22.53,    21.26,    20.78
      125.0,      22.60,    26.04,    22.45,    21.19,    20.72
      126.0,      22.53,    25.96,    22.37,    21.11,    20.67
      127.0,      22.46,    25.88,    22.30,    21.04,    20.62
      128.0,      22.39,    25.80,    22.22,    20.97,    20.56
      129.0,      22.32,    25.72,    22.15,    20.90,    20.51
      130.0,      22.25,    25.64,    22.07,    20.83,    20.46
      131.0,      22.18,    25.56,    22.00,    20.76,    20.41
      132.0,      22.11,    25.48,    21.92,    20.69,    20.36
      133.0,      22.04,    25.40,    21.85,    20.62,    20.31
      134.0,      21.98,    25.32,    21.78,    20.55,    20.26
      135.0,      21.91,    25.24,    21.70,    20.48,    20.21
      136.0,      21.84,    25.16,    21.63,    20.41,    20.16
      137.0,      21.78,    25.09,    21.56,    20.34,    20.12
      138.0,      21.71,    25.01,    21.49,    20.27,    20.07
      139.0,      21.64,    24.93,    21.42,    20.20,    20.02
      140.0,      21.58,    24.85,    21.35,    20.14,    19.98
      141.0,      21.51,    24.78,    21.27,    20.07,    19.93
      142.0,      21.45,    24.70,    21.20,    20.00,    19.89
      143.0,      21.38,    24.63,    21.13,    19.94,    19.84
      144.0,      21.32,    24.55,    21.06,    19.87,    19.80
      145.0,      21.26,    24.47,    20.99,    19.80,    19.76
      146.0,      21.19,    24.40,    20.92,    19.74,    19.71
      147.0,      21.13,    24.32,    20.85,    19.67,    19.67
      148.0,      21.07,    24.25,    20.79,    19.61,    19.63
      149.0,      21.00,    24.17,    20.72,    19.54,    19.59
      150.0,      20.94,    24.10,    20.65,    19.48,    19.55
      151.0,      20.88,    24.02,    20.58,    19.41,    19.51
      152.0,      20.82,    23.95,    20.51,    19.35,    19.47
      153.0,      20.76,    23.88,    20.44,    19.29,    19.43
      154.0,      20.70,    23.80,    20.38,    19.22,    19.39
      155.0,      20.64,    23.73,    20.31,    19.16,    19.35
      156.0,      20.58,    23.66,    20.24,    19.10,    19.31
      157.0,      20.52,    23.58,    20.18,    19.03,    19.27
      158.0,      20.46,    23.51,    20.11,    18.97,    19.23
      159.0,      20.40,    23.44,    20.04,    18.91,    19.19
      160.0,      20.34,    23.37,    19.98,    18.85,    19.16
      161.0,      20.28,    23.30,    19.91,    18.78,    19.12
      162.0,      20.22,    23.22,    19.85,    18.72,    19.08
      163.0,      20.16,    23.15,    19.78,    18.66,    19.05
      164.0,      20.10,    23.08,    19.72,    18.60,    19.01
      165.0,      20.04,    23.01,    19.65,    18.54,    18.98
      166.0,      19.99,    22.94,    19.59,    18.48,    18.94
      167.0,      19.93,    22.87,    19.52,    18.42,    18.90
      168.0,      19.87,    22.80,    19.46,    18.36,    18.87
      169.0,      19.81,    22.73,    19.40,    18.30,    18.84
      170.0,      19.76,    22.66,    19.33,    18.24,    18.80
      171.0,      19.70,    22.59,    19.27,    18.18,    18.77
      172.0,      19.65,    22.52,    19.21,    18.12,    18.73
      173.0,      19.59,    22.45,    19.14,    18.06,    18.70
      174.0,      19.53,    22.38,    19.08,    18.00,    18.67
      175.0,      19.48,    22.32,    19.02,    17.94,    18.63
      176.0,      19.42,    22.25,    18.96,    17.89,    18.60
      177.0,      19.37,    22.18,    18.89,    17.83,    18.57
      178.0,      19.31,    22.11,    18.83,    17.77,    18.53
      179.0,      19.26,    22.04,    18.77,    17.71,    18.50
      180.0,      19.20,    21.98,    18.71,    17.65,    18.47
      181.0,      19.15,    21.91,    18.65,    17.60,    18.44
      182.0,      19.09,    21.84,    18.59,    17.54,    18.41
      183.0,      19.04,    21.78,    18.53,    17.48,    18.38
      184.0,      18.99,    21.71,    18.47,    17.43,    18.34
      185.0,      18.93,    21.64,    18.41,    17.37,    18.31
      186.0,      18.88,    21.58,    18.35,    17.31,    18.28
      187.0,      18.83,    21.51,    18.29,    17.26,    18.25
      188.0,      18.77,    21.44,    18.23,    17.20,    18.22
      189.0,      18.72,    21.38,    18.17,    17.15,    18.19
      190.0,      18.67,    21.31,    18.11,    17.09,    18.16
      191.0,      18.62,    21.25,    18.05,    17.03,    18.13
      192.0,      18.56,    21.18,    17.99,    16.98,    18.10
      193.0,      18.51,    21.12,    17.93,    16.92,    18.07
      194.0,      18.46,    21.06,    17.87,    16.87,    18.04
      195.0,      18.41,    20.99,    17.81,    16.82,    18.01
      196.0,      18.36,    20.93,    17.76,    16.76,    17.99
      197.0,      18.31,    20.86,    17.70,    16.71,    17.96
      198.0,      18.26,    20.80,    17.64,    16.65,    17.93
      199.0,      18.20,    20.74,    17.58,    16.60,    17.90
      200.0,      18.15,    20.67,    17.53,    16.55,    17.87
      201.0,      18.10,    20.61,    17.47,    16.49,    17.84
      202.0,      18.05,    20.55,    17.41,    16.44,    17.81
      203.0,      18.00,    20.49,    17.35,    16.39,    17.79
      204.0,      17.95,    20.42,    17.30,    16.33,    17.76
      205.0,      17.90,    20.36,    17.24,    16.28,    17.73
      206.0,      17.85,    20.30,    17.19,    16.23,    17.70
      207.0,      17.80,    20.24,    17.13,    16.17,    17.68
      208.0,      17.76,    20.18,    17.07,    16.12,    17.65
      209.0,      17.71,    20.12,    17.02,    16.07,    17.62
      210.0,      17.66,    20.05,    16.96,    16.02,    17.59
      211.0,      17.61,    19.99,    16.91,    15.97,    17.57
      212.0,      17.56,    19.93,    16.85,    15.92,    17.54
      213.0,      17.51,    19.87,    16.80,    15.86,    17.51
      214.0,      17.46,    19.81,    16.74,    15.81,    17.49
      215.0,      17.42,    19.75,    16.69,    15.76,    17.46
      216.0,      17.37,    19.69,    16.63,    15.71,    17.43
      217.0,      17.32,    19.63,    16.58,    15.66,    17.41
      218.0,      17.27,    19.57,    16.53,    15.61,    17.38
      219.0,      17.23,    19.51,    16.47,    15.56,    17.36
      220.0,      17.18,    19.45,    16.42,    15.51,    17.33
      221.0,      17.13,    19.40,    16.37,    15.46,    17.30
      222.0,      17.08,    19.34,    16.31,    15.41,    17.28
      223.0,      17.04,    19.28,    16.26,    15.36,    17.25
      224.0,      16.99,    19.22,    16.21,    15.31,    17.23
      225.0,      16.94,    19.16,    16.15,    15.26,    17.20
      226.0,      16.90,    19.10,    16.10,    15.21,    17.18
      227.0,      16.85,    19.05,    16.05,    15.16,    17.15
      228.0,      16.81,    18.99,    16.00,    15.11,    17.13
      229.0,      16.76,    18.93,    15.95,    15.06,    17.10
      230.0,      16.71,    18.87,    15.89,    15.02,    17.08
      231.0,      16.67,    18.82,    15.84,    14.97,    17.05
      232.0,      16.62,    18.76,    15.79,    14.92,    17.03
      233.0,      16.58,    18.70,    15.74,    14.87,    17.00
      234.0,      16.53,    18.65,    15.69,    14.82,    16.98
      235.0,      16.49,    18.59,    15.64,    14.78,    16.95
      236.0,      16.44,    18.53,    15.59,    14.73,    16.93
      237.0,      16.40,    18.48,    15.54,    14.68,    16.90
      238.0,      16.35,    18.42,    15.48,    14.63,    16.88
      239.0,      16.31,    18.37,    15.43,    14.59,    16.85
      240.0,      16.27,    18.31,    15.38,    14.54,    16.83
      241.0,      16.22,    18.26,    15.33,    14.49,    16.81
      242.0,      16.18,    18.20,    15.28,    14.45,    16.78
      243.0,      16.13,    18.15,    15.23,    14.40,    16.76
      244.0,      16.09,    18.09,    15.19,    14.35,    16.73
      245.0,      16.05,    18.04,    15.14,    14.31,    16.71
      246.0,      16.00,    17.98,    15.09,    14.26,    16.69
      247.0,      15.96,    17.93,    15.04,    14.21,    16.66
      248.0,      15.92,    17.87,    14.99,    14.17,    16.64
      249.0,      15.87,    17.82,    14.94,    14.12,    16.62
      250.0,      15.83,    17.77,    14.89,    14.08,    16.59
      251.0,      15.79,    17.71,    14.84,    14.03,    16.57
      252.0,      15.75,    17.66,    14.80,    13.99,    16.54
      253.0,      15.70,    17.61,    14.75,    13.94,    16.52
      254.0,      15.66,    17.55,    14.70,    13.90,    16.50
      255.0,      15.62,    17.50,    14.65,    13.85,    16.47
      256.0,      15.58,    17.45,    14.60,    13.81,    16.45
      257.0,      15.54,    17.40,    14.56,    13.76,    16.43
      258.0,      15.49,    17.34,    14.51,    13.72,    16.41
      259.0,      15.45,    17.29,    14.46,    13.67,    16.38
      260.0,      15.41,    17.24,    14.41,    13.63,    16.36
      261.0,      15.37,    17.19,    14.37,    13.59,    16.34
      262.0,      15.33,    17.14,    14.32,    13.54,    16.31
      263.0,      15.29,    17.09,    14.27,    13.50,    16.29
      264.0,      15.25,    17.03,    14.23,    13.46,    16.27
      265.0,      15.21,    16.98,    14.18,    13.41,    16.25
      266.0,      15.17,    16.93,    14.14,    13.37,    16.22
      267.0,      15.12,    16.88,    14.09,    13.33,    16.20
      268.0,      15.08,    16.83,    14.04,    13.28,    16.18
      269.0,      15.04,    16.78,    14.00,    13.24,    16.16
      270.0,      15.00,    16.73,    13.95,    13.20,    16.13
      271.0,      14.96,    16.68,    13.91,    13.16,    16.11
      272.0,      14.92,    16.63,    13.86,    13.11,    16.09
      273.0,      14.88,    16.58,    13.82,    13.07,    16.07
      274.0,      14.84,    16.53,    13.77,    13.03,    16.04
      275.0,      14.80,    16.48,    13.73,    12.99,    16.02
      276.0,      14.77,    16.43,    13.68,    12.94,    16.00
      277.0,      14.73,    16.38,    13.64,    12.90,    15.98
      278.0,      14.69,    16.33,    13.59,    12.86,    15.96
      279.0,      14.65,    16.29,    13.55,    12.82,    15.93
      280.0,      14.61,    16.24,    13.51,    12.78,    15.91
      281.0,      14.57,    16.19,    13.46,    12.74,    15.89
      282.0,      14.53,    16.14,    13.42,    12.70,    15.87
      283.0,      14.49,    16.09,    13.38,    12.66,    15.85
      284.0,      14.45,    16.04,    13.33,    12.62,    15.82
      285.0,      14.42,    16.00,    13.29,    12.57,    15.80
      286.0,      14.38,    15.95,    13.25,    12.53,    15.78
      287.0,      14.34,    15.90,    13.20,    12.49,    15.76
      288.0,      14.30,    15.85,    13.16,    12.45,    15.74
      289.0,      14.26,    15.81,    13.12,    12.41,    15.72
      290.0,      14.23,    15.76,    13.07,    12.37,    15.69
      291.0,      14.19,    15.71,    13.03,    12.33,    15.67
      292.0,      14.15,    15.66,    12.99,    12.29,    15.65
      293.0,      14.11,    15.62,    12.95,    12.25,    15.63
      294.0,      14.07,    15.57,    12.91,    12.21,    15.61
      295.0,      14.04,    15.52,    12.86,    12.18,    15.59
      296.0,      14.00,    15.48,    12.82,    12.14,    15.57
      297.0,      13.96,    15.43,    12.78,    12.10,    15.55
      298.0,      13.93,    15.39,    12.74,    12.06,    15.52
      299.0,      13.89,    15.34,    12.70,    12.02,    15.50
      300.0,      13.85,    15.29,    12.66,    11.98,    15.48
      301.0,      13.82,    15.25,    12.61,    11.94,    15.46
      302.0,      13.78,    15.20,    12.57,    11.90,    15.44
      303.0,      13.74,    15.16,    12.53,    11.87,    15.42
      304.0,      13.71,    15.11,    12.49,    11.83,    15.40
      305.0,      13.67,    15.07,    12.45,    11.79,    15.38
      306.0,      13.64,    15.02,    12.41,    11.75,    15.36
      307.0,      13.60,    14.98,    12.37,    11.71,    15.33
      308.0,      13.56,    14.93,    12.33,    11.68,    15.31
      309.0,      13.53,    14.89,    12.29,    11.64,    15.29
      310.0,      13.49,    14.85,    12.25,    11.60,    15.27
