Radius (km), Mean (m/s), NE (m/s), SE (m/s), SW (m/s), NW (m/s)
        0.0,       0.00,     0.00,     0.00,     0.00,     0.00
        1.0,       2.54,     2.49,     2.53,     2.57,     2.57
        2.0,       4.42,     4.37,     4.41,     4.45,     4.45
        3.0,       6.11,     6.09,     6.11,     6.13,     6.13
        4.0,       7.70,     7.69,     7.70,     7.70,     7.70
        5.0,       9.20,     9.23,     9.21,     9.19,     9.19
        6.0,      10.65,    10.70,    10.66,    10.61,    10.61
        7.0,      12.04,    12.13,    12.06,    11.99,    11.99
        8.0,      13.40,    13.53,    13.43,    13.33,    13.33
        9.0,      14.73,    14.89,    14.76,    14.63,    14.63
       10.0,      16.02,    16.22,    16.07,    15.90,    15.90
       11.0,      17.29,    17.53,    17.34,    17.15,    17.15
       12.0,      18.54,    18.83,    18.60,    18.37,    18.37
       13.0,      19.79,    20.12,    19.85,    19.59,    19.60
       14.0,      21.06,    21.45,    21.11,    20.83,    20.86
       15.0,      22.40,    22.85,    22.42,    22.12,    22.19
       16.0,      23.83,    24.34,    23.82,    23.50,    23.64
       17.0,      25.36,    25.94,    25.31,    24.98,    25.21
       18.0,      26.97,    27.62,    26.88,    26.53,    26.86
       19.0,      28.63,    29.33,    28.49,    28.12,    28.57
       20.0,      30.26,    31.01,    30.10,    29.69,    30.24
       21.0,      31.79,    32.58,    31.62,    31.18,    31.80
       22.0,      33.17,    33.98,    33.01,    32.51,    33.17
       23.0,      34.31,    35.15,    34.19,    33.63,    34.28
       24.0,      35.20,    36.06,    35.13,    34.51,    35.10
       25.0,      35.81,    36.70,    35.81,    35.14,    35.61
       26.0,      36.17,    37.09,    36.24,    35.52,    35.85
       27.0,      36.31,    37.26,    36.45,    35.68,    35.84
       28.0,      36.27,    37.28,    36.49,    35.69,    35.64
       29.0,      36.13,    37.19,    36.41,    35.58,    35.34
       30.0,      35.92,    37.04,    36.26,    35.42,    34.97
       31.0,      35.70,    36.87,    36.09,    35.23,    34.59
       32.0,      35.48,    36.71,    35.92,    35.05,    34.23
       33.0,      35.27,    36.57,    35.76,    34.88,    33.89
       34.0,      35.08,    36.43,    35.62,    34.72,    33.57
       35.0,      34.90,    36.29,    35.48,    34.56,    33.26
       36.0,      34.72,    36.16,    35.34,    34.41,    32.96
       37.0,      34.54,    36.02,    35.20,    34.25,    32.68
       38.0,      34.36,    35.89,    35.06,    34.10,    32.40
       39.0,      34.19,    35.76,    34.93,    33.95,    32.13
       40.0,      34.02,    35.63,    34.79,    33.80,    31.87
       41.0,      33.85,    35.49,    34.66,    33.65,    31.61
       42.0,      33.69,    35.36,    34.52,    33.50,    31.36
       43.0,      33.52,    35.23,    34.39,    33.35,    31.12
       44.0,      33.36,    35.10,    34.25,    33.21,    30.89
       45.0,      33.20,    34.97,    34.12,    33.06,    30.66
       46.0,      33.05,    34.85,    33.99,    32.91,    30.44
       47.0,      32.89,    34.72,    33.85,    32.77,    30.23
       48.0,      32.74,    34.59,    33.72,    32.63,    30.02
       49.0,      32.59,    34.47,    33.59,    32.48,    29.82
       50.0,      32.44,    34.34,    33.46,    32.34,    29.62
       51.0,      32.29,    34.21,    33.33,    32.20,    29.43
       52.0,      32.15,    34.09,    33.20,    32.06,    29.24
       53.0,      32.00,    33.96,    33.07,    31.92,    29.05
       54.0,      31.86,    33.84,    32.94,    31.78,    28.88
       55.0,      31.72,    33.72,    32.81,    31.64,    28.70
       56.0,      31.58,    33.60,    32.69,    31.51,    28.53
       57.0,      31.44,    33.47,    32.56,    31.37,    28.37
       58.0,      31.31,    33.35,    32.43,    31.24,    28.21
       59.0,      31.17,    33.23,    32.30,    31.10,    28.05
       60.0,      31.04,    33.11,    32.18,    30.97,    27.90
       61.0,      30.91,    32.99,    32.05,    30.83,    27.74
       62.0,      30.78,    32.87,    31.93,    30.70,    27.60
       63.0,      30.65,    32.76,    31.81,    30.57,    27.45
       64.0,      30.52,    32.64,    31.68,    30.44,    27.31
       65.0,      30.39,    32.52,    31.56,    30.31,    27.18
       66.0,      30.26,    32.40,    31.44,    30.18,    27.04
       67.0,      30.14,    32.29,    31.31,    30.05,    26.91
       68.0,      30.02,    32.17,    31.19,    29.92,    26.78
       69.0,      29.89,    32.06,    31.07,    29.80,    26.65
       70.0,      29.77,    31.94,    30.95,    29.67,    26.53
       71.0,      29.65,    31.83,    30.83,    29.54,    26.41
       72.0,      29.53,    31.71,    30.71,    29.42,    26.29
       73.0,      29.41,    31.60,    30.59,    29.29,    26.17
       74.0,      29.30,    31.49,    30.47,    29.17,    26.06
       75.0,      29.18,    31.38,    30.35,    29.05,    25.95
       76.0,      29.06,    31.26,    30.23,    28.93,    25.83
       77.0,      28.95,    31.15,    30.12,    28.80,    25.73
       78.0,      28.84,    31.04,    30.00,    28.68,    25.62
       79.0,      28.72,    30.93,    29.88,    28.56,    25.51
       80.0,      28.61,    30.82,    29.77,    28.44,    25.41
       81.0,      28.50,    30.71,    29.65,    28.32,    25.31
       82.0,      28.39,    30.61,    29.54,    28.21,    25.21
       83.0,      28.28,    30.50,    29.42,    28.09,    25.11
       84.0,      28.17,    30.39,    29.31,    27.97,    25.01
       85.0,      28.06,    30.28,    29.19,    27.86,    24.92
       86.0,      27.96,    30.18,    29.08,    27.74,    24.82
       87.0,      27.85,    30.07,    28.97,    27.62,    24.73
       88.0,      27.74,    29.97,    28.86,    27.51,    24.64
       89.0,      27.64,    29.86,    28.74,    27.40,    24.55
       90.0,      27.53,    29.76,    28.63,    27.28,    24.46
       91.0,      27.43,    29.65,    28.52,    27.17,    24.37
       92.0,      27.33,    29.55,    28.41,    27.06,    24.29
       93.0,      27.22,    29.45,    28.30,    26.95,    24.20
       94.0,      27.12,    29.34,    28.19,    26.84,    24.12
       95.0,      27.02,    29.24,    28.08,    26.73,    24.03
       96.0,      26.92,    29.14,    27.97,    26.62,    23.95
       97.0,      26.82,    29.04,    27.86,    26.51,    23.87
       98.0,      26.72,    28.94,    27.75,    26.40,    23.79
       99.0,      26.62,    28.84,    27.65,    26.29,    23.71
      100.0,      26.52,    28.74,    27.54,    26.19,    23.63
      101.0,      26.43,    28.64,    27.43,    26.08,    23.55
      102.0,      26.33,    28.54,    27.33,    25.97,    23.48
      103.0,      26.23,    28.44,    27.22,    25.87,    23.40
      104.0,      26.14,    28.34,    27.11,    25.76,    23.32
      105.0,      26.04,    28.24,    27.01,    25.66,    23.25
      106.0,      25.95,    28.15,    26.91,    25.56,    23.17
      107.0,      25.85,    28.05,    26.80,    25.45,    23.10
      108.0,      25.76,    27.95,    26.70,    25.35,    23.03
      109.0,      25.66,    27.86,    26.59,    25.25,    22.96
      110.0,      25.57,    27.76,    26.49,    25.15,    22.88
      111.0,      25.48,    27.66,    26.39,    25.05,    22.81
      112.0,      25.39,    27.57,    26.29,    24.95,    22.74
      113.0,      25.29,    27.48,    26.18,    24.85,    22.67
      114.0,      25.20,    27.38,    26.08,    24.75,    22.60
      115.0,      25.11,    27.29,    25.98,    24.65,    22.54
      116.0,      25.02,    27.20,    25.88,    24.55,    22.47
      117.0,      24.93,    27.10,    25.78,    24.45,    22.40
      118.0,      24.84,    27.01,    25.68,    24.36,    22.33
      119.0,      24.76,    26.92,    25.58,    24.26,    22.27
      120.0,      24.67,    26.83,    25.48,    24.16,    22.20
      121.0,      24.58,    26.74,    25.38,    24.07,    22.14
      122.0,      24.49,    26.64,    25.28,    23.97,    22.07
      123.0,      24.41,    26.55,    25.19,    23.88,    22.01
      124.0,      24.32,    26.46,    25.09,    23.78,    21.94
      125.0,      24.23,    26.38,    24.99,    23.69,    21.88
      126.0,      24.15,    26.29,    24.90,    23.60,    21.81
      127.0,      24.06,    26.20,    24.80,    23.50,    21.75
      128.0,      23.98,    26.11,    24.70,    23.41,    21.69
      129.0,      23.89,    26.02,    24.61,    23.32,    21.63
      130.0,      23.81,    25.93,    24.51,    23.23,    21.56
      131.0,      23.73,    25.85,    24.42,    23.14,    21.50
      132.0,      23.64,    25.76,    24.32,    23.05,    21.44
      133.0,      23.56,    25.67,    24.23,    22.96,    21.38
      134.0,      23.48,    25.59,    24.13,    22.87,    21.32
      135.0,      23.40,    25.50,    24.04,    22.78,    21.26
      136.0,      23.31,    25.42,    23.95,    22.69,    21.20
      137.0,      23.23,    25.33,    23.86,    22.60,    21.14
      138.0,      23.15,    25.25,    23.76,    22.52,    21.08
      139.0,      23.07,    25.16,    23.67,    22.43,    21.02
      140.0,      22.99,    25.08,    23.58,    22.34,    20.96
      141.0,      22.91,    24.99,    23.49,    22.26,    20.90
      142.0,      22.83,    24.91,    23.40,    22.17,    20.84
      143.0,      22.75,    24.83,    23.31,    22.09,    20.79
      144.0,      22.67,    24.75,    23.22,    22.00,    20.73
      145.0,      22.59,    24.66,    23.13,    21.92,    20.67
      146.0,      22.52,    24.58,    23.04,    21.83,    20.61
      147.0,      22.44,    24.50,    22.95,    21.75,    20.56
      148.0,      22.36,    24.42,    22.86,    21.67,    20.50
      149.0,      22.28,    24.34,    22.77,    21.58,    20.44
      150.0,      22.21,    24.26,    22.68,    21.50,    20.39
      151.0,      22.13,    24.18,    22.60,    21.42,    20.33
      152.0,      22.06,    24.10,    22.51,    21.34,    20.28
      153.0,      21.98,    24.02,    22.42,    21.26,    20.22
      154.0,      21.90,    23.94,    22.34,    21.18,    20.16
      155.0,      21.83,    23.86,    22.25,    21.10,    20.11
      156.0,      21.75,    23.78,    22.16,    21.02,    20.05
      157.0,      21.68,    23.70,    22.08,    20.94,    20.00
      158.0,      21.61,    23.63,    21.99,    20.86,    19.95
      159.0,      21.53,    23.55,    21.91,    20.78,    19.89
      160.0,      21.46,    23.47,    21.82,    20.70,    19.84
      161.0,      21.39,    23.39,    21.74,    20.62,    19.78
      162.0,      21.31,    23.32,    21.65,    20.55,    19.73
      163.0,      21.24,    23.24,    21.57,    20.47,    19.68
      164.0,      21.17,    23.17,    21.49,    20.39,    19.62
      165.0,      21.10,    23.09,    21.40,    20.32,    19.57
      166.0,      21.02,    23.02,    21.32,    20.24,    19.52
      167.0,      20.95,    22.94,    21.24,    20.17,    19.46
      168.0,      20.88,    22.87,    21.16,    20.09,    19.41
      169.0,      20.81,    22.79,    21.08,    20.02,    19.36
      170.0,      20.74,    22.72,    20.99,    19.94,    19.31
      171.0,      20.67,    22.64,    20.91,    19.87,    19.26
      172.0,      20.60,    22.57,    20.83,    19.79,    19.20
      173.0,      20.53,    22.50,    20.75,    19.72,    19.15
      174.0,      20.46,    22.42,    20.67,    19.65,    19.10
      175.0,      20.39,    22.35,    20.59,    19.58,    19.05
      176.0,      20.32,    22.28,    20.51,    19.50,    19.00
      177.0,      20.26,    22.21,    20.43,    19.43,    18.95
      178.0,      20.19,    22.14,    20.36,    19.36,    18.90
      179.0,      20.12,    22.06,    20.28,    19.29,    18.85
      180.0,      20.05,    21.99,    20.20,    19.22,    18.80
      181.0,      19.98,    21.92,    20.12,    19.15,    18.74
      182.0,      19.92,    21.85,    20.04,    19.08,    18.69
      183.0,      19.85,    21.78,    19.97,    19.01,    18.64
      184.0,      19.78,    21.71,    19.89,    18.94,    18.59
      185.0,      19.72,    21.64,    19.81,    18.87,    18.55
      186.0,      19.65,    21.57,    19.74,    18.80,    18.50
      187.0,      19.59,    21.50,    19.66,    18.73,    18.45
      188.0,      19.52,    21.44,    19.58,    18.66,    18.40
      189.0,      19.45,    21.37,    19.51,    18.60,    18.35
      190.0,      19.39,    21.30,    19.43,    18.53,    18.30
      191.0,      19.33,    21.23,    19.36,    18.46,    18.25
      192.0,      19.26,    21.16,    19.28,    18.40,    18.20
      193.0,      19.20,    21.10,    19.21,    18.33,    18.15
      194.0,      19.13,    21.03,    19.14,    18.26,    18.10
      195.0,      19.07,    20.96,    19.06,    18.20,    18.06
      196.0,      19.01,    20.89,    18.99,    18.13,    18.01
      197.0,      18.94,    20.83,    18.92,    18.07,    17.96
      198.0,      18.88,    20.76,    18.84,    18.00,    17.91
      199.0,      18.82,    20.70,    18.77,    17.94,    17.86
      200.0,      18.75,    20.63,    18.70,    17.87,    17.82
      201.0,      18.69,    20.57,    18.63,    17.81,    17.77
      202.0,      18.63,    20.50,    18.55,    17.75,    17.72
      203.0,      18.57,    20.44,    18.48,    17.68,    17.68
      204.0,      18.51,    20.37,    18.41,    17.62,    17.63
      205.0,      18.45,    20.31,    18.34,    17.56,    17.58
      206.0,      18.39,    20.24,    18.27,    17.49,    17.54
      207.0,      18.32,    20.18,    18.20,    17.43,    17.49
      208.0,      18.26,    20.12,    18.13,    17.37,    17.44
      209.0,      18.20,    20.05,    18.06,    17.31,    17.40
      210.0,      18.14,    19.99,    17.99,    17.25,    17.35
      211.0,      18.08,    19.93,    17.92,    17.19,    17.30
      212.0,      18.02,    19.86,    17.85,    17.12,    17.26
      213.0,      17.97,    19.80,    17.78,    17.06,    17.21
      214.0,      17.91,    19.74,    17.71,    17.00,    17.17
      215.0,      17.85,    19.68,    17.65,    16.94,    17.12
      216.0,      17.79,    19.62,    17.58,    16.88,    17.08
      217.0,      17.73,    19.56,    17.51,    16.83,    17.03
      218.0,      17.67,    19.49,    17.44,    16.77,    16.98
      219.0,      17.61,    19.43,    17.38,    16.71,    16.94
      220.0,      17.56,    19.37,    17.31,    16.65,    16.89
      221.0,      17.50,    19.31,    17.24,    16.59,    16.85
      222.0,      17.44,    19.25,    17.18,    16.53,    16.81
      223.0,      17.38,    19.19,    17.11,    16.47,    16.76
      224.0,      17.33,    19.13,    17.04,    16.42,    16.72
      225.0,      17.27,    19.07,    16.98,    16.36,    16.67
      226.0,      17.21,    19.01,    16.91,    16.30,    16.63
      227.0,      17.16,    18.95,    16.85,    16.25,    16.58
      228.0,      17.10,    18.90,    16.78,    16.19,    16.54
      229.0,      17.05,    18.84,    16.72,    16.13,    16.50
      230.0,      16.99,    18.78,    16.66,    16.08,    16.45
      231.0,      16.94,    18.72,    16.59,    16.02,    16.41
      232.0,      16.88,    18.66,    16.53,    15.97,    16.37
      233.0,      16.83,    18.61,    16.46,    15.91,    16.32
      234.0,      16.77,    18.55,    16.40,    15.86,    16.28
      235.0,      16.72,    18.49,    16.34,    15.80,    16.24
      236.0,      16.66,    18.43,    16.27,    15.75,    16.19
      237.0,      16.61,    18.38,    16.21,    15.69,    16.15
      238.0,      16.55,    18.32,    16.15,    15.64,    16.11
      239.0,      16.50,    18.26,    16.09,    15.59,    16.06
      240.0,      16.45,    18.21,    16.03,    15.53,    16.02
      241.0,      16.39,    18.15,    15.96,    15.48,    15.98
      242.0,      16.34,    18.10,    15.90,    15.43,    15.94
      243.0,      16.29,    18.04,    15.84,    15.37,    15.89
      244.0,      16.24,    17.99,    15.78,    15.32,    15.85
      245.0,      16.18,    17.93,    15.72,    15.27,    15.81
      246.0,      16.13,    17.88,    15.66,    15.22,    15.77
      247.0,      16.08,    17.82,    15.60,    15.17,    15.73
      248.0,      16.03,    17.77,    15.54,    15.11,    15.69
      249.0,      15.97,    17.71,    15.48,    15.06,    15.64
      250.0,      15.92,    17.66,    15.42,    15.01,    15.60
      251.0,      15.87,    17.60,    15.36,    14.96,    15.56
      252.0,      15.82,    17.55,    15.30,    14.91,    15.52
      253.0,      15.77,    17.50,    15.24,    14.86,    15.48
      254.0,      15.72,    17.44,    15.19,    14.81,    15.44
      255.0,      15.67,    17.39,    15.13,    14.76,    15.40
      256.0,      15.62,    17.34,    15.07,    14.71,    15.36
      257.0,      15.57,    17.29,    15.01,    14.66,    15.32
      258.0,      15.52,    17.23,    14.95,    14.61,    15.28
      259.0,      15.47,    17.18,    14.90,    14.56,    15.23
      260.0,      15.42,    17.13,    14.84,    14.51,    15.19
      261.0,      15.37,    17.08,    14.78,    14.46,    15.15
      262.0,      15.32,    17.03,    14.73,    14.42,    15.11
      263.0,      15.27,    16.97,    14.67,    14.37,    15.07
      264.0,      15.22,    16.92,    14.61,    14.32,    15.03
      265.0,      15.17,    16.87,    14.56,    14.27,    14.99
      266.0,      15.13,    16.82,    14.50,    14.22,    14.95
      267.0,      15.08,    16.77,    14.45,    14.18,    14.92
      268.0,      15.03,    16.72,    14.39,    14.13,    14.88
      269.0,      14.98,    16.67,    14.33,    14.08,    14.84
      270.0,      14.93,    16.62,    14.28,    14.04,    14.80
      271.0,      14.89,    16.57,    14.23,    13.99,    14.76
      272.0,      14.84,    16.52,    14.17,    13.94,    14.72
      273.0,      14.79,    16.47,    14.12,    13.90,    14.68
      274.0,      14.74,    16.42,    14.06,    13.85,    14.64
      275.0,      14.70,    16.37,    14.01,    13.80,    14.60
      276.0,      14.65,    16.32,    13.95,    13.76,    14.56
      277.0,      14.60,    16.27,    13.90,    13.71,    14.53
      278.0,      14.56,    16.22,    13.85,    13.67,    14.49
      279.0,      14.51,    16.17,    13.79,    13.62,    14.45
      280.0,      14.46,    16.13,    13.74,    13.58,    14.41
      281.0,      14.42,    16.08,    13.69,    13.53,    14.37
      282.0,      14.37,    16.03,    13.64,    13.49,    14.33
      283.0,      14.33,    15.98,    13.58,    13.44,    14.30
      284.0,      14.28,    15.93,    13.53,    13.40,    14.26
      285.0,      14.24,    15.89,    13.48,    13.36,    14.22
      286.0,      14.19,    15.84,    13.43,    13.31,    14.18
      287.0,      14.15,    15.79,    13.38,    13.27,    14.15
      288.0,      14.10,    15.75,    13.33,    13.23,    14.11
      289.0,      14.06,    15.70,    13.28,    13.18,    14.07
      290.0,      14.01,    15.65,    13.22,    13.14,    14.03
      291.0,      13.97,    15.61,    13.17,    13.10,    14.00
      292.0,      13.92,    15.56,    13.12,    13.05,    13.96
      293.0,      13.88,    15.51,    13.07,    13.01,    13.92
      294.0,      13.84,    15.47,    13.02,    12.97,    13.89
      295.0,      13.79,    15.42,    12.97,    12.93,    13.85
      296.0,      13.75,    15.38,    12.92,    12.88,    13.81
      297.0,      13.71,    15.33,    12.87,    12.84,    13.78
      298.0,      13.66,    15.28,    12.82,    12.80,    13.74
      299.0,      13.62,    15.24,    12.78,    12.76,    13.70
      300.0,      13.58,    15.19,    12.73,    12.72,    13.67
      301.0,      13.53,    15.15,    12.68,    12.68,    13.63
      302.0,      13.49,    15.10,    12.63,    12.64,    13.60
      303.0,      13.45,    15.06,    12.58,    12.60,    13.56
      304.0,      13.41,    15.02,    12.53,    12.55,    13.52
      305.0,      13.36,    14.97,    12.49,    12.51,    13.49
      306.0,      13.32,    14.93,    12.44,    12.47,    13.45
      307.0,      13.28,    14.88,    12.39,    12.43,    13.42
      308.0,      13.24,    14.84,    12.34,    12.39,    13.38
      309.0,      13.20,    14.80,    12.30,    12.35,    13.35
      310.0,      13.16,    14.75,    12.25,    12.31,    13.31
