Radius (km), Mean (m/s), NE (m/s), SE (m/s), SW (m/s), NW (m/s)
        0.0,       0.00,     0.00,     0.00,     0.00,     0.00
        1.0,       3.46,     3.45,     3.47,     3.45,     3.47
        2.0,       5.57,     5.72,     5.66,     5.24,     5.67
        3.0,       7.40,     7.75,     7.55,     6.72,     7.60
        4.0,       9.14,     9.73,     9.32,     8.07,     9.44
        5.0,      10.89,    11.77,    11.07,     9.38,    11.32
        6.0,      12.69,    13.91,    12.88,    10.70,    13.28
        7.0,      14.58,    16.16,    14.77,    12.04,    15.35
        8.0,      16.51,    18.46,    16.74,    13.39,    17.47
        9.0,      18.45,    20.74,    18.73,    14.71,    19.60
       10.0,      20.29,    22.89,    20.69,    15.97,    21.63
       11.0,      21.98,    24.81,    22.51,    17.11,    23.48
       12.0,      23.42,    26.42,    24.12,    18.09,    25.04
       13.0,      24.56,    27.66,    25.44,    18.87,    26.27
       14.0,      25.38,    28.50,    26.43,    19.45,    27.11
       15.0,      25.87,    28.97,    27.07,    19.83,    27.59
       16.0,      26.06,    29.10,    27.39,    20.02,    27.74
       17.0,      26.01,    28.96,    27.42,    20.06,    27.62
       18.0,      25.79,    28.63,    27.23,    19.99,    27.29
       19.0,      25.45,    28.20,    26.89,    19.84,    26.85
       20.0,      25.05,    27.72,    26.48,    19.67,    26.34
       21.0,      24.65,    27.23,    26.04,    19.48,    25.83
       22.0,      24.25,    26.77,    25.60,    19.29,    25.34
       23.0,      23.88,    26.33,    25.19,    19.12,    24.88
       24.0,      23.52,    25.91,    24.80,    18.95,    24.43
       25.0,      23.18,    25.50,    24.42,    18.78,    24.01
       26.0,      22.85,    25.12,    24.06,    18.61,    23.60
       27.0,      22.53,    24.74,    23.71,    18.45,    23.21
       28.0,      22.22,    24.38,    23.37,    18.29,    22.83
       29.0,      21.92,    24.04,    23.04,    18.14,    22.47
       30.0,      21.63,    23.70,    22.73,    17.99,    22.12
       31.0,      21.35,    23.38,    22.42,    17.84,    21.78
       32.0,      21.09,    23.07,    22.12,    17.69,    21.46
       33.0,      20.82,    22.78,    21.83,    17.54,    21.15
       34.0,      20.57,    22.49,    21.55,    17.40,    20.85
       35.0,      20.33,    22.21,    21.28,    17.26,    20.56
       36.0,      20.09,    21.95,    21.02,    17.13,    20.28
       37.0,      19.86,    21.69,    20.76,    16.99,    20.01
       38.0,      19.64,    21.45,    20.52,    16.86,    19.75
       39.0,      19.43,    21.21,    20.28,    16.73,    19.50
       40.0,      19.22,    20.98,    20.04,    16.60,    19.26
       41.0,      19.02,    20.76,    19.82,    16.48,    19.03
       42.0,      18.83,    20.55,    19.60,    16.36,    18.81
       43.0,      18.64,    20.35,    19.39,    16.24,    18.60
       44.0,      18.46,    20.15,    19.18,    16.12,    18.39
       45.0,      18.28,    19.96,    18.98,    16.00,    18.19
       46.0,      18.11,    19.78,    18.79,    15.89,    18.00
       47.0,      17.95,    19.60,    18.60,    15.77,    17.81
       48.0,      17.79,    19.43,    18.42,    15.66,    17.64
       49.0,      17.63,    19.26,    18.25,    15.56,    17.46
       50.0,      17.48,    19.11,    18.07,    15.45,    17.30
       51.0,      17.34,    18.95,    17.91,    15.34,    17.14
       52.0,      17.20,    18.81,    17.75,    15.24,    16.98
       53.0,      17.06,    18.66,    17.59,    15.14,    16.84
       54.0,      16.93,    18.53,    17.44,    15.04,    16.69
       55.0,      16.80,    18.40,    17.29,    14.94,    16.55
       56.0,      16.67,    18.27,    17.15,    14.85,    16.42
       57.0,      16.55,    18.14,    17.01,    14.75,    16.29
       58.0,      16.43,    18.03,    16.87,    14.66,    16.17
       59.0,      16.32,    17.91,    16.74,    14.57,    16.05
       60.0,      16.21,    17.80,    16.61,    14.48,    15.93
       61.0,      16.10,    17.69,    16.49,    14.39,    15.82
       62.0,      15.99,    17.59,    16.37,    14.31,    15.71
       63.0,      15.89,    17.49,    16.25,    14.22,    15.61
       64.0,      15.79,    17.39,    16.13,    14.14,    15.51
       65.0,      15.70,    17.30,    16.02,    14.06,    15.41
       66.0,      15.60,    17.21,    15.92,    13.98,    15.31
       67.0,      15.51,    17.12,    15.81,    13.90,    15.22
       68.0,      15.42,    17.04,    15.71,    13.82,    15.13
       69.0,      15.34,    16.95,    15.61,    13.74,    15.05
       70.0,      15.25,    16.87,    15.51,    13.67,    14.97
       71.0,      15.17,    16.80,    15.42,    13.60,    14.89
       72.0,      15.09,    16.72,    15.32,    13.52,    14.81
       73.0,      15.02,    16.65,    15.23,    13.45,    14.73
       74.0,      14.94,    16.58,    15.15,    13.38,    14.66
       75.0,      14.87,    16.51,    15.06,    13.31,    14.59
       76.0,      14.80,    16.45,    14.98,    13.24,    14.52
       77.0,      14.73,    16.38,    14.90,    13.18,    14.46
       78.0,      14.66,    16.32,    14.82,    13.11,    14.39
       79.0,      14.59,    16.26,    14.74,    13.05,    14.33
       80.0,      14.53,    16.20,    14.66,    12.98,    14.27
       81.0,      14.47,    16.15,    14.59,    12.92,    14.21
       82.0,      14.41,    16.09,    14.52,    12.86,    14.15
       83.0,      14.35,    16.04,    14.45,    12.80,    14.10
       84.0,      14.29,    15.99,    14.38,    12.74,    14.05
       85.0,      14.23,    15.94,    14.31,    12.68,    13.99
       86.0,      14.18,    15.89,    14.25,    12.62,    13.94
       87.0,      14.12,    15.84,    14.18,    12.57,    13.89
       88.0,      14.07,    15.80,    14.12,    12.51,    13.85
       89.0,      14.02,    15.75,    14.06,    12.46,    13.80
       90.0,      13.97,    15.71,    14.00,    12.40,    13.75
       91.0,      13.92,    15.66,    13.94,    12.35,    13.71
       92.0,      13.87,    15.62,    13.88,    12.30,    13.67
       93.0,      13.82,    15.58,    13.83,    12.25,    13.63
       94.0,      13.77,    15.54,    13.77,    12.20,    13.58
       95.0,      13.73,    15.50,    13.72,    12.15,    13.55
       96.0,      13.68,    15.47,    13.67,    12.10,    13.51
       97.0,      13.64,    15.43,    13.61,    12.05,    13.47
       98.0,      13.60,    15.39,    13.56,    12.00,    13.43
       99.0,      13.56,    15.36,    13.51,    11.95,    13.40
      100.0,      13.51,    15.32,    13.47,    11.91,    13.36
      101.0,      13.47,    15.29,    13.42,    11.86,    13.33
      102.0,      13.44,    15.26,    13.37,    11.82,    13.29
      103.0,      13.40,    15.23,    13.33,    11.77,    13.26
      104.0,      13.36,    15.20,    13.28,    11.73,    13.23
      105.0,      13.32,    15.17,    13.24,    11.69,    13.20
      106.0,      13.29,    15.14,    13.19,    11.65,    13.17
      107.0,      13.25,    15.11,    13.15,    11.61,    13.14
      108.0,      13.21,    15.08,    13.11,    11.56,    13.11
      109.0,      13.18,    15.05,    13.07,    11.52,    13.08
      110.0,      13.15,    15.02,    13.03,    11.48,    13.05
      111.0,      13.11,    14.99,    12.99,    11.45,    13.02
      112.0,      13.08,    14.97,    12.95,    11.41,    13.00
      113.0,      13.05,    14.94,    12.91,    11.37,    12.97
      114.0,      13.01,    14.92,    12.87,    11.33,    12.94
      115.0,      12.98,    14.89,    12.83,    11.30,    12.92
      116.0,      12.95,    14.87,    12.79,    11.26,    12.89
      117.0,      12.92,    14.84,    12.76,    11.22,    12.87
      118.0,      12.89,    14.82,    12.72,    11.19,    12.84
      119.0,      12.86,    14.79,    12.69,    11.15,    12.82
      120.0,      12.83,    14.77,    12.65,    11.12,    12.79
      121.0,      12.81,    14.75,    12.62,    11.09,    12.77
      122.0,      12.78,    14.73,    12.58,    11.05,    12.75
      123.0,      12.75,    14.70,    12.55,    11.02,    12.73
      124.0,      12.72,    14.68,    12.52,    10.99,    12.70
      125.0,      12.70,    14.66,    12.49,    10.96,    12.68
      126.0,      12.67,    14.64,    12.45,    10.92,    12.66
      127.0,      12.64,    14.62,    12.42,    10.89,    12.64
      128.0,      12.62,    14.60,    12.39,    10.86,    12.62
      129.0,      12.59,    14.58,    12.36,    10.83,    12.60
      130.0,      12.57,    14.56,    12.33,    10.80,    12.58
      131.0,      12.54,    14.54,    12.30,    10.77,    12.56
      132.0,      12.52,    14.52,    12.27,    10.74,    12.54
      133.0,      12.49,    14.50,    12.24,    10.72,    12.52
      134.0,      12.47,    14.48,    12.21,    10.69,    12.50
      135.0,      12.44,    14.46,    12.18,    10.66,    12.48
      136.0,      12.42,    14.44,    12.15,    10.63,    12.46
      137.0,      12.40,    14.42,    12.12,    10.61,    12.44
      138.0,      12.37,    14.40,    12.09,    10.58,    12.42
      139.0,      12.35,    14.38,    12.07,    10.55,    12.40
      140.0,      12.33,    14.37,    12.04,    10.53,    12.39
      141.0,      12.31,    14.35,    12.01,    10.50,    12.37
      142.0,      12.28,    14.33,    11.98,    10.47,    12.35
      143.0,      12.26,    14.31,    11.96,    10.45,    12.33
      144.0,      12.24,    14.29,    11.93,    10.42,    12.32
      145.0,      12.22,    14.28,    11.91,    10.40,    12.30
      146.0,      12.20,    14.26,    11.88,    10.38,    12.28
      147.0,      12.18,    14.24,    11.85,    10.35,    12.26
      148.0,      12.16,    14.23,    11.83,    10.33,    12.25
      149.0,      12.14,    14.21,    11.80,    10.30,    12.23
      150.0,      12.12,    14.19,    11.78,    10.28,    12.21
      151.0,      12.10,    14.18,    11.75,    10.26,    12.20
      152.0,      12.08,    14.16,    11.73,    10.24,    12.18
      153.0,      12.06,    14.14,    11.70,    10.21,    12.16
      154.0,      12.04,    14.13,    11.68,    10.19,    12.15
      155.0,      12.02,    14.11,    11.65,    10.17,    12.13
      156.0,      12.00,    14.09,    11.63,    10.15,    12.12
      157.0,      11.98,    14.08,    11.60,    10.13,    12.10
      158.0,      11.96,    14.06,    11.58,    10.11,    12.08
      159.0,      11.94,    14.05,    11.56,    10.09,    12.07
      160.0,      11.92,    14.03,    11.53,    10.07,    12.05
      161.0,      11.90,    14.01,    11.51,    10.04,    12.04
      162.0,      11.88,    14.00,    11.49,    10.02,    12.02
      163.0,      11.86,    13.98,    11.46,    10.00,    12.01
      164.0,      11.85,    13.97,    11.44,     9.98,    11.99
      165.0,      11.83,    13.95,    11.42,     9.97,    11.98
      166.0,      11.81,    13.94,    11.40,     9.95,    11.96
      167.0,      11.79,    13.92,    11.37,     9.93,    11.94
      168.0,      11.77,    13.91,    11.35,     9.91,    11.93
      169.0,      11.76,    13.89,    11.33,     9.89,    11.91
      170.0,      11.74,    13.88,    11.31,     9.87,    11.90
      171.0,      11.72,    13.86,    11.28,     9.85,    11.89
      172.0,      11.70,    13.85,    11.26,     9.83,    11.87
      173.0,      11.69,    13.83,    11.24,     9.82,    11.86
      174.0,      11.67,    13.82,    11.22,     9.80,    11.84
      175.0,      11.65,    13.80,    11.20,     9.78,    11.83
      176.0,      11.63,    13.79,    11.17,     9.76,    11.81
      177.0,      11.62,    13.77,    11.15,     9.75,    11.80
      178.0,      11.60,    13.76,    11.13,     9.73,    11.78
      179.0,      11.58,    13.74,    11.11,     9.71,    11.77
      180.0,      11.57,    13.73,    11.09,     9.70,    11.75
      181.0,      11.55,    13.72,    11.07,     9.68,    11.74
      182.0,      11.53,    13.70,    11.05,     9.66,    11.73
      183.0,      11.52,    13.69,    11.03,     9.65,    11.71
      184.0,      11.50,    13.67,    11.00,     9.63,    11.70
      185.0,      11.48,    13.66,    10.98,     9.61,    11.68
      186.0,      11.47,    13.64,    10.96,     9.60,    11.67
      187.0,      11.45,    13.63,    10.94,     9.58,    11.66
      188.0,      11.44,    13.61,    10.92,     9.57,    11.64
      189.0,      11.42,    13.60,    10.90,     9.55,    11.63
      190.0,      11.40,    13.59,    10.88,     9.54,    11.61
      191.0,      11.39,    13.57,    10.86,     9.52,    11.60
      192.0,      11.37,    13.56,    10.84,     9.50,    11.59
      193.0,      11.36,    13.54,    10.82,     9.49,    11.57
      194.0,      11.34,    13.53,    10.80,     9.47,    11.56
      195.0,      11.33,    13.52,    10.78,     9.46,    11.55
      196.0,      11.31,    13.50,    10.76,     9.45,    11.53
      197.0,      11.29,    13.49,    10.74,     9.43,    11.52
      198.0,      11.28,    13.48,    10.72,     9.42,    11.50
      199.0,      11.26,    13.46,    10.70,     9.40,    11.49
      200.0,      11.25,    13.45,    10.68,     9.39,    11.48
      201.0,      11.23,    13.43,    10.66,     9.37,    11.46
      202.0,      11.22,    13.42,    10.64,     9.36,    11.45
      203.0,      11.20,    13.41,    10.62,     9.35,    11.44
      204.0,      11.19,    13.39,    10.60,     9.33,    11.42
      205.0,      11.17,    13.38,    10.58,     9.32,    11.41
      206.0,      11.16,    13.37,    10.56,     9.30,    11.40
      207.0,      11.14,    13.35,    10.54,     9.29,    11.38
      208.0,      11.13,    13.34,    10.53,     9.28,    11.37
      209.0,      11.11,    13.32,    10.51,     9.26,    11.36
      210.0,      11.10,    13.31,    10.49,     9.25,    11.34
      211.0,      11.08,    13.30,    10.47,     9.24,    11.33
      212.0,      11.07,    13.28,    10.45,     9.23,    11.32
      213.0,      11.05,    13.27,    10.43,     9.21,    11.30
      214.0,      11.04,    13.26,    10.41,     9.20,    11.29
      215.0,      11.02,    13.24,    10.39,     9.19,    11.28
      216.0,      11.01,    13.23,    10.37,     9.17,    11.26
      217.0,      11.00,    13.22,    10.35,     9.16,    11.25
      218.0,      10.98,    13.20,    10.34,     9.15,    11.24
      219.0,      10.97,    13.19,    10.32,     9.14,    11.22
      220.0,      10.95,    13.18,    10.30,     9.12,    11.21
      221.0,      10.94,    13.16,    10.28,     9.11,    11.20
      222.0,      10.92,    13.15,    10.26,     9.10,    11.19
      223.0,      10.91,    13.14,    10.24,     9.09,    11.17
      224.0,      10.90,    13.12,    10.22,     9.08,    11.16
      225.0,      10.88,    13.11,    10.21,     9.06,    11.15
      226.0,      10.87,    13.10,    10.19,     9.05,    11.13
      227.0,      10.85,    13.08,    10.17,     9.04,    11.12
      228.0,      10.84,    13.07,    10.15,     9.03,    11.11
      229.0,      10.83,    13.06,    10.13,     9.02,    11.10
      230.0,      10.81,    13.04,    10.11,     9.00,    11.08
      231.0,      10.80,    13.03,    10.10,     8.99,    11.07
      232.0,      10.78,    13.02,    10.08,     8.98,    11.06
      233.0,      10.77,    13.00,    10.06,     8.97,    11.04
      234.0,      10.76,    12.99,    10.04,     8.96,    11.03
      235.0,      10.74,    12.98,    10.02,     8.95,    11.02
      236.0,      10.73,    12.97,    10.01,     8.94,    11.01
      237.0,      10.71,    12.95,     9.99,     8.92,    10.99
      238.0,      10.70,    12.94,     9.97,     8.91,    10.98
      239.0,      10.69,    12.93,     9.95,     8.90,    10.97
      240.0,      10.67,    12.91,     9.93,     8.89,    10.95
      241.0,      10.66,    12.90,     9.92,     8.88,    10.94
      242.0,      10.65,    12.89,     9.90,     8.87,    10.93
      243.0,      10.63,    12.87,     9.88,     8.86,    10.92
      244.0,      10.62,    12.86,     9.86,     8.85,    10.90
      245.0,      10.61,    12.85,     9.85,     8.84,    10.89
      246.0,      10.59,    12.84,     9.83,     8.83,    10.88
      247.0,      10.58,    12.82,     9.81,     8.81,    10.87
      248.0,      10.57,    12.81,     9.79,     8.80,    10.85
      249.0,      10.55,    12.80,     9.78,     8.79,    10.84
      250.0,      10.54,    12.78,     9.76,     8.78,    10.83
      251.0,      10.53,    12.77,     9.74,     8.77,    10.82
      252.0,      10.51,    12.76,     9.72,     8.76,    10.80
      253.0,      10.50,    12.75,     9.71,     8.75,    10.79
      254.0,      10.49,    12.73,     9.69,     8.74,    10.78
      255.0,      10.47,    12.72,     9.67,     8.73,    10.77
      256.0,      10.46,    12.71,     9.65,     8.72,    10.75
      257.0,      10.45,    12.70,     9.64,     8.71,    10.74
      258.0,      10.43,    12.68,     9.62,     8.70,    10.73
      259.0,      10.42,    12.67,     9.60,     8.69,    10.72
      260.0,      10.41,    12.66,     9.59,     8.68,    10.71
      261.0,      10.39,    12.64,     9.57,     8.67,    10.69
      262.0,      10.38,    12.63,     9.55,     8.66,    10.68
      263.0,      10.37,    12.62,     9.53,     8.65,    10.67
      264.0,      10.35,    12.61,     9.52,     8.64,    10.66
      265.0,      10.34,    12.59,     9.50,     8.63,    10.64
      266.0,      10.33,    12.58,     9.48,     8.62,    10.63
      267.0,      10.32,    12.57,     9.47,     8.61,    10.62
      268.0,      10.30,    12.56,     9.45,     8.60,    10.61
      269.0,      10.29,    12.54,     9.43,     8.59,    10.59
      270.0,      10.28,    12.53,     9.42,     8.58,    10.58
      271.0,      10.26,    12.52,     9.40,     8.57,    10.57
      272.0,      10.25,    12.51,     9.38,     8.56,    10.56
      273.0,      10.24,    12.49,     9.37,     8.55,    10.55
      274.0,      10.23,    12.48,     9.35,     8.54,    10.53
      275.0,      10.21,    12.47,     9.33,     8.53,    10.52
      276.0,      10.20,    12.46,     9.32,     8.52,    10.51
      277.0,      10.19,    12.44,     9.30,     8.51,    10.50
      278.0,      10.18,    12.43,     9.28,     8.50,    10.49
      279.0,      10.16,    12.42,     9.27,     8.49,    10.47
      280.0,      10.15,    12.41,     9.25,     8.48,    10.46
      281.0,      10.14,    12.39,     9.23,     8.47,    10.45
      282.0,      10.13,    12.38,     9.22,     8.46,    10.44
      283.0,      10.11,    12.37,     9.20,     8.46,    10.43
      284.0,      10.10,    12.36,     9.18,     8.45,    10.41
      285.0,      10.09,    12.34,     9.17,     8.44,    10.40
      286.0,      10.08,    12.33,     9.15,     8.43,    10.39
      287.0,      10.06,    12.32,     9.14,     8.42,    10.38
      288.0,      10.05,    12.31,     9.12,     8.41,    10.37
      289.0,      10.04,    12.29,     9.10,     8.40,    10.35
      290.0,      10.03,    12.28,     9.09,     8.39,    10.34
      291.0,      10.01,    12.27,     9.07,     8.38,    10.33
      292.0,      10.00,    12.26,     9.06,     8.37,    10.32
      293.0,       9.99,    12.25,     9.04,     8.36,    10.31
      294.0,       9.98,    12.23,     9.02,     8.35,    10.29
      295.0,       9.96,    12.22,     9.01,     8.34,    10.28
      296.0,       9.95,    12.21,     8.99,     8.34,    10.27
      297.0,       9.94,    12.20,     8.98,     8.33,    10.26
      298.0,       9.93,    12.18,     8.96,     8.32,    10.25
      299.0,       9.91,    12.17,     8.94,     8.31,    10.24
      300.0,       9.90,    12.16,     8.93,     8.30,    10.22
      301.0,       9.89,    12.15,     8.91,     8.29,    10.21
      302.0,       9.88,    12.14,     8.90,     8.28,    10.20
      303.0,       9.87,    12.12,     8.88,     8.27,    10.19
      304.0,       9.85,    12.11,     8.86,     8.26,    10.18
      305.0,       9.84,    12.10,     8.85,     8.25,    10.17
      306.0,       9.83,    12.09,     8.83,     8.25,    10.15
      307.0,       9.82,    12.08,     8.82,     8.24,    10.14
      308.0,       9.81,    12.06,     8.80,     8.23,    10.13
      309.0,       9.79,    12.05,     8.79,     8.22,    10.12
      310.0,       9.78,    12.04,     8.77,     8.21,    10.11
