Radius (km), Mean (m/s), NE (m/s), SE (m/s), SW (m/s), NW (m/s)
        0.0,       0.00,     0.00,     0.00,     0.00,     0.00
        1.0,       1.63,     1.42,     1.42,     2.27,     1.42
        2.0,       3.27,     3.03,     3.03,     4.01,     3.03
        3.0,       4.94,     4.72,     4.72,     5.60,     4.72
        4.0,       6.62,     6.46,     6.46,     7.10,     6.46
        5.0,       8.32,     8.25,     8.25,     8.54,     8.25
        6.0,      10.03,    10.07,    10.07,     9.92,    10.07
        7.0,      11.75,    11.92,    11.92,    11.26,    11.92
        8.0,      13.48,    13.79,    13.79,    12.57,    13.79
        9.0,      15.23,    15.68,    15.68,    13.86,    15.68
       10.0,      16.98,    17.60,    17.60,    15.11,    17.60
       11.0,      18.74,    19.53,    19.53,    16.35,    19.53
       12.0,      20.51,    21.50,    21.48,    17.57,    21.49
       13.0,      22.33,    23.54,    23.47,    18.79,    23.50
       14.0,      24.26,    25.76,    25.57,    20.07,    25.65
       15.0,      26.40,    28.25,    27.87,    21.48,    28.01
       16.0,      28.81,    31.06,    30.44,    23.06,    30.66
       17.0,      31.49,    34.20,    33.33,    24.84,    33.60
       18.0,      34.42,    37.60,    36.51,    26.76,    36.79
       19.0,      37.47,    41.11,    39.88,    28.77,    40.11
       20.0,      40.50,    44.55,    43.27,    30.75,    43.41
       21.0,      43.33,    47.72,    46.49,    32.58,    46.52
       22.0,      45.79,    50.44,    49.35,    34.12,    49.24
       23.0,      47.74,    52.56,    51.68,    35.29,    51.45
       24.0,      49.10,    53.99,    53.35,    36.02,    53.04
       25.0,      49.84,    54.73,    54.33,    36.30,    54.00
       26.0,      49.99,    54.83,    54.63,    36.16,    54.35
       27.0,      49.64,    54.40,    54.34,    35.66,    54.19
       28.0,      48.92,    53.57,    53.58,    34.89,    53.63
       29.0,      47.95,    52.51,    52.52,    33.95,    52.82
       30.0,      46.87,    51.35,    51.29,    32.95,    51.89
       31.0,      45.77,    50.18,    50.03,    31.93,    50.93
       32.0,      44.71,    49.06,    48.81,    30.97,    50.01
       33.0,      43.71,    48.00,    47.66,    30.05,    49.13
       34.0,      42.77,    46.99,    46.58,    29.19,    48.30
       35.0,      41.86,    46.02,    45.56,    28.37,    47.50
       36.0,      40.99,    45.08,    44.58,    27.59,    46.72
       37.0,      40.15,    44.18,    43.63,    26.83,    45.96
       38.0,      39.34,    43.30,    42.71,    26.11,    45.22
       39.0,      38.55,    42.45,    41.82,    25.41,    44.51
       40.0,      37.78,    41.63,    40.97,    24.74,    43.80
       41.0,      37.05,    40.83,    40.14,    24.09,    43.12
       42.0,      36.33,    40.06,    39.34,    23.47,    42.46
       43.0,      35.64,    39.31,    38.57,    22.88,    41.81
       44.0,      34.97,    38.59,    37.83,    22.30,    41.18
       45.0,      34.33,    37.89,    37.11,    21.75,    40.56
       46.0,      33.70,    37.21,    36.41,    21.22,    39.96
       47.0,      33.10,    36.56,    35.74,    20.71,    39.38
       48.0,      32.51,    35.92,    35.09,    20.22,    38.81
       49.0,      31.94,    35.31,    34.46,    19.75,    38.26
       50.0,      31.40,    34.71,    33.85,    19.30,    37.72
       51.0,      30.86,    34.14,    33.27,    18.87,    37.19
       52.0,      30.35,    33.58,    32.70,    18.45,    36.68
       53.0,      29.85,    33.04,    32.15,    18.04,    36.18
       54.0,      29.37,    32.51,    31.62,    17.66,    35.69
       55.0,      28.90,    32.00,    31.11,    17.29,    35.21
       56.0,      28.45,    31.51,    30.61,    16.93,    34.75
       57.0,      28.01,    31.04,    30.13,    16.58,    34.30
       58.0,      27.59,    30.58,    29.67,    16.25,    33.86
       59.0,      27.18,    30.13,    29.22,    15.94,    33.43
       60.0,      26.78,    29.70,    28.79,    15.63,    33.01
       61.0,      26.40,    29.28,    28.37,    15.33,    32.61
       62.0,      26.02,    28.87,    27.96,    15.05,    32.21
       63.0,      25.66,    28.48,    27.57,    14.78,    31.82
       64.0,      25.31,    28.09,    27.19,    14.52,    31.44
       65.0,      24.97,    27.72,    26.82,    14.27,    31.07
       66.0,      24.64,    27.37,    26.46,    14.02,    30.71
       67.0,      24.32,    27.02,    26.12,    13.79,    30.36
       68.0,      24.01,    26.68,    25.78,    13.57,    30.02
       69.0,      23.71,    26.36,    25.46,    13.35,    29.69
       70.0,      23.42,    26.04,    25.15,    13.14,    29.36
       71.0,      23.14,    25.73,    24.84,    12.94,    29.05
       72.0,      22.87,    25.43,    24.55,    12.75,    28.74
       73.0,      22.60,    25.15,    24.27,    12.56,    28.44
       74.0,      22.35,    24.87,    23.99,    12.39,    28.14
       75.0,      22.10,    24.59,    23.72,    12.21,    27.85
       76.0,      21.85,    24.33,    23.46,    12.05,    27.57
       77.0,      21.62,    24.08,    23.21,    11.89,    27.30
       78.0,      21.39,    23.83,    22.97,    11.74,    27.03
       79.0,      21.17,    23.59,    22.73,    11.59,    26.77
       80.0,      20.96,    23.36,    22.50,    11.45,    26.52
       81.0,      20.75,    23.13,    22.28,    11.31,    26.27
       82.0,      20.54,    22.91,    22.06,    11.18,    26.02
       83.0,      20.35,    22.70,    21.86,    11.05,    25.79
       84.0,      20.16,    22.49,    21.65,    10.93,    25.56
       85.0,      19.97,    22.29,    21.46,    10.81,    25.33
       86.0,      19.79,    22.09,    21.26,    10.70,    25.11
       87.0,      19.62,    21.90,    21.08,    10.59,    24.89
       88.0,      19.45,    21.72,    20.90,    10.48,    24.68
       89.0,      19.28,    21.54,    20.72,    10.38,    24.48
       90.0,      19.12,    21.37,    20.55,    10.29,    24.28
       91.0,      18.96,    21.20,    20.39,    10.19,    24.08
       92.0,      18.81,    21.04,    20.23,    10.10,    23.89
       93.0,      18.66,    20.88,    20.07,    10.01,    23.70
       94.0,      18.52,    20.72,    19.92,     9.93,    23.52
       95.0,      18.38,    20.57,    19.77,     9.85,    23.34
       96.0,      18.25,    20.43,    19.63,     9.77,    23.16
       97.0,      18.11,    20.28,    19.48,     9.69,    22.99
       98.0,      17.98,    20.15,    19.35,     9.62,    22.82
       99.0,      17.86,    20.01,    19.22,     9.55,    22.66
      100.0,      17.74,    19.88,    19.09,     9.48,    22.50
      101.0,      17.62,    19.75,    18.96,     9.41,    22.34
      102.0,      17.50,    19.63,    18.84,     9.35,    22.19
      103.0,      17.39,    19.51,    18.72,     9.29,    22.04
      104.0,      17.28,    19.39,    18.60,     9.23,    21.89
      105.0,      17.17,    19.28,    18.49,     9.17,    21.75
      106.0,      17.07,    19.17,    18.38,     9.12,    21.61
      107.0,      16.97,    19.06,    18.27,     9.07,    21.47
      108.0,      16.87,    18.95,    18.16,     9.01,    21.34
      109.0,      16.77,    18.85,    18.06,     8.96,    21.20
      110.0,      16.68,    18.75,    17.96,     8.92,    21.08
      111.0,      16.58,    18.65,    17.86,     8.87,    20.95
      112.0,      16.49,    18.56,    17.77,     8.82,    20.83
      113.0,      16.41,    18.47,    17.67,     8.78,    20.70
      114.0,      16.32,    18.38,    17.58,     8.74,    20.59
      115.0,      16.24,    18.29,    17.49,     8.70,    20.47
      116.0,      16.15,    18.20,    17.40,     8.66,    20.35
      117.0,      16.07,    18.12,    17.32,     8.62,    20.24
      118.0,      16.00,    18.04,    17.24,     8.58,    20.13
      119.0,      15.92,    17.96,    17.15,     8.55,    20.03
      120.0,      15.85,    17.88,    17.07,     8.51,    19.92
      121.0,      15.77,    17.80,    16.99,     8.48,    19.82
      122.0,      15.70,    17.73,    16.92,     8.44,    19.72
      123.0,      15.63,    17.65,    16.84,     8.41,    19.62
      124.0,      15.56,    17.58,    16.77,     8.38,    19.52
      125.0,      15.50,    17.51,    16.70,     8.35,    19.42
      126.0,      15.43,    17.45,    16.63,     8.32,    19.33
      127.0,      15.37,    17.38,    16.56,     8.29,    19.24
      128.0,      15.30,    17.32,    16.49,     8.27,    19.15
      129.0,      15.24,    17.25,    16.42,     8.24,    19.06
      130.0,      15.18,    17.19,    16.35,     8.21,    18.97
      131.0,      15.12,    17.13,    16.29,     8.19,    18.88
      132.0,      15.07,    17.07,    16.23,     8.17,    18.80
      133.0,      15.01,    17.01,    16.16,     8.14,    18.72
      134.0,      14.95,    16.95,    16.10,     8.12,    18.64
      135.0,      14.90,    16.90,    16.04,     8.10,    18.56
      136.0,      14.84,    16.84,    15.98,     8.07,    18.48
      137.0,      14.79,    16.79,    15.92,     8.05,    18.40
      138.0,      14.74,    16.74,    15.87,     8.03,    18.33
      139.0,      14.69,    16.69,    15.81,     8.01,    18.25
      140.0,      14.64,    16.63,    15.75,     7.99,    18.18
      141.0,      14.59,    16.59,    15.70,     7.97,    18.11
      142.0,      14.54,    16.54,    15.65,     7.95,    18.03
      143.0,      14.50,    16.49,    15.59,     7.93,    17.97
      144.0,      14.45,    16.44,    15.54,     7.92,    17.90
      145.0,      14.40,    16.40,    15.49,     7.90,    17.83
      146.0,      14.36,    16.35,    15.44,     7.88,    17.76
      147.0,      14.31,    16.31,    15.39,     7.87,    17.70
      148.0,      14.27,    16.26,    15.34,     7.85,    17.63
      149.0,      14.23,    16.22,    15.29,     7.83,    17.57
      150.0,      14.18,    16.18,    15.24,     7.82,    17.51
      151.0,      14.14,    16.13,    15.19,     7.80,    17.44
      152.0,      14.10,    16.09,    15.14,     7.79,    17.38
      153.0,      14.06,    16.05,    15.10,     7.77,    17.32
      154.0,      14.02,    16.01,    15.05,     7.76,    17.26
      155.0,      13.98,    15.97,    15.01,     7.74,    17.21
      156.0,      13.94,    15.94,    14.96,     7.73,    17.15
      157.0,      13.91,    15.90,    14.92,     7.71,    17.09
      158.0,      13.87,    15.86,    14.87,     7.70,    17.04
      159.0,      13.83,    15.82,    14.83,     7.69,    16.98
      160.0,      13.79,    15.79,    14.79,     7.68,    16.93
      161.0,      13.76,    15.75,    14.74,     7.66,    16.87
      162.0,      13.72,    15.72,    14.70,     7.65,    16.82
      163.0,      13.69,    15.68,    14.66,     7.64,    16.77
      164.0,      13.65,    15.65,    14.62,     7.63,    16.72
      165.0,      13.62,    15.61,    14.58,     7.61,    16.66
      166.0,      13.58,    15.58,    14.54,     7.60,    16.61
      167.0,      13.55,    15.54,    14.50,     7.59,    16.56
      168.0,      13.52,    15.51,    14.46,     7.58,    16.52
      169.0,      13.48,    15.48,    14.42,     7.57,    16.47
      170.0,      13.45,    15.45,    14.38,     7.56,    16.42
      171.0,      13.42,    15.42,    14.34,     7.55,    16.37
      172.0,      13.39,    15.38,    14.30,     7.53,    16.32
      173.0,      13.35,    15.35,    14.26,     7.52,    16.28
      174.0,      13.32,    15.32,    14.22,     7.51,    16.23
      175.0,      13.29,    15.29,    14.19,     7.50,    16.19
      176.0,      13.26,    15.26,    14.15,     7.49,    16.14
      177.0,      13.23,    15.23,    14.11,     7.48,    16.10
      178.0,      13.20,    15.20,    14.07,     7.47,    16.05
      179.0,      13.17,    15.17,    14.04,     7.46,    16.01
      180.0,      13.14,    15.15,    14.00,     7.45,    15.97
      181.0,      13.11,    15.12,    13.97,     7.44,    15.92
      182.0,      13.08,    15.09,    13.93,     7.43,    15.88
      183.0,      13.05,    15.06,    13.89,     7.42,    15.84
      184.0,      13.03,    15.03,    13.86,     7.41,    15.80
      185.0,      13.00,    15.01,    13.82,     7.40,    15.76
      186.0,      12.97,    14.98,    13.79,     7.40,    15.72
      187.0,      12.94,    14.95,    13.75,     7.39,    15.68
      188.0,      12.91,    14.92,    13.72,     7.38,    15.64
      189.0,      12.89,    14.90,    13.69,     7.37,    15.60
      190.0,      12.86,    14.87,    13.65,     7.36,    15.56
      191.0,      12.83,    14.85,    13.62,     7.35,    15.52
      192.0,      12.81,    14.82,    13.58,     7.34,    15.48
      193.0,      12.78,    14.79,    13.55,     7.33,    15.44
      194.0,      12.75,    14.77,    13.52,     7.32,    15.40
      195.0,      12.73,    14.74,    13.48,     7.32,    15.37
      196.0,      12.70,    14.72,    13.45,     7.31,    15.33
      197.0,      12.67,    14.69,    13.42,     7.30,    15.29
      198.0,      12.65,    14.67,    13.39,     7.29,    15.26
      199.0,      12.62,    14.64,    13.35,     7.28,    15.22
      200.0,      12.60,    14.62,    13.32,     7.27,    15.18
      201.0,      12.57,    14.59,    13.29,     7.26,    15.15
      202.0,      12.55,    14.57,    13.26,     7.26,    15.11
      203.0,      12.52,    14.54,    13.22,     7.25,    15.08
      204.0,      12.50,    14.52,    13.19,     7.24,    15.04
      205.0,      12.47,    14.50,    13.16,     7.23,    15.01
      206.0,      12.45,    14.47,    13.13,     7.22,    14.97
      207.0,      12.43,    14.45,    13.10,     7.22,    14.94
      208.0,      12.40,    14.43,    13.07,     7.21,    14.90
      209.0,      12.38,    14.40,    13.04,     7.20,    14.87
      210.0,      12.35,    14.38,    13.00,     7.19,    14.84
      211.0,      12.33,    14.36,    12.97,     7.18,    14.80
      212.0,      12.31,    14.33,    12.94,     7.18,    14.77
      213.0,      12.28,    14.31,    12.91,     7.17,    14.74
      214.0,      12.26,    14.29,    12.88,     7.16,    14.70
      215.0,      12.23,    14.26,    12.85,     7.15,    14.67
      216.0,      12.21,    14.24,    12.82,     7.15,    14.64
      217.0,      12.19,    14.22,    12.79,     7.14,    14.61
      218.0,      12.17,    14.20,    12.76,     7.13,    14.57
      219.0,      12.14,    14.17,    12.73,     7.12,    14.54
      220.0,      12.12,    14.15,    12.70,     7.11,    14.51
      221.0,      12.10,    14.13,    12.67,     7.11,    14.48
      222.0,      12.07,    14.11,    12.64,     7.10,    14.45
      223.0,      12.05,    14.09,    12.61,     7.09,    14.42
      224.0,      12.03,    14.06,    12.58,     7.08,    14.38
      225.0,      12.01,    14.04,    12.55,     7.08,    14.35
      226.0,      11.98,    14.02,    12.53,     7.07,    14.32
      227.0,      11.96,    14.00,    12.50,     7.06,    14.29
      228.0,      11.94,    13.98,    12.47,     7.05,    14.26
      229.0,      11.92,    13.96,    12.44,     7.05,    14.23
      230.0,      11.90,    13.93,    12.41,     7.04,    14.20
      231.0,      11.87,    13.91,    12.38,     7.03,    14.17
      232.0,      11.85,    13.89,    12.35,     7.03,    14.14
      233.0,      11.83,    13.87,    12.32,     7.02,    14.11
      234.0,      11.81,    13.85,    12.30,     7.01,    14.08
      235.0,      11.79,    13.83,    12.27,     7.00,    14.05
      236.0,      11.77,    13.81,    12.24,     7.00,    14.02
      237.0,      11.75,    13.79,    12.21,     6.99,    13.99
      238.0,      11.72,    13.77,    12.18,     6.98,    13.97
      239.0,      11.70,    13.75,    12.16,     6.97,    13.94
      240.0,      11.68,    13.72,    12.13,     6.97,    13.91
      241.0,      11.66,    13.70,    12.10,     6.96,    13.88
      242.0,      11.64,    13.68,    12.07,     6.95,    13.85
      243.0,      11.62,    13.66,    12.04,     6.95,    13.82
      244.0,      11.60,    13.64,    12.02,     6.94,    13.79
      245.0,      11.58,    13.62,    11.99,     6.93,    13.77
      246.0,      11.56,    13.60,    11.96,     6.92,    13.74
      247.0,      11.54,    13.58,    11.93,     6.92,    13.71
      248.0,      11.51,    13.56,    11.91,     6.91,    13.68
      249.0,      11.49,    13.54,    11.88,     6.90,    13.65
      250.0,      11.47,    13.52,    11.85,     6.90,    13.63
      251.0,      11.45,    13.50,    11.83,     6.89,    13.60
      252.0,      11.43,    13.48,    11.80,     6.88,    13.57
      253.0,      11.41,    13.46,    11.77,     6.88,    13.54
      254.0,      11.39,    13.44,    11.74,     6.87,    13.52
      255.0,      11.37,    13.42,    11.72,     6.86,    13.49
      256.0,      11.35,    13.40,    11.69,     6.85,    13.46
      257.0,      11.33,    13.38,    11.66,     6.85,    13.44
      258.0,      11.31,    13.36,    11.64,     6.84,    13.41
      259.0,      11.29,    13.34,    11.61,     6.83,    13.38
      260.0,      11.27,    13.32,    11.59,     6.83,    13.36
      261.0,      11.25,    13.30,    11.56,     6.82,    13.33
      262.0,      11.23,    13.28,    11.53,     6.81,    13.30
      263.0,      11.21,    13.26,    11.51,     6.81,    13.28
      264.0,      11.19,    13.24,    11.48,     6.80,    13.25
      265.0,      11.17,    13.22,    11.45,     6.79,    13.22
      266.0,      11.15,    13.20,    11.43,     6.79,    13.20
      267.0,      11.13,    13.19,    11.40,     6.78,    13.17
      268.0,      11.11,    13.17,    11.38,     6.77,    13.15
      269.0,      11.10,    13.15,    11.35,     6.76,    13.12
      270.0,      11.08,    13.13,    11.32,     6.76,    13.09
      271.0,      11.06,    13.11,    11.30,     6.75,    13.07
      272.0,      11.04,    13.09,    11.27,     6.74,    13.04
      273.0,      11.02,    13.07,    11.25,     6.74,    13.02
      274.0,      11.00,    13.05,    11.22,     6.73,    12.99
      275.0,      10.98,    13.03,    11.20,     6.72,    12.97
      276.0,      10.96,    13.01,    11.17,     6.72,    12.94
      277.0,      10.94,    12.99,    11.15,     6.71,    12.91
      278.0,      10.92,    12.97,    11.12,     6.70,    12.89
      279.0,      10.90,    12.96,    11.10,     6.70,    12.86
      280.0,      10.88,    12.94,    11.07,     6.69,    12.84
      281.0,      10.87,    12.92,    11.05,     6.68,    12.81
      282.0,      10.85,    12.90,    11.02,     6.68,    12.79
      283.0,      10.83,    12.88,    11.00,     6.67,    12.76
      284.0,      10.81,    12.86,    10.97,     6.66,    12.74
      285.0,      10.79,    12.84,    10.95,     6.66,    12.71
      286.0,      10.77,    12.82,    10.92,     6.65,    12.69
      287.0,      10.75,    12.81,    10.90,     6.64,    12.67
      288.0,      10.73,    12.79,    10.87,     6.64,    12.64
      289.0,      10.72,    12.77,    10.85,     6.63,    12.62
      290.0,      10.70,    12.75,    10.82,     6.62,    12.59
      291.0,      10.68,    12.73,    10.80,     6.62,    12.57
      292.0,      10.66,    12.71,    10.77,     6.61,    12.54
      293.0,      10.64,    12.69,    10.75,     6.60,    12.52
      294.0,      10.62,    12.68,    10.73,     6.60,    12.49
      295.0,      10.60,    12.66,    10.70,     6.59,    12.47
      296.0,      10.59,    12.64,    10.68,     6.58,    12.45
      297.0,      10.57,    12.62,    10.65,     6.58,    12.42
      298.0,      10.55,    12.60,    10.63,     6.57,    12.40
      299.0,      10.53,    12.58,    10.61,     6.56,    12.37
      300.0,      10.51,    12.57,    10.58,     6.56,    12.35
      301.0,      10.50,    12.55,    10.56,     6.55,    12.33
      302.0,      10.48,    12.53,    10.53,     6.54,    12.30
      303.0,      10.46,    12.51,    10.51,     6.54,    12.28
      304.0,      10.44,    12.49,    10.49,     6.53,    12.26
      305.0,      10.42,    12.48,    10.46,     6.52,    12.23
      306.0,      10.41,    12.46,    10.44,     6.52,    12.21
      307.0,      10.39,    12.44,    10.42,     6.51,    12.19
      308.0,      10.37,    12.42,    10.39,     6.50,    12.16
      309.0,      10.35,    12.40,    10.37,     6.50,    12.14
      310.0,      10.33,    12.39,    10.34,     6.49,    12.12
