Radius (km), Mean (m/s), NE (m/s), SE (m/s), SW (m/s), NW (m/s)
        0.0,       0.00,     0.00,     0.00,     0.00,     0.00
        1.0,       3.28,     3.15,     3.30,     3.43,     3.23
        2.0,       5.70,     5.68,     5.71,     5.72,     5.69
        3.0,       7.92,     8.10,     7.88,     7.76,     7.95
        4.0,      10.11,    10.58,     9.98,     9.72,    10.16
        5.0,      12.38,    13.22,    12.12,    11.72,    12.45
        6.0,      14.78,    16.07,    14.37,    13.80,    14.88
        7.0,      17.35,    19.12,    16.79,    16.00,    17.48
        8.0,      20.03,    22.28,    19.36,    18.26,    20.23
        9.0,      22.76,    25.45,    22.02,    20.53,    23.05
       10.0,      25.41,    28.47,    24.65,    22.72,    25.82
       11.0,      27.87,    31.20,    27.13,    24.73,    28.41
       12.0,      30.00,    33.50,    29.33,    26.46,    30.70
       13.0,      31.72,    35.29,    31.14,    27.86,    32.57
       14.0,      32.96,    36.54,    32.48,    28.87,    33.97
       15.0,      33.73,    37.25,    33.33,    29.50,    34.86
       16.0,      34.06,    37.48,    33.70,    29.78,    35.29
       17.0,      34.02,    37.34,    33.66,    29.76,    35.31
       18.0,      33.69,    36.93,    33.29,    29.54,    35.02
       19.0,      33.19,    36.35,    32.70,    29.17,    34.53
       20.0,      32.59,    35.71,    31.99,    28.74,    33.92
       21.0,      31.97,    35.07,    31.24,    28.29,    33.29
       22.0,      31.36,    34.45,    30.50,    27.84,    32.66
       23.0,      30.79,    33.86,    29.80,    27.42,    32.08
       24.0,      30.25,    33.30,    29.15,    27.01,    31.53
       25.0,      29.73,    32.76,    28.53,    26.62,    31.00
       26.0,      29.23,    32.25,    27.93,    26.23,    30.49
       27.0,      28.74,    31.75,    27.36,    25.86,    30.01
       28.0,      28.28,    31.27,    26.81,    25.49,    29.54
       29.0,      27.83,    30.81,    26.28,    25.14,    29.08
       30.0,      27.39,    30.37,    25.76,    24.79,    28.65
       31.0,      26.97,    29.94,    25.27,    24.45,    28.23
       32.0,      26.57,    29.53,    24.80,    24.12,    27.82
       33.0,      26.17,    29.13,    24.34,    23.79,    27.43
       34.0,      25.80,    28.75,    23.90,    23.48,    27.05
       35.0,      25.43,    28.38,    23.48,    23.17,    26.69
       36.0,      25.08,    28.03,    23.07,    22.87,    26.34
       37.0,      24.74,    27.69,    22.68,    22.58,    26.00
       38.0,      24.41,    27.36,    22.30,    22.29,    25.67
       39.0,      24.09,    27.05,    21.94,    22.01,    25.36
       40.0,      23.78,    26.74,    21.59,    21.74,    25.05
       41.0,      23.48,    26.45,    21.25,    21.47,    24.76
       42.0,      23.19,    26.16,    20.92,    21.21,    24.48
       43.0,      22.92,    25.89,    20.61,    20.96,    24.20
       44.0,      22.65,    25.63,    20.31,    20.71,    23.94
       45.0,      22.39,    25.38,    20.02,    20.47,    23.68
       46.0,      22.14,    25.13,    19.74,    20.24,    23.44
       47.0,      21.89,    24.90,    19.47,    20.01,    23.20
       48.0,      21.66,    24.67,    19.21,    19.79,    22.97
       49.0,      21.43,    24.45,    18.96,    19.57,    22.75
       50.0,      21.21,    24.24,    18.71,    19.36,    22.53
       51.0,      21.00,    24.03,    18.48,    19.15,    22.32
       52.0,      20.79,    23.84,    18.25,    18.95,    22.12
       53.0,      20.59,    23.65,    18.04,    18.75,    21.93
       54.0,      20.40,    23.46,    17.83,    18.55,    21.74
       55.0,      20.21,    23.29,    17.62,    18.37,    21.56
       56.0,      20.03,    23.12,    17.43,    18.18,    21.38
       57.0,      19.85,    22.95,    17.24,    18.00,    21.21
       58.0,      19.68,    22.79,    17.06,    17.83,    21.04
       59.0,      19.52,    22.64,    16.88,    17.66,    20.88
       60.0,      19.36,    22.49,    16.71,    17.49,    20.73
       61.0,      19.20,    22.35,    16.55,    17.33,    20.58
       62.0,      19.05,    22.21,    16.39,    17.17,    20.43
       63.0,      18.90,    22.07,    16.24,    17.01,    20.29
       64.0,      18.76,    21.94,    16.09,    16.86,    20.16
       65.0,      18.62,    21.82,    15.95,    16.71,    20.02
       66.0,      18.49,    21.70,    15.81,    16.57,    19.89
       67.0,      18.36,    21.58,    15.67,    16.42,    19.77
       68.0,      18.24,    21.47,    15.54,    16.29,    19.65
       69.0,      18.11,    21.36,    15.42,    16.15,    19.53
       70.0,      18.00,    21.25,    15.30,    16.02,    19.41
       71.0,      17.88,    21.15,    15.18,    15.89,    19.30
       72.0,      17.77,    21.05,    15.07,    15.77,    19.19
       73.0,      17.66,    20.95,    14.96,    15.64,    19.09
       74.0,      17.55,    20.85,    14.85,    15.52,    18.99
       75.0,      17.45,    20.76,    14.75,    15.41,    18.89
       76.0,      17.35,    20.68,    14.65,    15.29,    18.79
       77.0,      17.25,    20.59,    14.55,    15.18,    18.69
       78.0,      17.16,    20.51,    14.46,    15.07,    18.60
       79.0,      17.07,    20.43,    14.37,    14.96,    18.51
       80.0,      16.98,    20.35,    14.28,    14.86,    18.43
       81.0,      16.89,    20.27,    14.19,    14.76,    18.34
       82.0,      16.81,    20.20,    14.11,    14.66,    18.26
       83.0,      16.72,    20.13,    14.03,    14.56,    18.18
       84.0,      16.64,    20.06,    13.95,    14.47,    18.10
       85.0,      16.56,    19.99,    13.87,    14.37,    18.02
       86.0,      16.49,    19.92,    13.80,    14.28,    17.94
       87.0,      16.41,    19.86,    13.73,    14.19,    17.87
       88.0,      16.34,    19.80,    13.66,    14.11,    17.80
       89.0,      16.27,    19.73,    13.59,    14.02,    17.73
       90.0,      16.20,    19.68,    13.53,    13.94,    17.66
       91.0,      16.13,    19.62,    13.46,    13.86,    17.59
       92.0,      16.07,    19.56,    13.40,    13.78,    17.52
       93.0,      16.00,    19.51,    13.34,    13.70,    17.46
       94.0,      15.94,    19.45,    13.28,    13.62,    17.40
       95.0,      15.88,    19.40,    13.22,    13.55,    17.33
       96.0,      15.82,    19.35,    13.16,    13.48,    17.27
       97.0,      15.76,    19.30,    13.11,    13.40,    17.21
       98.0,      15.70,    19.25,    13.05,    13.33,    17.16
       99.0,      15.64,    19.20,    13.00,    13.27,    17.10
      100.0,      15.59,    19.16,    12.95,    13.20,    17.04
      101.0,      15.53,    19.11,    12.90,    13.13,    16.99
      102.0,      15.48,    19.07,    12.85,    13.07,    16.93
      103.0,      15.43,    19.02,    12.80,    13.01,    16.88
      104.0,      15.38,    18.98,    12.76,    12.95,    16.83
      105.0,      15.33,    18.94,    12.71,    12.89,    16.77
      106.0,      15.28,    18.90,    12.67,    12.83,    16.72
      107.0,      15.23,    18.86,    12.62,    12.77,    16.67
      108.0,      15.19,    18.82,    12.58,    12.72,    16.62
      109.0,      15.14,    18.78,    12.54,    12.66,    16.58
      110.0,      15.09,    18.74,    12.50,    12.61,    16.53
      111.0,      15.05,    18.71,    12.46,    12.55,    16.48
      112.0,      15.01,    18.67,    12.42,    12.50,    16.44
      113.0,      14.96,    18.63,    12.38,    12.45,    16.39
      114.0,      14.92,    18.60,    12.34,    12.40,    16.34
      115.0,      14.88,    18.56,    12.30,    12.35,    16.30
      116.0,      14.84,    18.53,    12.27,    12.30,    16.26
      117.0,      14.80,    18.50,    12.23,    12.26,    16.21
      118.0,      14.76,    18.46,    12.20,    12.21,    16.17
      119.0,      14.72,    18.43,    12.16,    12.17,    16.13
      120.0,      14.68,    18.40,    12.13,    12.12,    16.09
      121.0,      14.65,    18.37,    12.09,    12.08,    16.04
      122.0,      14.61,    18.34,    12.06,    12.04,    16.00
      123.0,      14.57,    18.31,    12.03,    12.00,    15.96
      124.0,      14.54,    18.28,    12.00,    11.95,    15.92
      125.0,      14.50,    18.25,    11.97,    11.91,    15.88
      126.0,      14.47,    18.22,    11.93,    11.88,    15.85
      127.0,      14.43,    18.19,    11.90,    11.84,    15.81
      128.0,      14.40,    18.16,    11.87,    11.80,    15.77
      129.0,      14.37,    18.13,    11.84,    11.76,    15.73
      130.0,      14.33,    18.10,    11.81,    11.73,    15.69
      131.0,      14.30,    18.08,    11.79,    11.69,    15.66
      132.0,      14.27,    18.05,    11.76,    11.65,    15.62
      133.0,      14.24,    18.02,    11.73,    11.62,    15.58
      134.0,      14.21,    18.00,    11.70,    11.59,    15.55
      135.0,      14.18,    17.97,    11.67,    11.55,    15.51
      136.0,      14.15,    17.94,    11.65,    11.52,    15.47
      137.0,      14.12,    17.92,    11.62,    11.49,    15.44
      138.0,      14.09,    17.89,    11.59,    11.46,    15.40
      139.0,      14.06,    17.87,    11.57,    11.43,    15.37
      140.0,      14.03,    17.84,    11.54,    11.40,    15.33
      141.0,      14.00,    17.82,    11.51,    11.37,    15.30
      142.0,      13.97,    17.79,    11.49,    11.34,    15.27
      143.0,      13.94,    17.77,    11.46,    11.31,    15.23
      144.0,      13.91,    17.74,    11.44,    11.28,    15.20
      145.0,      13.89,    17.72,    11.41,    11.25,    15.17
      146.0,      13.86,    17.69,    11.39,    11.22,    15.13
      147.0,      13.83,    17.67,    11.36,    11.20,    15.10
      148.0,      13.81,    17.65,    11.34,    11.17,    15.07
      149.0,      13.78,    17.62,    11.32,    11.14,    15.03
      150.0,      13.75,    17.60,    11.29,    11.12,    15.00
      151.0,      13.73,    17.58,    11.27,    11.09,    14.97
      152.0,      13.70,    17.56,    11.25,    11.07,    14.94
      153.0,      13.68,    17.53,    11.22,    11.04,    14.91
      154.0,      13.65,    17.51,    11.20,    11.02,    14.87
      155.0,      13.62,    17.49,    11.18,    10.99,    14.84
      156.0,      13.60,    17.47,    11.15,    10.97,    14.81
      157.0,      13.58,    17.44,    11.13,    10.95,    14.78
      158.0,      13.55,    17.42,    11.11,    10.92,    14.75
      159.0,      13.53,    17.40,    11.09,    10.90,    14.72
      160.0,      13.50,    17.38,    11.07,    10.88,    14.69
      161.0,      13.48,    17.36,    11.04,    10.86,    14.66
      162.0,      13.45,    17.33,    11.02,    10.83,    14.63
      163.0,      13.43,    17.31,    11.00,    10.81,    14.60
      164.0,      13.41,    17.29,    10.98,    10.79,    14.57
      165.0,      13.38,    17.27,    10.96,    10.77,    14.54
      166.0,      13.36,    17.25,    10.94,    10.75,    14.51
      167.0,      13.34,    17.23,    10.91,    10.73,    14.48
      168.0,      13.31,    17.21,    10.89,    10.71,    14.45
      169.0,      13.29,    17.19,    10.87,    10.69,    14.42
      170.0,      13.27,    17.16,    10.85,    10.67,    14.39
      171.0,      13.25,    17.14,    10.83,    10.65,    14.36
      172.0,      13.22,    17.12,    10.81,    10.63,    14.33
      173.0,      13.20,    17.10,    10.79,    10.61,    14.30
      174.0,      13.18,    17.08,    10.77,    10.60,    14.27
      175.0,      13.16,    17.06,    10.75,    10.58,    14.24
      176.0,      13.14,    17.04,    10.73,    10.56,    14.21
      177.0,      13.11,    17.02,    10.71,    10.54,    14.18
      178.0,      13.09,    17.00,    10.69,    10.52,    14.16
      179.0,      13.07,    16.98,    10.67,    10.51,    14.13
      180.0,      13.05,    16.96,    10.65,    10.49,    14.10
      181.0,      13.03,    16.94,    10.63,    10.47,    14.07
      182.0,      13.01,    16.92,    10.61,    10.45,    14.04
      183.0,      12.99,    16.90,    10.59,    10.44,    14.01
      184.0,      12.96,    16.88,    10.57,    10.42,    13.99
      185.0,      12.94,    16.86,    10.55,    10.40,    13.96
      186.0,      12.92,    16.84,    10.53,    10.39,    13.93
      187.0,      12.90,    16.82,    10.51,    10.37,    13.90
      188.0,      12.88,    16.80,    10.49,    10.36,    13.87
      189.0,      12.86,    16.78,    10.47,    10.34,    13.85
      190.0,      12.84,    16.76,    10.45,    10.32,    13.82
      191.0,      12.82,    16.74,    10.43,    10.31,    13.79
      192.0,      12.80,    16.72,    10.42,    10.29,    13.76
      193.0,      12.78,    16.70,    10.40,    10.28,    13.74
      194.0,      12.76,    16.68,    10.38,    10.26,    13.71
      195.0,      12.74,    16.67,    10.36,    10.25,    13.68
      196.0,      12.72,    16.65,    10.34,    10.23,    13.66
      197.0,      12.70,    16.63,    10.32,    10.22,    13.63
      198.0,      12.68,    16.61,    10.30,    10.21,    13.60
      199.0,      12.66,    16.59,    10.28,    10.19,    13.57
      200.0,      12.64,    16.57,    10.26,    10.18,    13.55
      201.0,      12.62,    16.55,    10.25,    10.16,    13.52
      202.0,      12.60,    16.53,    10.23,    10.15,    13.49
      203.0,      12.58,    16.51,    10.21,    10.13,    13.47
      204.0,      12.56,    16.49,    10.19,    10.12,    13.44
      205.0,      12.54,    16.47,    10.17,    10.11,    13.41
      206.0,      12.52,    16.46,    10.15,    10.09,    13.39
      207.0,      12.50,    16.44,    10.14,    10.08,    13.36
      208.0,      12.48,    16.42,    10.12,    10.07,    13.34
      209.0,      12.47,    16.40,    10.10,    10.05,    13.31
      210.0,      12.45,    16.38,    10.08,    10.04,    13.28
      211.0,      12.43,    16.36,    10.06,    10.03,    13.26
      212.0,      12.41,    16.34,    10.05,    10.01,    13.23
      213.0,      12.39,    16.32,    10.03,    10.00,    13.21
      214.0,      12.37,    16.31,    10.01,     9.99,    13.18
      215.0,      12.35,    16.29,     9.99,     9.98,    13.15
      216.0,      12.33,    16.27,     9.97,     9.96,    13.13
      217.0,      12.31,    16.25,     9.96,     9.95,    13.10
      218.0,      12.30,    16.23,     9.94,     9.94,    13.08
      219.0,      12.28,    16.21,     9.92,     9.92,    13.05
      220.0,      12.26,    16.19,     9.90,     9.91,    13.02
      221.0,      12.24,    16.18,     9.88,     9.90,    13.00
      222.0,      12.22,    16.16,     9.87,     9.89,    12.97
      223.0,      12.20,    16.14,     9.85,     9.88,    12.95
      224.0,      12.19,    16.12,     9.83,     9.86,    12.92
      225.0,      12.17,    16.10,     9.81,     9.85,    12.90
      226.0,      12.15,    16.08,     9.80,     9.84,    12.87
      227.0,      12.13,    16.07,     9.78,     9.83,    12.85
      228.0,      12.11,    16.05,     9.76,     9.82,    12.82
      229.0,      12.09,    16.03,     9.75,     9.80,    12.80
      230.0,      12.08,    16.01,     9.73,     9.79,    12.77
      231.0,      12.06,    15.99,     9.71,     9.78,    12.75
      232.0,      12.04,    15.98,     9.69,     9.77,    12.72
      233.0,      12.02,    15.96,     9.68,     9.76,    12.70
      234.0,      12.00,    15.94,     9.66,     9.75,    12.67
      235.0,      11.99,    15.92,     9.64,     9.74,    12.65
      236.0,      11.97,    15.90,     9.62,     9.72,    12.62
      237.0,      11.95,    15.89,     9.61,     9.71,    12.60
      238.0,      11.93,    15.87,     9.59,     9.70,    12.57
      239.0,      11.92,    15.85,     9.57,     9.69,    12.55
      240.0,      11.90,    15.83,     9.56,     9.68,    12.53
      241.0,      11.88,    15.81,     9.54,     9.67,    12.50
      242.0,      11.86,    15.80,     9.52,     9.66,    12.48
      243.0,      11.85,    15.78,     9.51,     9.65,    12.45
      244.0,      11.83,    15.76,     9.49,     9.63,    12.43
      245.0,      11.81,    15.74,     9.47,     9.62,    12.40
      246.0,      11.79,    15.72,     9.46,     9.61,    12.38
      247.0,      11.78,    15.71,     9.44,     9.60,    12.36
      248.0,      11.76,    15.69,     9.42,     9.59,    12.33
      249.0,      11.74,    15.67,     9.41,     9.58,    12.31
      250.0,      11.72,    15.65,     9.39,     9.57,    12.28
      251.0,      11.71,    15.64,     9.37,     9.56,    12.26
      252.0,      11.69,    15.62,     9.36,     9.55,    12.24
      253.0,      11.67,    15.60,     9.34,     9.54,    12.21
      254.0,      11.66,    15.58,     9.32,     9.53,    12.19
      255.0,      11.64,    15.57,     9.31,     9.52,    12.16
      256.0,      11.62,    15.55,     9.29,     9.51,    12.14
      257.0,      11.60,    15.53,     9.27,     9.50,    12.12
      258.0,      11.59,    15.51,     9.26,     9.49,    12.09
      259.0,      11.57,    15.50,     9.24,     9.48,    12.07
      260.0,      11.55,    15.48,     9.22,     9.47,    12.05
      261.0,      11.54,    15.46,     9.21,     9.45,    12.02
      262.0,      11.52,    15.44,     9.19,     9.44,    12.00
      263.0,      11.50,    15.43,     9.18,     9.43,    11.98
      264.0,      11.49,    15.41,     9.16,     9.42,    11.95
      265.0,      11.47,    15.39,     9.14,     9.41,    11.93
      266.0,      11.45,    15.37,     9.13,     9.40,    11.91
      267.0,      11.44,    15.36,     9.11,     9.39,    11.88
      268.0,      11.42,    15.34,     9.10,     9.38,    11.86
      269.0,      11.40,    15.32,     9.08,     9.37,    11.84
      270.0,      11.39,    15.30,     9.06,     9.36,    11.81
      271.0,      11.37,    15.29,     9.05,     9.35,    11.79
      272.0,      11.35,    15.27,     9.03,     9.34,    11.77
      273.0,      11.34,    15.25,     9.02,     9.33,    11.74
      274.0,      11.32,    15.24,     9.00,     9.32,    11.72
      275.0,      11.30,    15.22,     8.98,     9.31,    11.70
      276.0,      11.29,    15.20,     8.97,     9.30,    11.68
      277.0,      11.27,    15.18,     8.95,     9.29,    11.65
      278.0,      11.25,    15.17,     8.94,     9.28,    11.63
      279.0,      11.24,    15.15,     8.92,     9.27,    11.61
      280.0,      11.22,    15.13,     8.90,     9.26,    11.59
      281.0,      11.21,    15.12,     8.89,     9.25,    11.56
      282.0,      11.19,    15.10,     8.87,     9.24,    11.54
      283.0,      11.17,    15.08,     8.86,     9.24,    11.52
      284.0,      11.16,    15.07,     8.84,     9.23,    11.50
      285.0,      11.14,    15.05,     8.83,     9.22,    11.47
      286.0,      11.12,    15.03,     8.81,     9.21,    11.45
      287.0,      11.11,    15.01,     8.80,     9.20,    11.43
      288.0,      11.09,    15.00,     8.78,     9.19,    11.41
      289.0,      11.08,    14.98,     8.76,     9.18,    11.38
      290.0,      11.06,    14.96,     8.75,     9.17,    11.36
      291.0,      11.04,    14.95,     8.73,     9.16,    11.34
      292.0,      11.03,    14.93,     8.72,     9.15,    11.32
      293.0,      11.01,    14.91,     8.70,     9.14,    11.30
      294.0,      11.00,    14.90,     8.69,     9.13,    11.27
      295.0,      10.98,    14.88,     8.67,     9.12,    11.25
      296.0,      10.97,    14.86,     8.66,     9.11,    11.23
      297.0,      10.95,    14.85,     8.64,     9.10,    11.21
      298.0,      10.93,    14.83,     8.63,     9.09,    11.19
      299.0,      10.92,    14.81,     8.61,     9.08,    11.16
      300.0,      10.90,    14.80,     8.60,     9.07,    11.14
      301.0,      10.89,    14.78,     8.58,     9.06,    11.12
      302.0,      10.87,    14.76,     8.57,     9.05,    11.10
      303.0,      10.86,    14.75,     8.55,     9.04,    11.08
      304.0,      10.84,    14.73,     8.54,     9.04,    11.06
      305.0,      10.82,    14.71,     8.52,     9.03,    11.03
      306.0,      10.81,    14.70,     8.51,     9.02,    11.01
      307.0,      10.79,    14.68,     8.49,     9.01,    10.99
      308.0,      10.78,    14.66,     8.48,     9.00,    10.97
      309.0,      10.76,    14.65,     8.46,     8.99,    10.95
      310.0,      10.75,    14.63,     8.45,     8.98,    10.93
