Radius (km), Mean (m/s), NE (m/s), SE (m/s), SW (m/s), NW (m/s)
        0.0,       0.00,     0.00,     0.00,     0.00,     0.00
        1.0,       3.06,     2.71,     3.24,     3.29,     2.99
        2.0,       5.57,     5.32,     5.72,     5.72,     5.54
        3.0,       7.98,     7.99,     8.03,     7.92,     7.96
        4.0,      10.41,    10.85,    10.36,    10.07,    10.37
        5.0,      12.99,    14.01,    12.82,    12.27,    12.87
        6.0,      15.78,    17.53,    15.47,    14.59,    15.54
        7.0,      18.81,    21.41,    18.32,    17.06,    18.44
        8.0,      22.02,    25.56,    21.29,    19.67,    21.56
        9.0,      25.31,    29.79,    24.29,    22.35,    24.83
       10.0,      28.55,    33.92,    27.17,    24.99,    28.11
       11.0,      31.56,    37.71,    29.79,    27.46,    31.26
       12.0,      34.19,    40.97,    32.01,    29.65,    34.11
       13.0,      36.32,    43.55,    33.74,    31.45,    36.52
       14.0,      37.87,    45.35,    34.94,    32.80,    38.39
       15.0,      38.83,    46.39,    35.59,    33.66,    39.67
       16.0,      39.23,    46.73,    35.76,    34.08,    40.36
       17.0,      39.17,    46.49,    35.54,    34.10,    40.54
       18.0,      38.75,    45.84,    35.04,    33.82,    40.29
       19.0,      38.09,    44.92,    34.36,    33.33,    39.76
       20.0,      37.32,    43.89,    33.61,    32.73,    39.05
       21.0,      36.51,    42.83,    32.85,    32.09,    38.28
       22.0,      35.73,    41.82,    32.11,    31.46,    37.51
       23.0,      34.98,    40.87,    31.42,    30.85,    36.79
       24.0,      34.28,    39.96,    30.75,    30.28,    36.12
       25.0,      33.60,    39.09,    30.12,    29.72,    35.48
       26.0,      32.95,    38.25,    29.51,    29.18,    34.86
       27.0,      32.32,    37.45,    28.92,    28.66,    34.27
       28.0,      31.72,    36.67,    28.36,    28.14,    33.70
       29.0,      31.14,    35.93,    27.82,    27.64,    33.15
       30.0,      30.57,    35.21,    27.30,    27.16,    32.62
       31.0,      30.03,    34.52,    26.79,    26.69,    32.11
       32.0,      29.50,    33.86,    26.31,    26.22,    31.62
       33.0,      29.00,    33.22,    25.85,    25.78,    31.14
       34.0,      28.51,    32.61,    25.40,    25.34,    30.68
       35.0,      28.04,    32.02,    24.97,    24.91,    30.24
       36.0,      27.58,    31.45,    24.56,    24.50,    29.81
       37.0,      27.14,    30.91,    24.16,    24.09,    29.39
       38.0,      26.71,    30.38,    23.78,    23.70,    28.99
       39.0,      26.30,    29.88,    23.41,    23.31,    28.61
       40.0,      25.90,    29.39,    23.05,    22.94,    28.23
       41.0,      25.52,    28.92,    22.71,    22.58,    27.87
       42.0,      25.15,    28.47,    22.38,    22.22,    27.53
       43.0,      24.79,    28.04,    22.07,    21.88,    27.19
       44.0,      24.45,    27.62,    21.76,    21.54,    26.86
       45.0,      24.11,    27.22,    21.47,    21.21,    26.55
       46.0,      23.79,    26.83,    21.19,    20.89,    26.24
       47.0,      23.48,    26.46,    20.92,    20.58,    25.95
       48.0,      23.17,    26.10,    20.65,    20.28,    25.66
       49.0,      22.88,    25.75,    20.40,    19.98,    25.39
       50.0,      22.60,    25.42,    20.16,    19.69,    25.12
       51.0,      22.32,    25.10,    19.93,    19.41,    24.86
       52.0,      22.06,    24.79,    19.70,    19.14,    24.61
       53.0,      21.80,    24.49,    19.48,    18.87,    24.37
       54.0,      21.56,    24.20,    19.27,    18.61,    24.13
       55.0,      21.32,    23.93,    19.07,    18.36,    23.91
       56.0,      21.08,    23.66,    18.88,    18.11,    23.68
       57.0,      20.86,    23.40,    18.69,    17.87,    23.47
       58.0,      20.64,    23.16,    18.51,    17.64,    23.26
       59.0,      20.43,    22.92,    18.34,    17.41,    23.06
       60.0,      20.23,    22.69,    18.17,    17.19,    22.86
       61.0,      20.03,    22.47,    18.01,    16.97,    22.67
       62.0,      19.84,    22.25,    17.85,    16.76,    22.49
       63.0,      19.65,    22.05,    17.70,    16.55,    22.31
       64.0,      19.47,    21.85,    17.56,    16.35,    22.14
       65.0,      19.30,    21.66,    17.42,    16.16,    21.97
       66.0,      19.13,    21.47,    17.28,    15.97,    21.80
       67.0,      18.97,    21.29,    17.15,    15.78,    21.64
       68.0,      18.81,    21.12,    17.03,    15.60,    21.49
       69.0,      18.65,    20.96,    16.91,    15.42,    21.34
       70.0,      18.51,    20.80,    16.79,    15.25,    21.19
       71.0,      18.36,    20.64,    16.68,    15.08,    21.05
       72.0,      18.22,    20.49,    16.57,    14.92,    20.91
       73.0,      18.08,    20.35,    16.46,    14.76,    20.77
       74.0,      17.95,    20.21,    16.36,    14.60,    20.64
       75.0,      17.82,    20.07,    16.26,    14.45,    20.51
       76.0,      17.70,    19.94,    16.16,    14.30,    20.38
       77.0,      17.58,    19.81,    16.07,    14.16,    20.26
       78.0,      17.46,    19.69,    15.98,    14.02,    20.14
       79.0,      17.34,    19.57,    15.90,    13.88,    20.02
       80.0,      17.23,    19.46,    15.81,    13.74,    19.91
       81.0,      17.12,    19.35,    15.73,    13.61,    19.79
       82.0,      17.02,    19.24,    15.66,    13.49,    19.68
       83.0,      16.91,    19.14,    15.58,    13.36,    19.58
       84.0,      16.81,    19.04,    15.51,    13.24,    19.47
       85.0,      16.72,    18.94,    15.44,    13.12,    19.37
       86.0,      16.62,    18.85,    15.37,    13.01,    19.27
       87.0,      16.53,    18.76,    15.30,    12.89,    19.17
       88.0,      16.44,    18.67,    15.24,    12.78,    19.08
       89.0,      16.35,    18.58,    15.17,    12.68,    18.98
       90.0,      16.27,    18.50,    15.11,    12.57,    18.89
       91.0,      16.19,    18.42,    15.05,    12.47,    18.80
       92.0,      16.11,    18.34,    15.00,    12.37,    18.71
       93.0,      16.03,    18.27,    14.94,    12.27,    18.63
       94.0,      15.95,    18.19,    14.89,    12.18,    18.54
       95.0,      15.87,    18.12,    14.84,    12.08,    18.46
       96.0,      15.80,    18.05,    14.79,    11.99,    18.37
       97.0,      15.73,    17.99,    14.74,    11.90,    18.29
       98.0,      15.66,    17.92,    14.69,    11.82,    18.21
       99.0,      15.59,    17.86,    14.64,    11.73,    18.14
      100.0,      15.53,    17.80,    14.60,    11.65,    18.06
      101.0,      15.46,    17.74,    14.55,    11.57,    17.98
      102.0,      15.40,    17.68,    14.51,    11.49,    17.91
      103.0,      15.34,    17.62,    14.47,    11.42,    17.84
      104.0,      15.27,    17.56,    14.43,    11.34,    17.77
      105.0,      15.22,    17.51,    14.39,    11.27,    17.69
      106.0,      15.16,    17.46,    14.35,    11.20,    17.62
      107.0,      15.10,    17.41,    14.31,    11.13,    17.56
      108.0,      15.04,    17.36,    14.27,    11.06,    17.49
      109.0,      14.99,    17.31,    14.24,    10.99,    17.42
      110.0,      14.94,    17.26,    14.20,    10.93,    17.36
      111.0,      14.88,    17.21,    14.17,    10.86,    17.29
      112.0,      14.83,    17.17,    14.14,    10.80,    17.23
      113.0,      14.78,    17.12,    14.10,    10.74,    17.16
      114.0,      14.73,    17.08,    14.07,    10.68,    17.10
      115.0,      14.68,    17.04,    14.04,    10.62,    17.04
      116.0,      14.64,    17.00,    14.01,    10.57,    16.98
      117.0,      14.59,    16.96,    13.98,    10.51,    16.92
      118.0,      14.55,    16.92,    13.95,    10.46,    16.86
      119.0,      14.50,    16.88,    13.92,    10.40,    16.80
      120.0,      14.46,    16.84,    13.89,    10.35,    16.74
      121.0,      14.41,    16.80,    13.87,    10.30,    16.68
      122.0,      14.37,    16.76,    13.84,    10.25,    16.63
      123.0,      14.33,    16.73,    13.81,    10.20,    16.57
      124.0,      14.29,    16.69,    13.79,    10.15,    16.51
      125.0,      14.25,    16.66,    13.76,    10.11,    16.46
      126.0,      14.21,    16.63,    13.74,    10.06,    16.40
      127.0,      14.17,    16.59,    13.71,    10.02,    16.35
      128.0,      14.13,    16.56,    13.69,     9.97,    16.30
      129.0,      14.09,    16.53,    13.66,     9.93,    16.24
      130.0,      14.05,    16.50,    13.64,     9.89,    16.19
      131.0,      14.02,    16.46,    13.62,     9.85,    16.14
      132.0,      13.98,    16.43,    13.60,     9.81,    16.09
      133.0,      13.94,    16.40,    13.57,     9.77,    16.03
      134.0,      13.91,    16.37,    13.55,     9.73,    15.98
      135.0,      13.87,    16.34,    13.53,     9.69,    15.93
      136.0,      13.84,    16.32,    13.51,     9.65,    15.88
      137.0,      13.81,    16.29,    13.49,     9.62,    15.83
      138.0,      13.77,    16.26,    13.47,     9.58,    15.78
      139.0,      13.74,    16.23,    13.45,     9.55,    15.73
      140.0,      13.71,    16.20,    13.43,     9.51,    15.69
      141.0,      13.68,    16.18,    13.41,     9.48,    15.64
      142.0,      13.64,    16.15,    13.39,     9.45,    15.59
      143.0,      13.61,    16.13,    13.37,     9.42,    15.54
      144.0,      13.58,    16.10,    13.35,     9.38,    15.49
      145.0,      13.55,    16.07,    13.33,     9.35,    15.45
      146.0,      13.52,    16.05,    13.31,     9.32,    15.40
      147.0,      13.49,    16.02,    13.29,     9.29,    15.35
      148.0,      13.46,    16.00,    13.27,     9.26,    15.31
      149.0,      13.43,    15.97,    13.26,     9.23,    15.26
      150.0,      13.40,    15.95,    13.24,     9.21,    15.22
      151.0,      13.37,    15.93,    13.22,     9.18,    15.17
      152.0,      13.35,    15.90,    13.20,     9.15,    15.13
      153.0,      13.32,    15.88,    13.18,     9.12,    15.08
      154.0,      13.29,    15.86,    13.17,     9.10,    15.04
      155.0,      13.26,    15.83,    13.15,     9.07,    14.99
      156.0,      13.23,    15.81,    13.13,     9.05,    14.95
      157.0,      13.21,    15.79,    13.12,     9.02,    14.90
      158.0,      13.18,    15.77,    13.10,     9.00,    14.86
      159.0,      13.15,    15.74,    13.08,     8.97,    14.82
      160.0,      13.13,    15.72,    13.07,     8.95,    14.77
      161.0,      13.10,    15.70,    13.05,     8.93,    14.73
      162.0,      13.08,    15.68,    13.03,     8.90,    14.69
      163.0,      13.05,    15.66,    13.02,     8.88,    14.65
      164.0,      13.02,    15.63,    13.00,     8.86,    14.60
      165.0,      13.00,    15.61,    12.99,     8.84,    14.56
      166.0,      12.97,    15.59,    12.97,     8.82,    14.52
      167.0,      12.95,    15.57,    12.96,     8.79,    14.48
      168.0,      12.92,    15.55,    12.94,     8.77,    14.44
      169.0,      12.90,    15.53,    12.92,     8.75,    14.39
      170.0,      12.88,    15.51,    12.91,     8.73,    14.35
      171.0,      12.85,    15.49,    12.89,     8.71,    14.31
      172.0,      12.83,    15.47,    12.88,     8.69,    14.27
      173.0,      12.80,    15.45,    12.86,     8.67,    14.23
      174.0,      12.78,    15.43,    12.85,     8.66,    14.19
      175.0,      12.76,    15.41,    12.83,     8.64,    14.15
      176.0,      12.73,    15.39,    12.82,     8.62,    14.11
      177.0,      12.71,    15.37,    12.80,     8.60,    14.07
      178.0,      12.69,    15.35,    12.79,     8.58,    14.03
      179.0,      12.66,    15.33,    12.77,     8.56,    13.99
      180.0,      12.64,    15.31,    12.76,     8.55,    13.95
      181.0,      12.62,    15.29,    12.75,     8.53,    13.91
      182.0,      12.60,    15.27,    12.73,     8.51,    13.87
      183.0,      12.57,    15.25,    12.72,     8.50,    13.83
      184.0,      12.55,    15.23,    12.70,     8.48,    13.79
      185.0,      12.53,    15.21,    12.69,     8.46,    13.75
      186.0,      12.51,    15.19,    12.67,     8.45,    13.71
      187.0,      12.49,    15.17,    12.66,     8.43,    13.68
      188.0,      12.46,    15.16,    12.65,     8.41,    13.64
      189.0,      12.44,    15.14,    12.63,     8.40,    13.60
      190.0,      12.42,    15.12,    12.62,     8.38,    13.56
      191.0,      12.40,    15.10,    12.60,     8.37,    13.52
      192.0,      12.38,    15.08,    12.59,     8.35,    13.49
      193.0,      12.36,    15.06,    12.58,     8.34,    13.45
      194.0,      12.33,    15.04,    12.56,     8.32,    13.41
      195.0,      12.31,    15.02,    12.55,     8.31,    13.37
      196.0,      12.29,    15.01,    12.53,     8.30,    13.34
      197.0,      12.27,    14.99,    12.52,     8.28,    13.30
      198.0,      12.25,    14.97,    12.51,     8.27,    13.26
      199.0,      12.23,    14.95,    12.49,     8.25,    13.22
      200.0,      12.21,    14.93,    12.48,     8.24,    13.19
      201.0,      12.19,    14.92,    12.47,     8.23,    13.15
      202.0,      12.17,    14.90,    12.45,     8.21,    13.11
      203.0,      12.15,    14.88,    12.44,     8.20,    13.08
      204.0,      12.13,    14.86,    12.42,     8.19,    13.04
      205.0,      12.11,    14.84,    12.41,     8.17,    13.00
      206.0,      12.09,    14.83,    12.40,     8.16,    12.97
      207.0,      12.07,    14.81,    12.38,     8.15,    12.93
      208.0,      12.05,    14.79,    12.37,     8.13,    12.90
      209.0,      12.03,    14.77,    12.36,     8.12,    12.86
      210.0,      12.01,    14.75,    12.34,     8.11,    12.82
      211.0,      11.99,    14.74,    12.33,     8.10,    12.79
      212.0,      11.97,    14.72,    12.32,     8.08,    12.75
      213.0,      11.95,    14.70,    12.30,     8.07,    12.72
      214.0,      11.93,    14.68,    12.29,     8.06,    12.68
      215.0,      11.91,    14.67,    12.28,     8.05,    12.65
      216.0,      11.89,    14.65,    12.26,     8.04,    12.61
      217.0,      11.87,    14.63,    12.25,     8.02,    12.58
      218.0,      11.85,    14.61,    12.24,     8.01,    12.54
      219.0,      11.83,    14.60,    12.23,     8.00,    12.51
      220.0,      11.81,    14.58,    12.21,     7.99,    12.47
      221.0,      11.79,    14.56,    12.20,     7.98,    12.44
      222.0,      11.78,    14.54,    12.19,     7.97,    12.40
      223.0,      11.76,    14.53,    12.17,     7.96,    12.37
      224.0,      11.74,    14.51,    12.16,     7.94,    12.34
      225.0,      11.72,    14.49,    12.15,     7.93,    12.30
      226.0,      11.70,    14.48,    12.13,     7.92,    12.27
      227.0,      11.68,    14.46,    12.12,     7.91,    12.23
      228.0,      11.66,    14.44,    12.11,     7.90,    12.20
      229.0,      11.64,    14.42,    12.10,     7.89,    12.17
      230.0,      11.63,    14.41,    12.08,     7.88,    12.13
      231.0,      11.61,    14.39,    12.07,     7.87,    12.10
      232.0,      11.59,    14.37,    12.06,     7.86,    12.07
      233.0,      11.57,    14.36,    12.04,     7.85,    12.03
      234.0,      11.55,    14.34,    12.03,     7.84,    12.00
      235.0,      11.53,    14.32,    12.02,     7.83,    11.97
      236.0,      11.51,    14.31,    12.01,     7.82,    11.93
      237.0,      11.50,    14.29,    11.99,     7.81,    11.90
      238.0,      11.48,    14.27,    11.98,     7.80,    11.87
      239.0,      11.46,    14.25,    11.97,     7.78,    11.83
      240.0,      11.44,    14.24,    11.96,     7.77,    11.80
      241.0,      11.42,    14.22,    11.94,     7.76,    11.77
      242.0,      11.41,    14.20,    11.93,     7.75,    11.74
      243.0,      11.39,    14.19,    11.92,     7.74,    11.70
      244.0,      11.37,    14.17,    11.91,     7.73,    11.67
      245.0,      11.35,    14.15,    11.89,     7.72,    11.64
      246.0,      11.33,    14.14,    11.88,     7.72,    11.61
      247.0,      11.32,    14.12,    11.87,     7.71,    11.57
      248.0,      11.30,    14.10,    11.86,     7.70,    11.54
      249.0,      11.28,    14.09,    11.84,     7.69,    11.51
      250.0,      11.26,    14.07,    11.83,     7.68,    11.48
      251.0,      11.25,    14.05,    11.82,     7.67,    11.45
      252.0,      11.23,    14.04,    11.81,     7.66,    11.42
      253.0,      11.21,    14.02,    11.79,     7.65,    11.38
      254.0,      11.19,    14.01,    11.78,     7.64,    11.35
      255.0,      11.18,    13.99,    11.77,     7.63,    11.32
      256.0,      11.16,    13.97,    11.76,     7.62,    11.29
      257.0,      11.14,    13.96,    11.74,     7.61,    11.26
      258.0,      11.13,    13.94,    11.73,     7.60,    11.23
      259.0,      11.11,    13.92,    11.72,     7.59,    11.20
      260.0,      11.09,    13.91,    11.71,     7.58,    11.17
      261.0,      11.07,    13.89,    11.69,     7.57,    11.14
      262.0,      11.06,    13.87,    11.68,     7.56,    11.11
      263.0,      11.04,    13.86,    11.67,     7.55,    11.07
      264.0,      11.02,    13.84,    11.66,     7.55,    11.04
      265.0,      11.01,    13.83,    11.64,     7.54,    11.01
      266.0,      10.99,    13.81,    11.63,     7.53,    10.98
      267.0,      10.97,    13.79,    11.62,     7.52,    10.95
      268.0,      10.95,    13.78,    11.61,     7.51,    10.92
      269.0,      10.94,    13.76,    11.60,     7.50,    10.89
      270.0,      10.92,    13.75,    11.58,     7.49,    10.86
      271.0,      10.90,    13.73,    11.57,     7.48,    10.83
      272.0,      10.89,    13.71,    11.56,     7.47,    10.80
      273.0,      10.87,    13.70,    11.55,     7.46,    10.77
      274.0,      10.85,    13.68,    11.54,     7.46,    10.74
      275.0,      10.84,    13.67,    11.52,     7.45,    10.71
      276.0,      10.82,    13.65,    11.51,     7.44,    10.68
      277.0,      10.80,    13.63,    11.50,     7.43,    10.65
      278.0,      10.79,    13.62,    11.49,     7.42,    10.63
      279.0,      10.77,    13.60,    11.47,     7.41,    10.60
      280.0,      10.75,    13.59,    11.46,     7.40,    10.57
      281.0,      10.74,    13.57,    11.45,     7.40,    10.54
      282.0,      10.72,    13.55,    11.44,     7.39,    10.51
      283.0,      10.71,    13.54,    11.43,     7.38,    10.48
      284.0,      10.69,    13.52,    11.41,     7.37,    10.45
      285.0,      10.67,    13.51,    11.40,     7.36,    10.42
      286.0,      10.66,    13.49,    11.39,     7.35,    10.39
      287.0,      10.64,    13.47,    11.38,     7.34,    10.36
      288.0,      10.62,    13.46,    11.37,     7.34,    10.34
      289.0,      10.61,    13.44,    11.36,     7.33,    10.31
      290.0,      10.59,    13.43,    11.34,     7.32,    10.28
      291.0,      10.58,    13.41,    11.33,     7.31,    10.25
      292.0,      10.56,    13.40,    11.32,     7.30,    10.22
      293.0,      10.54,    13.38,    11.31,     7.29,    10.19
      294.0,      10.53,    13.37,    11.30,     7.28,    10.17
      295.0,      10.51,    13.35,    11.28,     7.28,    10.14
      296.0,      10.50,    13.33,    11.27,     7.27,    10.11
      297.0,      10.48,    13.32,    11.26,     7.26,    10.08
      298.0,      10.46,    13.30,    11.25,     7.25,    10.06
      299.0,      10.45,    13.29,    11.24,     7.24,    10.03
      300.0,      10.43,    13.27,    11.22,     7.24,    10.00
      301.0,      10.42,    13.26,    11.21,     7.23,     9.97
      302.0,      10.40,    13.24,    11.20,     7.22,     9.94
      303.0,      10.39,    13.23,    11.19,     7.21,     9.92
      304.0,      10.37,    13.21,    11.18,     7.20,     9.89
      305.0,      10.35,    13.19,    11.17,     7.19,     9.86
      306.0,      10.34,    13.18,    11.15,     7.19,     9.84
      307.0,      10.32,    13.16,    11.14,     7.18,     9.81
      308.0,      10.31,    13.15,    11.13,     7.17,     9.78
      309.0,      10.29,    13.13,    11.12,     7.16,     9.75
      310.0,      10.28,    13.12,    11.11,     7.15,     9.73
