Radius (km), Mean (m/s), NE (m/s), SE (m/s), SW (m/s), NW (m/s)
        0.0,       0.00,     0.00,     0.00,     0.00,     0.00
        1.0,       2.69,     2.69,     2.67,     2.71,     2.68
        2.0,       4.22,     4.27,     4.28,     4.05,     4.27
        3.0,       5.49,     5.60,     5.63,     5.12,     5.61
        4.0,       6.62,     6.78,     6.85,     6.04,     6.81
        5.0,       7.66,     7.88,     7.97,     6.87,     7.91
        6.0,       8.62,     8.90,     9.02,     7.64,     8.94
        7.0,       9.54,     9.86,    10.02,     8.35,     9.92
        8.0,      10.41,    10.78,    10.97,     9.02,    10.85
        9.0,      11.24,    11.67,    11.89,     9.66,    11.74
       10.0,      12.04,    12.52,    12.77,    10.26,    12.60
       11.0,      12.81,    13.34,    13.63,    10.85,    13.44
       12.0,      13.57,    14.15,    14.48,    11.41,    14.25
       13.0,      14.34,    14.95,    15.35,    11.98,    15.06
       14.0,      15.14,    15.79,    16.28,    12.59,    15.89
       15.0,      16.00,    16.67,    17.31,    13.24,    16.76
       16.0,      16.93,    17.62,    18.43,    13.95,    17.70
       17.0,      17.92,    18.63,    19.64,    14.72,    18.69
       18.0,      18.95,    19.67,    20.89,    15.53,    19.72
       19.0,      19.98,    20.71,    22.14,    16.32,    20.76
       20.0,      20.96,    21.71,    23.30,    17.08,    21.76
       21.0,      21.84,    22.61,    24.32,    17.74,    22.69
       22.0,      22.57,    23.39,    25.14,    18.27,    23.49
       23.0,      23.13,    24.00,    25.72,    18.66,    24.13
       24.0,      23.50,    24.44,    26.07,    18.88,    24.61
       25.0,      23.69,    24.71,    26.18,    18.95,    24.91
       26.0,      23.72,    24.84,    26.09,    18.89,    25.07
       27.0,      23.62,    24.84,    25.85,    18.72,    25.09
       28.0,      23.44,    24.75,    25.50,    18.47,    25.02
       29.0,      23.20,    24.61,    25.11,    18.19,    24.90
       30.0,      22.95,    24.45,    24.70,    17.90,    24.75
       31.0,      22.70,    24.29,    24.29,    17.61,    24.59
       32.0,      22.46,    24.14,    23.91,    17.33,    24.44
       33.0,      22.23,    24.00,    23.55,    17.07,    24.30
       34.0,      22.01,    23.86,    23.20,    16.83,    24.17
       35.0,      21.81,    23.73,    22.86,    16.59,    24.04
       36.0,      21.60,    23.60,    22.54,    16.36,    23.92
       37.0,      21.41,    23.48,    22.23,    16.14,    23.79
       38.0,      21.22,    23.36,    21.94,    15.93,    23.68
       39.0,      21.04,    23.24,    21.65,    15.72,    23.56
       40.0,      20.87,    23.12,    21.38,    15.53,    23.45
       41.0,      20.70,    23.01,    21.11,    15.34,    23.34
       42.0,      20.54,    22.90,    20.85,    15.15,    23.23
       43.0,      20.38,    22.80,    20.61,    14.98,    23.13
       44.0,      20.23,    22.70,    20.37,    14.81,    23.03
       45.0,      20.08,    22.60,    20.14,    14.65,    22.93
       46.0,      19.94,    22.50,    19.92,    14.49,    22.83
       47.0,      19.80,    22.41,    19.71,    14.34,    22.73
       48.0,      19.66,    22.31,    19.51,    14.19,    22.64
       49.0,      19.53,    22.22,    19.31,    14.05,    22.55
       50.0,      19.41,    22.14,    19.12,    13.91,    22.46
       51.0,      19.29,    22.05,    18.94,    13.78,    22.38
       52.0,      19.17,    21.97,    18.76,    13.66,    22.29
       53.0,      19.05,    21.88,    18.59,    13.54,    22.21
       54.0,      18.94,    21.80,    18.43,    13.42,    22.12
       55.0,      18.84,    21.73,    18.27,    13.31,    22.04
       56.0,      18.73,    21.65,    18.12,    13.20,    21.97
       57.0,      18.63,    21.57,    17.97,    13.09,    21.89
       58.0,      18.53,    21.50,    17.83,    12.99,    21.81
       59.0,      18.44,    21.43,    17.69,    12.89,    21.74
       60.0,      18.35,    21.36,    17.56,    12.80,    21.67
       61.0,      18.26,    21.29,    17.43,    12.71,    21.59
       62.0,      18.17,    21.22,    17.31,    12.62,    21.52
       63.0,      18.09,    21.16,    17.19,    12.54,    21.45
       64.0,      18.00,    21.09,    17.08,    12.45,    21.39
       65.0,      17.92,    21.03,    16.97,    12.38,    21.32
       66.0,      17.84,    20.97,    16.86,    12.30,    21.25
       67.0,      17.77,    20.91,    16.76,    12.23,    21.19
       68.0,      17.70,    20.85,    16.66,    12.15,    21.12
       69.0,      17.62,    20.79,    16.56,    12.08,    21.06
       70.0,      17.55,    20.73,    16.47,    12.02,    21.00
       71.0,      17.49,    20.67,    16.38,    11.95,    20.94
       72.0,      17.42,    20.62,    16.29,    11.89,    20.88
       73.0,      17.35,    20.56,    16.21,    11.83,    20.82
       74.0,      17.29,    20.51,    16.13,    11.77,    20.76
       75.0,      17.23,    20.45,    16.05,    11.72,    20.70
       76.0,      17.17,    20.40,    15.97,    11.66,    20.64
       77.0,      17.11,    20.35,    15.90,    11.61,    20.59
       78.0,      17.05,    20.30,    15.83,    11.56,    20.53
       79.0,      17.00,    20.25,    15.76,    11.51,    20.47
       80.0,      16.94,    20.20,    15.69,    11.46,    20.42
       81.0,      16.89,    20.15,    15.62,    11.41,    20.37
       82.0,      16.84,    20.10,    15.56,    11.37,    20.31
       83.0,      16.78,    20.05,    15.50,    11.32,    20.26
       84.0,      16.73,    20.01,    15.44,    11.28,    20.21
       85.0,      16.69,    19.96,    15.38,    11.24,    20.16
       86.0,      16.64,    19.92,    15.33,    11.20,    20.10
       87.0,      16.59,    19.87,    15.27,    11.16,    20.05
       88.0,      16.54,    19.83,    15.22,    11.12,    20.00
       89.0,      16.50,    19.78,    15.17,    11.09,    19.95
       90.0,      16.45,    19.74,    15.12,    11.05,    19.91
       91.0,      16.41,    19.69,    15.07,    11.02,    19.86
       92.0,      16.37,    19.65,    15.03,    10.98,    19.81
       93.0,      16.32,    19.61,    14.98,    10.95,    19.76
       94.0,      16.28,    19.57,    14.94,    10.92,    19.71
       95.0,      16.24,    19.52,    14.89,    10.89,    19.67
       96.0,      16.20,    19.48,    14.85,    10.86,    19.62
       97.0,      16.16,    19.44,    14.81,    10.83,    19.57
       98.0,      16.12,    19.40,    14.77,    10.80,    19.53
       99.0,      16.09,    19.36,    14.73,    10.77,    19.48
      100.0,      16.05,    19.32,    14.69,    10.74,    19.43
      101.0,      16.01,    19.28,    14.66,    10.72,    19.39
      102.0,      15.98,    19.24,    14.62,    10.69,    19.35
      103.0,      15.94,    19.20,    14.59,    10.67,    19.30
      104.0,      15.90,    19.17,    14.55,    10.64,    19.26
      105.0,      15.87,    19.13,    14.52,    10.62,    19.21
      106.0,      15.83,    19.09,    14.49,    10.59,    19.17
      107.0,      15.80,    19.05,    14.45,    10.57,    19.13
      108.0,      15.77,    19.01,    14.42,    10.55,    19.08
      109.0,      15.73,    18.98,    14.39,    10.53,    19.04
      110.0,      15.70,    18.94,    14.36,    10.51,    19.00
      111.0,      15.67,    18.90,    14.33,    10.48,    18.95
      112.0,      15.64,    18.87,    14.30,    10.46,    18.91
      113.0,      15.61,    18.83,    14.28,    10.44,    18.87
      114.0,      15.57,    18.80,    14.25,    10.42,    18.83
      115.0,      15.54,    18.76,    14.22,    10.40,    18.79
      116.0,      15.51,    18.72,    14.20,    10.39,    18.75
      117.0,      15.48,    18.69,    14.17,    10.37,    18.71
      118.0,      15.45,    18.65,    14.14,    10.35,    18.66
      119.0,      15.42,    18.62,    14.12,    10.33,    18.62
      120.0,      15.39,    18.58,    14.10,    10.31,    18.58
      121.0,      15.36,    18.55,    14.07,    10.30,    18.54
      122.0,      15.34,    18.51,    14.05,    10.28,    18.50
      123.0,      15.31,    18.48,    14.02,    10.26,    18.46
      124.0,      15.28,    18.45,    14.00,    10.24,    18.42
      125.0,      15.25,    18.41,    13.98,    10.23,    18.38
      126.0,      15.22,    18.38,    13.96,    10.21,    18.34
      127.0,      15.20,    18.34,    13.94,    10.20,    18.31
      128.0,      15.17,    18.31,    13.91,    10.18,    18.27
      129.0,      15.14,    18.28,    13.89,    10.17,    18.23
      130.0,      15.11,    18.24,    13.87,    10.15,    18.19
      131.0,      15.09,    18.21,    13.85,    10.14,    18.15
      132.0,      15.06,    18.18,    13.83,    10.12,    18.11
      133.0,      15.03,    18.15,    13.81,    10.11,    18.07
      134.0,      15.01,    18.11,    13.79,    10.09,    18.03
      135.0,      14.98,    18.08,    13.77,    10.08,    18.00
      136.0,      14.96,    18.05,    13.75,    10.06,    17.96
      137.0,      14.93,    18.02,    13.73,    10.05,    17.92
      138.0,      14.90,    17.98,    13.71,    10.04,    17.88
      139.0,      14.88,    17.95,    13.70,    10.02,    17.85
      140.0,      14.85,    17.92,    13.68,    10.01,    17.81
      141.0,      14.83,    17.89,    13.66,    10.00,    17.77
      142.0,      14.80,    17.86,    13.64,     9.98,    17.73
      143.0,      14.78,    17.82,    13.62,     9.97,    17.70
      144.0,      14.75,    17.79,    13.61,     9.96,    17.66
      145.0,      14.73,    17.76,    13.59,     9.95,    17.62
      146.0,      14.70,    17.73,    13.57,     9.93,    17.59
      147.0,      14.68,    17.70,    13.55,     9.92,    17.55
      148.0,      14.66,    17.67,    13.54,     9.91,    17.51
      149.0,      14.63,    17.64,    13.52,     9.90,    17.48
      150.0,      14.61,    17.60,    13.50,     9.88,    17.44
      151.0,      14.58,    17.57,    13.49,     9.87,    17.40
      152.0,      14.56,    17.54,    13.47,     9.86,    17.37
      153.0,      14.54,    17.51,    13.46,     9.85,    17.33
      154.0,      14.51,    17.48,    13.44,     9.84,    17.30
      155.0,      14.49,    17.45,    13.42,     9.82,    17.26
      156.0,      14.47,    17.42,    13.41,     9.81,    17.22
      157.0,      14.44,    17.39,    13.39,     9.80,    17.19
      158.0,      14.42,    17.36,    13.38,     9.79,    17.15
      159.0,      14.40,    17.33,    13.36,     9.78,    17.12
      160.0,      14.37,    17.30,    13.35,     9.77,    17.08
      161.0,      14.35,    17.27,    13.33,     9.76,    17.05
      162.0,      14.33,    17.24,    13.31,     9.75,    17.01
      163.0,      14.30,    17.21,    13.30,     9.73,    16.98
      164.0,      14.28,    17.18,    13.28,     9.72,    16.94
      165.0,      14.26,    17.15,    13.27,     9.71,    16.91
      166.0,      14.24,    17.12,    13.25,     9.70,    16.87
      167.0,      14.21,    17.09,    13.24,     9.69,    16.84
      168.0,      14.19,    17.06,    13.22,     9.68,    16.80
      169.0,      14.17,    17.03,    13.21,     9.67,    16.77
      170.0,      14.15,    17.00,    13.20,     9.66,    16.73
      171.0,      14.13,    16.97,    13.18,     9.65,    16.70
      172.0,      14.10,    16.94,    13.17,     9.64,    16.67
      173.0,      14.08,    16.91,    13.15,     9.63,    16.63
      174.0,      14.06,    16.88,    13.14,     9.62,    16.60
      175.0,      14.04,    16.85,    13.12,     9.61,    16.56
      176.0,      14.02,    16.83,    13.11,     9.60,    16.53
      177.0,      13.99,    16.80,    13.10,     9.59,    16.50
      178.0,      13.97,    16.77,    13.08,     9.57,    16.46
      179.0,      13.95,    16.74,    13.07,     9.56,    16.43
      180.0,      13.93,    16.71,    13.05,     9.55,    16.40
      181.0,      13.91,    16.68,    13.04,     9.54,    16.36
      182.0,      13.88,    16.65,    13.03,     9.53,    16.33
      183.0,      13.86,    16.62,    13.01,     9.52,    16.29
      184.0,      13.84,    16.59,    13.00,     9.51,    16.26
      185.0,      13.82,    16.57,    12.98,     9.50,    16.23
      186.0,      13.80,    16.54,    12.97,     9.49,    16.20
      187.0,      13.78,    16.51,    12.96,     9.48,    16.16
      188.0,      13.76,    16.48,    12.94,     9.47,    16.13
      189.0,      13.74,    16.45,    12.93,     9.46,    16.10
      190.0,      13.71,    16.42,    12.92,     9.45,    16.06
      191.0,      13.69,    16.40,    12.90,     9.44,    16.03
      192.0,      13.67,    16.37,    12.89,     9.43,    16.00
      193.0,      13.65,    16.34,    12.88,     9.42,    15.97
      194.0,      13.63,    16.31,    12.86,     9.41,    15.93
      195.0,      13.61,    16.28,    12.85,     9.40,    15.90
      196.0,      13.59,    16.26,    12.83,     9.39,    15.87
      197.0,      13.57,    16.23,    12.82,     9.39,    15.84
      198.0,      13.55,    16.20,    12.81,     9.38,    15.80
      199.0,      13.53,    16.17,    12.80,     9.37,    15.77
      200.0,      13.51,    16.14,    12.78,     9.36,    15.74
      201.0,      13.48,    16.12,    12.77,     9.35,    15.71
      202.0,      13.46,    16.09,    12.76,     9.34,    15.67
      203.0,      13.44,    16.06,    12.74,     9.33,    15.64
      204.0,      13.42,    16.03,    12.73,     9.32,    15.61
      205.0,      13.40,    16.01,    12.72,     9.31,    15.58
      206.0,      13.38,    15.98,    12.70,     9.30,    15.55
      207.0,      13.36,    15.95,    12.69,     9.29,    15.52
      208.0,      13.34,    15.92,    12.68,     9.28,    15.48
      209.0,      13.32,    15.90,    12.66,     9.27,    15.45
      210.0,      13.30,    15.87,    12.65,     9.26,    15.42
      211.0,      13.28,    15.84,    12.64,     9.25,    15.39
      212.0,      13.26,    15.82,    12.63,     9.24,    15.36
      213.0,      13.24,    15.79,    12.61,     9.23,    15.33
      214.0,      13.22,    15.76,    12.60,     9.22,    15.30
      215.0,      13.20,    15.73,    12.59,     9.21,    15.26
      216.0,      13.18,    15.71,    12.57,     9.20,    15.23
      217.0,      13.16,    15.68,    12.56,     9.19,    15.20
      218.0,      13.14,    15.65,    12.55,     9.19,    15.17
      219.0,      13.12,    15.63,    12.54,     9.18,    15.14
      220.0,      13.10,    15.60,    12.52,     9.17,    15.11
      221.0,      13.08,    15.57,    12.51,     9.16,    15.08
      222.0,      13.06,    15.55,    12.50,     9.15,    15.05
      223.0,      13.04,    15.52,    12.49,     9.14,    15.02
      224.0,      13.02,    15.49,    12.47,     9.13,    14.99
      225.0,      13.00,    15.47,    12.46,     9.12,    14.96
      226.0,      12.98,    15.44,    12.45,     9.11,    14.93
      227.0,      12.96,    15.42,    12.43,     9.10,    14.90
      228.0,      12.94,    15.39,    12.42,     9.09,    14.87
      229.0,      12.92,    15.36,    12.41,     9.08,    14.84
      230.0,      12.90,    15.34,    12.40,     9.07,    14.81
      231.0,      12.88,    15.31,    12.38,     9.07,    14.78
      232.0,      12.86,    15.28,    12.37,     9.06,    14.75
      233.0,      12.84,    15.26,    12.36,     9.05,    14.72
      234.0,      12.83,    15.23,    12.35,     9.04,    14.69
      235.0,      12.81,    15.21,    12.33,     9.03,    14.66
      236.0,      12.79,    15.18,    12.32,     9.02,    14.63
      237.0,      12.77,    15.15,    12.31,     9.01,    14.60
      238.0,      12.75,    15.13,    12.30,     9.00,    14.57
      239.0,      12.73,    15.10,    12.28,     8.99,    14.54
      240.0,      12.71,    15.08,    12.27,     8.98,    14.51
      241.0,      12.69,    15.05,    12.26,     8.97,    14.48
      242.0,      12.67,    15.02,    12.25,     8.97,    14.45
      243.0,      12.65,    15.00,    12.24,     8.96,    14.42
      244.0,      12.63,    14.97,    12.22,     8.95,    14.39
      245.0,      12.61,    14.95,    12.21,     8.94,    14.36
      246.0,      12.60,    14.92,    12.20,     8.93,    14.33
      247.0,      12.58,    14.90,    12.19,     8.92,    14.30
      248.0,      12.56,    14.87,    12.17,     8.91,    14.27
      249.0,      12.54,    14.85,    12.16,     8.90,    14.24
      250.0,      12.52,    14.82,    12.15,     8.89,    14.22
      251.0,      12.50,    14.80,    12.14,     8.88,    14.19
      252.0,      12.48,    14.77,    12.13,     8.88,    14.16
      253.0,      12.46,    14.74,    12.11,     8.87,    14.13
      254.0,      12.44,    14.72,    12.10,     8.86,    14.10
      255.0,      12.43,    14.69,    12.09,     8.85,    14.07
      256.0,      12.41,    14.67,    12.08,     8.84,    14.04
      257.0,      12.39,    14.64,    12.06,     8.83,    14.01
      258.0,      12.37,    14.62,    12.05,     8.82,    13.99
      259.0,      12.35,    14.59,    12.04,     8.81,    13.96
      260.0,      12.33,    14.57,    12.03,     8.80,    13.93
      261.0,      12.31,    14.54,    12.02,     8.80,    13.90
      262.0,      12.30,    14.52,    12.00,     8.79,    13.87
      263.0,      12.28,    14.49,    11.99,     8.78,    13.84
      264.0,      12.26,    14.47,    11.98,     8.77,    13.82
      265.0,      12.24,    14.45,    11.97,     8.76,    13.79
      266.0,      12.22,    14.42,    11.96,     8.75,    13.76
      267.0,      12.20,    14.40,    11.94,     8.74,    13.73
      268.0,      12.19,    14.37,    11.93,     8.73,    13.70
      269.0,      12.17,    14.35,    11.92,     8.73,    13.68
      270.0,      12.15,    14.32,    11.91,     8.72,    13.65
      271.0,      12.13,    14.30,    11.90,     8.71,    13.62
      272.0,      12.11,    14.27,    11.88,     8.70,    13.59
      273.0,      12.09,    14.25,    11.87,     8.69,    13.57
      274.0,      12.08,    14.22,    11.86,     8.68,    13.54
      275.0,      12.06,    14.20,    11.85,     8.67,    13.51
      276.0,      12.04,    14.18,    11.84,     8.66,    13.48
      277.0,      12.02,    14.15,    11.83,     8.66,    13.46
      278.0,      12.00,    14.13,    11.81,     8.65,    13.43
      279.0,      11.99,    14.10,    11.80,     8.64,    13.40
      280.0,      11.97,    14.08,    11.79,     8.63,    13.37
      281.0,      11.95,    14.06,    11.78,     8.62,    13.35
      282.0,      11.93,    14.03,    11.77,     8.61,    13.32
      283.0,      11.91,    14.01,    11.75,     8.60,    13.29
      284.0,      11.90,    13.98,    11.74,     8.60,    13.27
      285.0,      11.88,    13.96,    11.73,     8.59,    13.24
      286.0,      11.86,    13.94,    11.72,     8.58,    13.21
      287.0,      11.84,    13.91,    11.71,     8.57,    13.18
      288.0,      11.83,    13.89,    11.70,     8.56,    13.16
      289.0,      11.81,    13.86,    11.68,     8.55,    13.13
      290.0,      11.79,    13.84,    11.67,     8.54,    13.10
      291.0,      11.77,    13.82,    11.66,     8.54,    13.08
      292.0,      11.76,    13.79,    11.65,     8.53,    13.05
      293.0,      11.74,    13.77,    11.64,     8.52,    13.02
      294.0,      11.72,    13.75,    11.63,     8.51,    13.00
      295.0,      11.70,    13.72,    11.61,     8.50,    12.97
      296.0,      11.69,    13.70,    11.60,     8.49,    12.95
      297.0,      11.67,    13.68,    11.59,     8.48,    12.92
      298.0,      11.65,    13.65,    11.58,     8.48,    12.89
      299.0,      11.63,    13.63,    11.57,     8.47,    12.87
      300.0,      11.62,    13.61,    11.56,     8.46,    12.84
      301.0,      11.60,    13.58,    11.54,     8.45,    12.81
      302.0,      11.58,    13.56,    11.53,     8.44,    12.79
      303.0,      11.56,    13.54,    11.52,     8.43,    12.76
      304.0,      11.55,    13.51,    11.51,     8.43,    12.74
      305.0,      11.53,    13.49,    11.50,     8.42,    12.71
      306.0,      11.51,    13.47,    11.49,     8.41,    12.68
      307.0,      11.49,    13.45,    11.48,     8.40,    12.66
      308.0,      11.48,    13.42,    11.46,     8.39,    12.63
      309.0,      11.46,    13.40,    11.45,     8.38,    12.61
      310.0,      11.44,    13.38,    11.44,     8.37,    12.58
