Radius (km), Mean (m/s), NE (m/s), SE (m/s), SW (m/s), NW (m/s)
        0.0,       0.00,     0.00,     0.00,     0.00,     0.00
        1.0,       1.68,     1.46,     1.59,     1.85,     1.85
        2.0,       3.41,     3.12,     3.29,     3.62,     3.62
        3.0,       5.16,     4.85,     5.03,     5.37,     5.37
        4.0,       6.91,     6.64,     6.81,     7.10,     7.10
        5.0,       8.68,     8.47,     8.61,     8.82,     8.82
        6.0,      10.46,    10.33,    10.43,    10.53,    10.53
        7.0,      12.24,    12.22,    12.26,    12.24,    12.24
        8.0,      14.03,    14.14,    14.11,    13.93,    13.93
        9.0,      15.82,    16.08,    15.97,    15.62,    15.62
       10.0,      17.62,    18.04,    17.84,    17.31,    17.31
       11.0,      19.43,    20.02,    19.72,    18.99,    18.99
       12.0,      21.25,    22.05,    21.63,    20.66,    20.66
       13.0,      23.12,    24.19,    23.59,    22.35,    22.36
       14.0,      25.11,    26.55,    25.67,    24.10,    24.11
       15.0,      27.28,    29.20,    27.95,    25.97,    26.00
       16.0,      29.68,    32.17,    30.47,    28.02,    28.06
       17.0,      32.32,    35.45,    33.22,    30.28,    30.32
       18.0,      35.14,    38.94,    36.15,    32.74,    32.75
       19.0,      38.07,    42.48,    39.16,    35.33,    35.30
       20.0,      40.95,    45.90,    42.13,    37.94,    37.85
       21.0,      43.65,    49.00,    44.89,    40.43,    40.27
       22.0,      46.01,    51.62,    47.33,    42.66,    42.44
       23.0,      47.93,    53.64,    49.33,    44.50,    44.24
       24.0,      49.32,    55.00,    50.82,    45.87,    45.60
       25.0,      50.18,    55.71,    51.79,    46.74,    46.48
       26.0,      50.53,    55.83,    52.29,    47.10,    46.91
       27.0,      50.46,    55.50,    52.38,    47.03,    46.93
       28.0,      50.06,    54.83,    52.17,    46.60,    46.64
       29.0,      49.46,    53.98,    51.78,    45.94,    46.13
       30.0,      48.75,    53.04,    51.28,    45.15,    45.51
       31.0,      48.01,    52.11,    50.77,    44.32,    44.85
       32.0,      47.30,    51.22,    50.27,    43.51,    44.21
       33.0,      46.63,    50.36,    49.79,    42.75,    43.61
       34.0,      45.99,    49.54,    49.34,    42.03,    43.04
       35.0,      45.37,    48.75,    48.89,    41.34,    42.49
       36.0,      44.76,    47.97,    48.45,    40.67,    41.95
       37.0,      44.17,    47.22,    48.02,    40.03,    41.43
       38.0,      43.60,    46.48,    47.59,    39.39,    40.92
       39.0,      43.03,    45.76,    47.16,    38.78,    40.42
       40.0,      42.48,    45.07,    46.75,    38.18,    39.93
       41.0,      41.94,    44.39,    46.33,    37.60,    39.45
       42.0,      41.42,    43.72,    45.93,    37.03,    38.98
       43.0,      40.90,    43.08,    45.53,    36.48,    38.52
       44.0,      40.40,    42.45,    45.13,    35.94,    38.07
       45.0,      39.91,    41.84,    44.74,    35.42,    37.63
       46.0,      39.43,    41.24,    44.35,    34.91,    37.20
       47.0,      38.96,    40.66,    43.97,    34.41,    36.78
       48.0,      38.50,    40.09,    43.59,    33.93,    36.37
       49.0,      38.05,    39.54,    43.22,    33.46,    35.96
       50.0,      37.61,    39.01,    42.85,    33.00,    35.57
       51.0,      37.18,    38.48,    42.49,    32.55,    35.18
       52.0,      36.75,    37.97,    42.13,    32.11,    34.80
       53.0,      36.34,    37.47,    41.78,    31.69,    34.43
       54.0,      35.94,    36.99,    41.43,    31.27,    34.07
       55.0,      35.55,    36.52,    41.09,    30.87,    33.71
       56.0,      35.16,    36.06,    40.75,    30.48,    33.36
       57.0,      34.78,    35.61,    40.41,    30.09,    33.02
       58.0,      34.41,    35.17,    40.08,    29.72,    32.69
       59.0,      34.05,    34.75,    39.75,    29.36,    32.36
       60.0,      33.70,    34.33,    39.43,    29.00,    32.04
       61.0,      33.35,    33.93,    39.11,    28.66,    31.73
       62.0,      33.02,    33.53,    38.79,    28.32,    31.42
       63.0,      32.68,    33.15,    38.48,    27.99,    31.12
       64.0,      32.36,    32.77,    38.17,    27.67,    30.82
       65.0,      32.04,    32.41,    37.87,    27.36,    30.53
       66.0,      31.73,    32.05,    37.57,    27.05,    30.25
       67.0,      31.43,    31.71,    37.27,    26.75,    29.97
       68.0,      31.13,    31.37,    36.98,    26.46,    29.70
       69.0,      30.84,    31.04,    36.69,    26.18,    29.43
       70.0,      30.55,    30.72,    36.41,    25.90,    29.17
       71.0,      30.27,    30.40,    36.13,    25.63,    28.91
       72.0,      29.99,    30.10,    35.85,    25.37,    28.66
       73.0,      29.73,    29.80,    35.57,    25.11,    28.41
       74.0,      29.46,    29.51,    35.30,    24.86,    28.17
       75.0,      29.20,    29.22,    35.03,    24.62,    27.94
       76.0,      28.95,    28.95,    34.77,    24.38,    27.70
       77.0,      28.70,    28.68,    34.51,    24.15,    27.47
       78.0,      28.46,    28.41,    34.25,    23.92,    27.25
       79.0,      28.22,    28.16,    34.00,    23.70,    27.03
       80.0,      27.99,    27.91,    33.74,    23.48,    26.82
       81.0,      27.76,    27.66,    33.50,    23.27,    26.60
       82.0,      27.53,    27.42,    33.25,    23.06,    26.40
       83.0,      27.31,    27.19,    33.01,    22.86,    26.19
       84.0,      27.10,    26.96,    32.77,    22.66,    25.99
       85.0,      26.89,    26.74,    32.53,    22.47,    25.80
       86.0,      26.68,    26.53,    32.30,    22.28,    25.60
       87.0,      26.47,    26.32,    32.07,    22.09,    25.42
       88.0,      26.27,    26.11,    31.84,    21.91,    25.23
       89.0,      26.08,    25.91,    31.62,    21.74,    25.05
       90.0,      25.89,    25.71,    31.39,    21.57,    24.87
       91.0,      25.70,    25.52,    31.17,    21.40,    24.69
       92.0,      25.51,    25.34,    30.96,    21.23,    24.52
       93.0,      25.33,    25.15,    30.74,    21.07,    24.35
       94.0,      25.15,    24.98,    30.53,    20.91,    24.19
       95.0,      24.98,    24.80,    30.32,    20.76,    24.02
       96.0,      24.80,    24.63,    30.11,    20.61,    23.86
       97.0,      24.63,    24.47,    29.91,    20.46,    23.70
       98.0,      24.47,    24.30,    29.71,    20.31,    23.55
       99.0,      24.31,    24.15,    29.51,    20.17,    23.40
      100.0,      24.15,    23.99,    29.31,    20.03,    23.25
      101.0,      23.99,    23.84,    29.12,    19.90,    23.10
      102.0,      23.83,    23.69,    28.93,    19.76,    22.95
      103.0,      23.68,    23.55,    28.74,    19.63,    22.81
      104.0,      23.53,    23.41,    28.55,    19.51,    22.67
      105.0,      23.39,    23.27,    28.36,    19.38,    22.53
      106.0,      23.24,    23.13,    28.18,    19.26,    22.40
      107.0,      23.10,    23.00,    28.00,    19.14,    22.27
      108.0,      22.96,    22.87,    27.82,    19.02,    22.14
      109.0,      22.83,    22.75,    27.64,    18.90,    22.01
      110.0,      22.69,    22.63,    27.47,    18.79,    21.88
      111.0,      22.56,    22.51,    27.30,    18.68,    21.75
      112.0,      22.43,    22.39,    27.13,    18.57,    21.63
      113.0,      22.30,    22.27,    26.96,    18.46,    21.51
      114.0,      22.18,    22.16,    26.79,    18.36,    21.39
      115.0,      22.05,    22.05,    26.63,    18.26,    21.27
      116.0,      21.93,    21.94,    26.47,    18.15,    21.16
      117.0,      21.81,    21.84,    26.30,    18.06,    21.05
      118.0,      21.69,    21.73,    26.15,    17.96,    20.93
      119.0,      21.58,    21.63,    25.99,    17.86,    20.82
      120.0,      21.46,    21.53,    25.83,    17.77,    20.71
      121.0,      21.35,    21.44,    25.68,    17.68,    20.61
      122.0,      21.24,    21.34,    25.53,    17.58,    20.50
      123.0,      21.13,    21.25,    25.38,    17.50,    20.40
      124.0,      21.02,    21.16,    25.23,    17.41,    20.30
      125.0,      20.92,    21.07,    25.09,    17.32,    20.20
      126.0,      20.81,    20.98,    24.94,    17.24,    20.10
      127.0,      20.71,    20.90,    24.80,    17.15,    20.00
      128.0,      20.61,    20.82,    24.66,    17.07,    19.90
      129.0,      20.51,    20.73,    24.52,    16.99,    19.81
      130.0,      20.41,    20.65,    24.38,    16.91,    19.71
      131.0,      20.32,    20.57,    24.24,    16.83,    19.62
      132.0,      20.22,    20.50,    24.11,    16.76,    19.53
      133.0,      20.13,    20.42,    23.97,    16.68,    19.44
      134.0,      20.04,    20.35,    23.84,    16.61,    19.35
      135.0,      19.95,    20.28,    23.71,    16.53,    19.26
      136.0,      19.86,    20.20,    23.58,    16.46,    19.17
      137.0,      19.77,    20.13,    23.46,    16.39,    19.09
      138.0,      19.68,    20.07,    23.33,    16.32,    19.00
      139.0,      19.59,    20.00,    23.21,    16.25,    18.92
      140.0,      19.51,    19.93,    23.08,    16.18,    18.84
      141.0,      19.42,    19.87,    22.96,    16.12,    18.76
      142.0,      19.34,    19.80,    22.84,    16.05,    18.68
      143.0,      19.26,    19.74,    22.72,    15.98,    18.60
      144.0,      19.18,    19.68,    22.60,    15.92,    18.52
      145.0,      19.10,    19.62,    22.49,    15.86,    18.44
      146.0,      19.02,    19.56,    22.37,    15.79,    18.36
      147.0,      18.95,    19.50,    22.26,    15.73,    18.29
      148.0,      18.87,    19.44,    22.15,    15.67,    18.21
      149.0,      18.79,    19.39,    22.03,    15.61,    18.14
      150.0,      18.72,    19.33,    21.92,    15.55,    18.07
      151.0,      18.65,    19.28,    21.82,    15.49,    17.99
      152.0,      18.57,    19.22,    21.71,    15.43,    17.92
      153.0,      18.50,    19.17,    21.60,    15.38,    17.85
      154.0,      18.43,    19.12,    21.50,    15.32,    17.78
      155.0,      18.36,    19.07,    21.39,    15.27,    17.71
      156.0,      18.29,    19.02,    21.29,    15.21,    17.64
      157.0,      18.22,    18.97,    21.19,    15.16,    17.58
      158.0,      18.16,    18.92,    21.09,    15.10,    17.51
      159.0,      18.09,    18.87,    20.99,    15.05,    17.44
      160.0,      18.02,    18.83,    20.89,    15.00,    17.38
      161.0,      17.96,    18.78,    20.79,    14.94,    17.31
      162.0,      17.89,    18.74,    20.69,    14.89,    17.25
      163.0,      17.83,    18.69,    20.60,    14.84,    17.19
      164.0,      17.77,    18.65,    20.50,    14.79,    17.12
      165.0,      17.70,    18.60,    20.41,    14.74,    17.06
      166.0,      17.64,    18.56,    20.32,    14.69,    17.00
      167.0,      17.58,    18.52,    20.23,    14.64,    16.94
      168.0,      17.52,    18.48,    20.14,    14.59,    16.88
      169.0,      17.46,    18.43,    20.05,    14.55,    16.82
      170.0,      17.40,    18.39,    19.96,    14.50,    16.76
      171.0,      17.34,    18.35,    19.87,    14.45,    16.70
      172.0,      17.29,    18.31,    19.78,    14.40,    16.64
      173.0,      17.23,    18.28,    19.70,    14.36,    16.58
      174.0,      17.17,    18.24,    19.61,    14.31,    16.53
      175.0,      17.12,    18.20,    19.53,    14.27,    16.47
      176.0,      17.06,    18.16,    19.44,    14.22,    16.41
      177.0,      17.01,    18.13,    19.36,    14.18,    16.36
      178.0,      16.95,    18.09,    19.28,    14.13,    16.30
      179.0,      16.90,    18.05,    19.20,    14.09,    16.25
      180.0,      16.84,    18.02,    19.12,    14.05,    16.19
      181.0,      16.79,    17.98,    19.04,    14.00,    16.14
      182.0,      16.74,    17.95,    18.96,    13.96,    16.09
      183.0,      16.69,    17.91,    18.88,    13.92,    16.03
      184.0,      16.64,    17.88,    18.81,    13.88,    15.98
      185.0,      16.58,    17.85,    18.73,    13.83,    15.93
      186.0,      16.53,    17.81,    18.66,    13.79,    15.88
      187.0,      16.48,    17.78,    18.58,    13.75,    15.82
      188.0,      16.43,    17.75,    18.51,    13.71,    15.77
      189.0,      16.39,    17.71,    18.43,    13.67,    15.72
      190.0,      16.34,    17.68,    18.36,    13.63,    15.67
      191.0,      16.29,    17.65,    18.29,    13.59,    15.62
      192.0,      16.24,    17.62,    18.22,    13.55,    15.57
      193.0,      16.19,    17.59,    18.15,    13.51,    15.52
      194.0,      16.15,    17.56,    18.08,    13.47,    15.47
      195.0,      16.10,    17.53,    18.01,    13.43,    15.43
      196.0,      16.05,    17.50,    17.94,    13.39,    15.38
      197.0,      16.01,    17.47,    17.88,    13.36,    15.33
      198.0,      15.96,    17.44,    17.81,    13.32,    15.28
      199.0,      15.92,    17.41,    17.74,    13.28,    15.24
      200.0,      15.87,    17.38,    17.68,    13.24,    15.19
      201.0,      15.83,    17.35,    17.61,    13.21,    15.14
      202.0,      15.78,    17.32,    17.55,    13.17,    15.10
      203.0,      15.74,    17.30,    17.48,    13.13,    15.05
      204.0,      15.70,    17.27,    17.42,    13.09,    15.00
      205.0,      15.65,    17.24,    17.36,    13.06,    14.96
      206.0,      15.61,    17.21,    17.30,    13.02,    14.91
      207.0,      15.57,    17.19,    17.24,    12.99,    14.87
      208.0,      15.53,    17.16,    17.17,    12.95,    14.82
      209.0,      15.49,    17.13,    17.11,    12.91,    14.78
      210.0,      15.44,    17.11,    17.05,    12.88,    14.74
      211.0,      15.40,    17.08,    17.00,    12.84,    14.69
      212.0,      15.36,    17.05,    16.94,    12.81,    14.65
      213.0,      15.32,    17.03,    16.88,    12.77,    14.61
      214.0,      15.28,    17.00,    16.82,    12.74,    14.56
      215.0,      15.24,    16.98,    16.76,    12.71,    14.52
      216.0,      15.20,    16.95,    16.71,    12.67,    14.48
      217.0,      15.16,    16.93,    16.65,    12.64,    14.44
      218.0,      15.12,    16.90,    16.60,    12.60,    14.39
      219.0,      15.08,    16.88,    16.54,    12.57,    14.35
      220.0,      15.05,    16.85,    16.49,    12.54,    14.31
      221.0,      15.01,    16.83,    16.43,    12.50,    14.27
      222.0,      14.97,    16.80,    16.38,    12.47,    14.23
      223.0,      14.93,    16.78,    16.33,    12.44,    14.19
      224.0,      14.89,    16.75,    16.27,    12.40,    14.15
      225.0,      14.86,    16.73,    16.22,    12.37,    14.11
      226.0,      14.82,    16.71,    16.17,    12.34,    14.07
      227.0,      14.78,    16.68,    16.12,    12.30,    14.03
      228.0,      14.75,    16.66,    16.07,    12.27,    13.99
      229.0,      14.71,    16.63,    16.02,    12.24,    13.95
      230.0,      14.67,    16.61,    15.97,    12.21,    13.91
      231.0,      14.64,    16.59,    15.92,    12.18,    13.87
      232.0,      14.60,    16.57,    15.87,    12.14,    13.83
      233.0,      14.57,    16.54,    15.82,    12.11,    13.79
      234.0,      14.53,    16.52,    15.77,    12.08,    13.75
      235.0,      14.50,    16.50,    15.72,    12.05,    13.71
      236.0,      14.46,    16.47,    15.68,    12.02,    13.67
      237.0,      14.43,    16.45,    15.63,    11.99,    13.64
      238.0,      14.39,    16.43,    15.58,    11.96,    13.60
      239.0,      14.36,    16.41,    15.54,    11.92,    13.56
      240.0,      14.32,    16.38,    15.49,    11.89,    13.52
      241.0,      14.29,    16.36,    15.44,    11.86,    13.49
      242.0,      14.26,    16.34,    15.40,    11.83,    13.45
      243.0,      14.22,    16.32,    15.35,    11.80,    13.41
      244.0,      14.19,    16.30,    15.31,    11.77,    13.37
      245.0,      14.16,    16.28,    15.27,    11.74,    13.34
      246.0,      14.12,    16.25,    15.22,    11.71,    13.30
      247.0,      14.09,    16.23,    15.18,    11.68,    13.26
      248.0,      14.06,    16.21,    15.14,    11.65,    13.23
      249.0,      14.02,    16.19,    15.09,    11.62,    13.19
      250.0,      13.99,    16.17,    15.05,    11.59,    13.16
      251.0,      13.96,    16.15,    15.01,    11.56,    13.12
      252.0,      13.93,    16.13,    14.97,    11.53,    13.08
      253.0,      13.90,    16.11,    14.93,    11.50,    13.05
      254.0,      13.86,    16.08,    14.88,    11.47,    13.01
      255.0,      13.83,    16.06,    14.84,    11.45,    12.98
      256.0,      13.80,    16.04,    14.80,    11.42,    12.94
      257.0,      13.77,    16.02,    14.76,    11.39,    12.91
      258.0,      13.74,    16.00,    14.72,    11.36,    12.87
      259.0,      13.71,    15.98,    14.68,    11.33,    12.84
      260.0,      13.68,    15.96,    14.64,    11.30,    12.80
      261.0,      13.65,    15.94,    14.60,    11.27,    12.77
      262.0,      13.62,    15.92,    14.57,    11.24,    12.73
      263.0,      13.59,    15.90,    14.53,    11.22,    12.70
      264.0,      13.56,    15.88,    14.49,    11.19,    12.67
      265.0,      13.53,    15.86,    14.45,    11.16,    12.63
      266.0,      13.50,    15.84,    14.41,    11.13,    12.60
      267.0,      13.47,    15.82,    14.38,    11.10,    12.56
      268.0,      13.44,    15.80,    14.34,    11.08,    12.53
      269.0,      13.41,    15.78,    14.30,    11.05,    12.50
      270.0,      13.38,    15.76,    14.27,    11.02,    12.46
      271.0,      13.35,    15.74,    14.23,    10.99,    12.43
      272.0,      13.32,    15.72,    14.19,    10.96,    12.40
      273.0,      13.29,    15.70,    14.16,    10.94,    12.36
      274.0,      13.26,    15.68,    14.12,    10.91,    12.33
      275.0,      13.23,    15.66,    14.09,    10.88,    12.30
      276.0,      13.20,    15.64,    14.05,    10.86,    12.27
      277.0,      13.18,    15.62,    14.02,    10.83,    12.23
      278.0,      13.15,    15.60,    13.98,    10.80,    12.20
      279.0,      13.12,    15.58,    13.95,    10.77,    12.17
      280.0,      13.09,    15.56,    13.91,    10.75,    12.14
      281.0,      13.06,    15.54,    13.88,    10.72,    12.10
      282.0,      13.03,    15.53,    13.85,    10.69,    12.07
      283.0,      13.01,    15.51,    13.81,    10.67,    12.04
      284.0,      12.98,    15.49,    13.78,    10.64,    12.01
      285.0,      12.95,    15.47,    13.75,    10.61,    11.98
      286.0,      12.92,    15.45,    13.71,    10.59,    11.95
      287.0,      12.90,    15.43,    13.68,    10.56,    11.91
      288.0,      12.87,    15.41,    13.65,    10.54,    11.88
      289.0,      12.84,    15.39,    13.62,    10.51,    11.85
      290.0,      12.82,    15.37,    13.58,    10.48,    11.82
      291.0,      12.79,    15.35,    13.55,    10.46,    11.79
      292.0,      12.76,    15.34,    13.52,    10.43,    11.76
      293.0,      12.73,    15.32,    13.49,    10.40,    11.73
      294.0,      12.71,    15.30,    13.46,    10.38,    11.70
      295.0,      12.68,    15.28,    13.43,    10.35,    11.67
      296.0,      12.66,    15.26,    13.40,    10.33,    11.64
      297.0,      12.63,    15.24,    13.37,    10.30,    11.61
      298.0,      12.60,    15.22,    13.34,    10.28,    11.57
      299.0,      12.58,    15.20,    13.31,    10.25,    11.54
      300.0,      12.55,    15.19,    13.28,    10.23,    11.51
      301.0,      12.52,    15.17,    13.25,    10.20,    11.48
      302.0,      12.50,    15.15,    13.22,    10.17,    11.45
      303.0,      12.47,    15.13,    13.19,    10.15,    11.42
      304.0,      12.45,    15.11,    13.16,    10.12,    11.39
      305.0,      12.42,    15.09,    13.13,    10.10,    11.36
      306.0,      12.40,    15.08,    13.10,    10.07,    11.34
      307.0,      12.37,    15.06,    13.07,    10.05,    11.31
      308.0,      12.35,    15.04,    13.04,    10.02,    11.28
      309.0,      12.32,    15.02,    13.01,    10.00,    11.25
      310.0,      12.30,    15.00,    12.98,     9.98,    11.22
