Radius (km), Mean (m/s), NE (m/s), SE (m/s), SW (m/s), NW (m/s)
        0.0,       0.00,     0.00,     0.00,     0.00,     0.00
        1.0,       1.80,     1.71,     1.80,     1.89,     1.80
        2.0,       3.27,     3.17,     3.27,     3.37,     3.27
        3.0,       4.63,     4.54,     4.63,     4.73,     4.63
        4.0,       5.93,     5.85,     5.93,     6.01,     5.93
        5.0,       7.19,     7.13,     7.19,     7.23,     7.19
        6.0,       8.41,     8.38,     8.41,     8.42,     8.41
        7.0,       9.60,     9.61,     9.60,     9.58,     9.60
        8.0,      10.76,    10.81,    10.77,    10.70,    10.77
        9.0,      11.91,    12.00,    11.92,    11.81,    11.92
       10.0,      13.04,    13.18,    13.05,    12.89,    13.05
       11.0,      14.15,    14.34,    14.16,    13.96,    14.16
       12.0,      15.25,    15.49,    15.26,    15.01,    15.26
       13.0,      16.34,    16.62,    16.35,    16.04,    16.35
       14.0,      17.41,    17.75,    17.42,    17.06,    17.42
       15.0,      18.48,    18.87,    18.49,    18.07,    18.49
       16.0,      19.53,    19.98,    19.54,    19.07,    19.54
       17.0,      20.58,    21.08,    20.59,    20.06,    20.59
       18.0,      21.62,    22.18,    21.62,    21.04,    21.62
       19.0,      22.64,    23.27,    22.65,    22.01,    22.65
       20.0,      23.67,    24.35,    23.67,    22.97,    23.67
       21.0,      24.68,    25.42,    24.69,    23.92,    24.69
       22.0,      25.69,    26.50,    25.70,    24.87,    25.70
       23.0,      26.71,    27.58,    26.73,    25.82,    26.73
       24.0,      27.78,    28.69,    27.81,    26.81,    27.81
       25.0,      28.93,    29.87,    28.97,    27.87,    28.99
       26.0,      30.17,    31.14,    30.22,    29.04,    30.29
       27.0,      31.53,    32.50,    31.57,    30.33,    31.71
       28.0,      32.96,    33.93,    32.98,    31.71,    33.23
       29.0,      34.43,    35.40,    34.40,    33.14,    34.78
       30.0,      35.86,    36.84,    35.78,    34.55,    36.28
       31.0,      37.18,    38.20,    37.04,    35.85,    37.65
       32.0,      38.33,    39.39,    38.14,    36.96,    38.80
       33.0,      39.23,    40.39,    39.01,    37.83,    39.68
       34.0,      39.86,    41.15,    39.65,    38.40,    40.25
       35.0,      40.22,    41.66,    40.04,    38.67,    40.51
       36.0,      40.32,    41.94,    40.22,    38.65,    40.48
       37.0,      40.22,    42.03,    40.21,    38.40,    40.22
       38.0,      39.95,    41.97,    40.08,    37.97,    39.80
       39.0,      39.60,    41.82,    39.87,    37.43,    39.27
       40.0,      39.20,    41.62,    39.62,    36.84,    38.72
       41.0,      38.80,    41.41,    39.38,    36.26,    38.16
       42.0,      38.42,    41.21,    39.14,    35.70,    37.64
       43.0,      38.07,    41.02,    38.92,    35.18,    37.15
       44.0,      37.74,    40.85,    38.71,    34.69,    36.69
       45.0,      37.42,    40.68,    38.50,    34.23,    36.25
       46.0,      37.10,    40.52,    38.29,    33.78,    35.83
       47.0,      36.80,    40.35,    38.08,    33.35,    35.42
       48.0,      36.51,    40.19,    37.88,    32.93,    35.02
       49.0,      36.22,    40.02,    37.68,    32.53,    34.64
       50.0,      35.93,    39.86,    37.47,    32.14,    34.26
       51.0,      35.66,    39.70,    37.27,    31.76,    33.90
       52.0,      35.39,    39.54,    37.07,    31.39,    33.55
       53.0,      35.13,    39.38,    36.88,    31.04,    33.22
       54.0,      34.87,    39.22,    36.68,    30.70,    32.89
       55.0,      34.62,    39.06,    36.49,    30.37,    32.57
       56.0,      34.37,    38.90,    36.29,    30.04,    32.27
       57.0,      34.13,    38.74,    36.10,    29.73,    31.97
       58.0,      33.90,    38.58,    35.91,    29.43,    31.68
       59.0,      33.67,    38.42,    35.72,    29.14,    31.40
       60.0,      33.45,    38.27,    35.53,    28.85,    31.13
       61.0,      33.23,    38.11,    35.34,    28.58,    30.87
       62.0,      33.01,    37.96,    35.16,    28.31,    30.61
       63.0,      32.80,    37.80,    34.97,    28.05,    30.36
       64.0,      32.59,    37.65,    34.79,    27.80,    30.12
       65.0,      32.39,    37.49,    34.61,    27.56,    29.89
       66.0,      32.19,    37.34,    34.43,    27.32,    29.66
       67.0,      31.99,    37.19,    34.25,    27.09,    29.44
       68.0,      31.80,    37.04,    34.07,    26.87,    29.23
       69.0,      31.61,    36.89,    33.89,    26.65,    29.02
       70.0,      31.43,    36.74,    33.72,    26.44,    28.82
       71.0,      31.24,    36.59,    33.55,    26.23,    28.62
       72.0,      31.07,    36.44,    33.37,    26.03,    28.43
       73.0,      30.89,    36.29,    33.20,    25.83,    28.24
       74.0,      30.72,    36.14,    33.03,    25.65,    28.06
       75.0,      30.55,    35.99,    32.86,    25.46,    27.88
       76.0,      30.38,    35.85,    32.69,    25.28,    27.71
       77.0,      30.22,    35.70,    32.52,    25.10,    27.54
       78.0,      30.06,    35.55,    32.36,    24.93,    27.37
       79.0,      29.90,    35.41,    32.19,    24.77,    27.21
       80.0,      29.74,    35.27,    32.03,    24.60,    27.06
       81.0,      29.58,    35.12,    31.87,    24.45,    26.90
       82.0,      29.43,    34.98,    31.71,    24.29,    26.75
       83.0,      29.28,    34.84,    31.55,    24.14,    26.61
       84.0,      29.13,    34.69,    31.39,    23.99,    26.46
       85.0,      28.99,    34.55,    31.23,    23.85,    26.32
       86.0,      28.85,    34.41,    31.07,    23.71,    26.19
       87.0,      28.70,    34.27,    30.92,    23.57,    26.06
       88.0,      28.56,    34.13,    30.76,    23.43,    25.92
       89.0,      28.43,    33.99,    30.61,    23.30,    25.80
       90.0,      28.29,    33.85,    30.46,    23.17,    25.67
       91.0,      28.15,    33.72,    30.30,    23.05,    25.55
       92.0,      28.02,    33.58,    30.15,    22.92,    25.43
       93.0,      27.89,    33.44,    30.00,    22.80,    25.31
       94.0,      27.76,    33.31,    29.86,    22.68,    25.20
       95.0,      27.63,    33.17,    29.71,    22.57,    25.08
       96.0,      27.51,    33.04,    29.56,    22.45,    24.97
       97.0,      27.38,    32.90,    29.42,    22.34,    24.86
       98.0,      27.26,    32.77,    29.27,    22.23,    24.75
       99.0,      27.13,    32.63,    29.13,    22.12,    24.65
      100.0,      27.01,    32.50,    28.99,    22.02,    24.55
      101.0,      26.89,    32.37,    28.85,    21.91,    24.44
      102.0,      26.77,    32.24,    28.70,    21.81,    24.34
      103.0,      26.66,    32.11,    28.57,    21.71,    24.25
      104.0,      26.54,    31.97,    28.43,    21.61,    24.15
      105.0,      26.42,    31.84,    28.29,    21.51,    24.05
      106.0,      26.31,    31.71,    28.15,    21.42,    23.96
      107.0,      26.20,    31.59,    28.02,    21.32,    23.87
      108.0,      26.09,    31.46,    27.88,    21.23,    23.78
      109.0,      25.98,    31.33,    27.75,    21.14,    23.69
      110.0,      25.87,    31.20,    27.62,    21.05,    23.60
      111.0,      25.76,    31.07,    27.48,    20.96,    23.51
      112.0,      25.65,    30.95,    27.35,    20.87,    23.43
      113.0,      25.54,    30.82,    27.22,    20.79,    23.34
      114.0,      25.44,    30.70,    27.09,    20.70,    23.26
      115.0,      25.33,    30.57,    26.96,    20.62,    23.17
      116.0,      25.23,    30.45,    26.84,    20.53,    23.09
      117.0,      25.12,    30.32,    26.71,    20.45,    23.01
      118.0,      25.02,    30.20,    26.58,    20.37,    22.93
      119.0,      24.92,    30.08,    26.46,    20.29,    22.85
      120.0,      24.82,    29.95,    26.33,    20.21,    22.78
      121.0,      24.72,    29.83,    26.21,    20.13,    22.70
      122.0,      24.62,    29.71,    26.09,    20.06,    22.62
      123.0,      24.52,    29.59,    25.97,    19.98,    22.55
      124.0,      24.42,    29.47,    25.85,    19.91,    22.47
      125.0,      24.33,    29.35,    25.73,    19.83,    22.40
      126.0,      24.23,    29.23,    25.61,    19.76,    22.33
      127.0,      24.13,    29.11,    25.49,    19.69,    22.25
      128.0,      24.04,    28.99,    25.37,    19.61,    22.18
      129.0,      23.95,    28.87,    25.25,    19.54,    22.11
      130.0,      23.85,    28.76,    25.14,    19.47,    22.04
      131.0,      23.76,    28.64,    25.02,    19.40,    21.97
      132.0,      23.67,    28.52,    24.91,    19.33,    21.90
      133.0,      23.57,    28.41,    24.79,    19.26,    21.83
      134.0,      23.48,    28.29,    24.68,    19.20,    21.77
      135.0,      23.39,    28.18,    24.57,    19.13,    21.70
      136.0,      23.30,    28.06,    24.46,    19.06,    21.63
      137.0,      23.21,    27.95,    24.35,    19.00,    21.57
      138.0,      23.12,    27.83,    24.24,    18.93,    21.50
      139.0,      23.04,    27.72,    24.13,    18.86,    21.44
      140.0,      22.95,    27.61,    24.02,    18.80,    21.37
      141.0,      22.86,    27.49,    23.91,    18.74,    21.31
      142.0,      22.77,    27.38,    23.80,    18.67,    21.24
      143.0,      22.69,    27.27,    23.70,    18.61,    21.18
      144.0,      22.60,    27.16,    23.59,    18.55,    21.12
      145.0,      22.52,    27.05,    23.48,    18.48,    21.05
      146.0,      22.43,    26.94,    23.38,    18.42,    20.99
      147.0,      22.35,    26.83,    23.28,    18.36,    20.93
      148.0,      22.27,    26.72,    23.17,    18.30,    20.87
      149.0,      22.18,    26.61,    23.07,    18.24,    20.81
      150.0,      22.10,    26.50,    22.97,    18.18,    20.75
      151.0,      22.02,    26.39,    22.87,    18.12,    20.69
      152.0,      21.94,    26.29,    22.77,    18.06,    20.63
      153.0,      21.85,    26.18,    22.67,    18.00,    20.57
      154.0,      21.77,    26.07,    22.57,    17.94,    20.51
      155.0,      21.69,    25.97,    22.47,    17.88,    20.45
      156.0,      21.61,    25.86,    22.37,    17.83,    20.39
      157.0,      21.53,    25.76,    22.28,    17.77,    20.33
      158.0,      21.46,    25.65,    22.18,    17.71,    20.28
      159.0,      21.38,    25.55,    22.08,    17.65,    20.22
      160.0,      21.30,    25.44,    21.99,    17.60,    20.16
      161.0,      21.22,    25.34,    21.89,    17.54,    20.11
      162.0,      21.14,    25.24,    21.80,    17.49,    20.05
      163.0,      21.07,    25.13,    21.71,    17.43,    19.99
      164.0,      20.99,    25.03,    21.61,    17.37,    19.94
      165.0,      20.91,    24.93,    21.52,    17.32,    19.88
      166.0,      20.84,    24.83,    21.43,    17.26,    19.82
      167.0,      20.76,    24.73,    21.34,    17.21,    19.77
      168.0,      20.69,    24.63,    21.25,    17.16,    19.71
      169.0,      20.61,    24.53,    21.16,    17.10,    19.66
      170.0,      20.54,    24.43,    21.07,    17.05,    19.60
      171.0,      20.46,    24.33,    20.98,    16.99,    19.55
      172.0,      20.39,    24.23,    20.89,    16.94,    19.50
      173.0,      20.32,    24.13,    20.81,    16.89,    19.44
      174.0,      20.24,    24.03,    20.72,    16.84,    19.39
      175.0,      20.17,    23.93,    20.63,    16.78,    19.34
      176.0,      20.10,    23.84,    20.55,    16.73,    19.28
      177.0,      20.03,    23.74,    20.46,    16.68,    19.23
      178.0,      19.96,    23.64,    20.38,    16.63,    19.18
      179.0,      19.88,    23.55,    20.29,    16.57,    19.12
      180.0,      19.81,    23.45,    20.21,    16.52,    19.07
      181.0,      19.74,    23.36,    20.13,    16.47,    19.02
      182.0,      19.67,    23.26,    20.04,    16.42,    18.97
      183.0,      19.60,    23.17,    19.96,    16.37,    18.92
      184.0,      19.53,    23.07,    19.88,    16.32,    18.86
      185.0,      19.46,    22.98,    19.80,    16.27,    18.81
      186.0,      19.40,    22.88,    19.72,    16.22,    18.76
      187.0,      19.33,    22.79,    19.64,    16.17,    18.71
      188.0,      19.26,    22.70,    19.56,    16.12,    18.66
      189.0,      19.19,    22.61,    19.48,    16.07,    18.61
      190.0,      19.12,    22.51,    19.40,    16.02,    18.56
      191.0,      19.06,    22.42,    19.32,    15.97,    18.51
      192.0,      18.99,    22.33,    19.25,    15.92,    18.46
      193.0,      18.92,    22.24,    19.17,    15.87,    18.41
      194.0,      18.86,    22.15,    19.09,    15.83,    18.36
      195.0,      18.79,    22.06,    19.02,    15.78,    18.31
      196.0,      18.72,    21.97,    18.94,    15.73,    18.26
      197.0,      18.66,    21.88,    18.87,    15.68,    18.21
      198.0,      18.59,    21.79,    18.79,    15.63,    18.16
      199.0,      18.53,    21.70,    18.72,    15.59,    18.11
      200.0,      18.46,    21.61,    18.64,    15.54,    18.06
      201.0,      18.40,    21.53,    18.57,    15.49,    18.01
      202.0,      18.34,    21.44,    18.50,    15.44,    17.96
      203.0,      18.27,    21.35,    18.43,    15.40,    17.92
      204.0,      18.21,    21.26,    18.35,    15.35,    17.87
      205.0,      18.15,    21.18,    18.28,    15.30,    17.82
      206.0,      18.08,    21.09,    18.21,    15.26,    17.77
      207.0,      18.02,    21.01,    18.14,    15.21,    17.72
      208.0,      17.96,    20.92,    18.07,    15.16,    17.68
      209.0,      17.90,    20.84,    18.00,    15.12,    17.63
      210.0,      17.83,    20.75,    17.93,    15.07,    17.58
      211.0,      17.77,    20.67,    17.86,    15.03,    17.53
      212.0,      17.71,    20.58,    17.79,    14.98,    17.49
      213.0,      17.65,    20.50,    17.73,    14.93,    17.44
      214.0,      17.59,    20.42,    17.66,    14.89,    17.39
      215.0,      17.53,    20.33,    17.59,    14.84,    17.35
      216.0,      17.47,    20.25,    17.53,    14.80,    17.30
      217.0,      17.41,    20.17,    17.46,    14.75,    17.25
      218.0,      17.35,    20.08,    17.39,    14.71,    17.21
      219.0,      17.29,    20.00,    17.33,    14.67,    17.16
      220.0,      17.23,    19.92,    17.26,    14.62,    17.12
      221.0,      17.17,    19.84,    17.20,    14.58,    17.07
      222.0,      17.11,    19.76,    17.13,    14.53,    17.02
      223.0,      17.05,    19.68,    17.07,    14.49,    16.98
      224.0,      17.00,    19.60,    17.01,    14.44,    16.93
      225.0,      16.94,    19.52,    16.94,    14.40,    16.89
      226.0,      16.88,    19.44,    16.88,    14.36,    16.84
      227.0,      16.82,    19.36,    16.82,    14.31,    16.80
      228.0,      16.77,    19.28,    16.76,    14.27,    16.75
      229.0,      16.71,    19.20,    16.69,    14.23,    16.71
      230.0,      16.65,    19.13,    16.63,    14.19,    16.66
      231.0,      16.60,    19.05,    16.57,    14.14,    16.62
      232.0,      16.54,    18.97,    16.51,    14.10,    16.57
      233.0,      16.48,    18.89,    16.45,    14.06,    16.53
      234.0,      16.43,    18.82,    16.39,    14.01,    16.49
      235.0,      16.37,    18.74,    16.33,    13.97,    16.44
      236.0,      16.32,    18.66,    16.27,    13.93,    16.40
      237.0,      16.26,    18.59,    16.21,    13.89,    16.35
      238.0,      16.21,    18.51,    16.16,    13.85,    16.31
      239.0,      16.15,    18.44,    16.10,    13.80,    16.27
      240.0,      16.10,    18.36,    16.04,    13.76,    16.22
      241.0,      16.04,    18.29,    15.98,    13.72,    16.18
      242.0,      15.99,    18.21,    15.93,    13.68,    16.14
      243.0,      15.94,    18.14,    15.87,    13.64,    16.09
      244.0,      15.88,    18.07,    15.81,    13.60,    16.05
      245.0,      15.83,    17.99,    15.76,    13.56,    16.01
      246.0,      15.78,    17.92,    15.70,    13.52,    15.97
      247.0,      15.72,    17.85,    15.65,    13.48,    15.92
      248.0,      15.67,    17.77,    15.59,    13.43,    15.88
      249.0,      15.62,    17.70,    15.54,    13.39,    15.84
      250.0,      15.57,    17.63,    15.48,    13.35,    15.80
      251.0,      15.51,    17.56,    15.43,    13.31,    15.75
      252.0,      15.46,    17.49,    15.37,    13.27,    15.71
      253.0,      15.41,    17.42,    15.32,    13.23,    15.67
      254.0,      15.36,    17.34,    15.27,    13.19,    15.63
      255.0,      15.31,    17.27,    15.21,    13.15,    15.59
      256.0,      15.26,    17.20,    15.16,    13.11,    15.55
      257.0,      15.21,    17.13,    15.11,    13.08,    15.50
      258.0,      15.16,    17.06,    15.06,    13.04,    15.46
      259.0,      15.10,    16.99,    15.01,    13.00,    15.42
      260.0,      15.05,    16.93,    14.95,    12.96,    15.38
      261.0,      15.00,    16.86,    14.90,    12.92,    15.34
      262.0,      14.95,    16.79,    14.85,    12.88,    15.30
      263.0,      14.91,    16.72,    14.80,    12.84,    15.26
      264.0,      14.86,    16.65,    14.75,    12.80,    15.22
      265.0,      14.81,    16.58,    14.70,    12.76,    15.18
      266.0,      14.76,    16.52,    14.65,    12.73,    15.14
      267.0,      14.71,    16.45,    14.60,    12.69,    15.10
      268.0,      14.66,    16.38,    14.55,    12.65,    15.06
      269.0,      14.61,    16.32,    14.51,    12.61,    15.02
      270.0,      14.56,    16.25,    14.46,    12.57,    14.98
      271.0,      14.52,    16.18,    14.41,    12.54,    14.94
      272.0,      14.47,    16.12,    14.36,    12.50,    14.90
      273.0,      14.42,    16.05,    14.31,    12.46,    14.86
      274.0,      14.37,    15.99,    14.27,    12.42,    14.82
      275.0,      14.33,    15.92,    14.22,    12.39,    14.78
      276.0,      14.28,    15.86,    14.17,    12.35,    14.74
      277.0,      14.23,    15.79,    14.13,    12.31,    14.70
      278.0,      14.19,    15.73,    14.08,    12.27,    14.66
      279.0,      14.14,    15.66,    14.03,    12.24,    14.62
      280.0,      14.09,    15.60,    13.99,    12.20,    14.58
      281.0,      14.05,    15.54,    13.94,    12.16,    14.54
      282.0,      14.00,    15.47,    13.90,    12.13,    14.50
      283.0,      13.95,    15.41,    13.85,    12.09,    14.47
      284.0,      13.91,    15.35,    13.81,    12.05,    14.43
      285.0,      13.86,    15.29,    13.76,    12.02,    14.39
      286.0,      13.82,    15.22,    13.72,    11.98,    14.35
      287.0,      13.77,    15.16,    13.67,    11.95,    14.31
      288.0,      13.73,    15.10,    13.63,    11.91,    14.27
      289.0,      13.68,    15.04,    13.59,    11.87,    14.24
      290.0,      13.64,    14.98,    13.54,    11.84,    14.20
      291.0,      13.60,    14.92,    13.50,    11.80,    14.16
      292.0,      13.55,    14.86,    13.46,    11.77,    14.12
      293.0,      13.51,    14.80,    13.42,    11.73,    14.09
      294.0,      13.46,    14.74,    13.37,    11.70,    14.05
      295.0,      13.42,    14.68,    13.33,    11.66,    14.01
      296.0,      13.38,    14.62,    13.29,    11.63,    13.97
      297.0,      13.33,    14.56,    13.25,    11.59,    13.94
      298.0,      13.29,    14.50,    13.21,    11.56,    13.90
      299.0,      13.25,    14.44,    13.16,    11.52,    13.86
      300.0,      13.20,    14.38,    13.12,    11.49,    13.82
      301.0,      13.16,    14.32,    13.08,    11.45,    13.79
      302.0,      13.12,    14.26,    13.04,    11.42,    13.75
      303.0,      13.08,    14.21,    13.00,    11.38,    13.71
      304.0,      13.03,    14.15,    12.96,    11.35,    13.68
      305.0,      12.99,    14.09,    12.92,    11.32,    13.64
      306.0,      12.95,    14.03,    12.88,    11.28,    13.61
      307.0,      12.91,    13.98,    12.84,    11.25,    13.57
      308.0,      12.87,    13.92,    12.80,    11.21,    13.53
      309.0,      12.83,    13.86,    12.76,    11.18,    13.50
      310.0,      12.79,    13.81,    12.73,    11.15,    13.46
