Radius (km), Mean (m/s), NE (m/s), SE (m/s), SW (m/s), NW (m/s)
        0.0,       0.00,     0.00,     0.00,     0.00,     0.00
        1.0,       2.90,     2.52,     3.11,     3.15,     2.82
        2.0,       5.47,     5.14,     5.66,     5.66,     5.42
        3.0,       8.01,     7.92,     8.11,     8.02,     7.99
        4.0,      10.67,    10.98,    10.64,    10.39,    10.67
        5.0,      13.56,    14.43,    13.35,    12.88,    13.56
        6.0,      16.73,    18.33,    16.30,    15.57,    16.70
        7.0,      20.18,    22.65,    19.47,    18.49,    20.12
        8.0,      23.85,    27.27,    22.80,    21.57,    23.75
        9.0,      27.58,    31.99,    26.15,    24.73,    27.47
       10.0,      31.22,    36.57,    29.35,    27.82,    31.12
       11.0,      34.55,    40.76,    32.25,    30.68,    34.52
       12.0,      37.43,    44.34,    34.70,    33.17,    37.51
       13.0,      39.72,    47.14,    36.60,    35.16,    39.96
       14.0,      41.34,    49.08,    37.90,    36.59,    41.79
       15.0,      42.30,    50.16,    38.60,    37.44,    42.99
       16.0,      42.65,    50.47,    38.78,    37.76,    43.61
       17.0,      42.51,    50.16,    38.53,    37.62,    43.73
       18.0,      42.00,    49.39,    37.98,    37.14,    43.48
       19.0,      41.25,    48.35,    37.25,    36.44,    42.98
       20.0,      40.40,    47.19,    36.44,    35.63,    42.36
       21.0,      39.53,    46.02,    35.62,    34.79,    41.71
       22.0,      38.69,    44.90,    34.84,    33.98,    41.06
       23.0,      37.89,    43.83,    34.10,    33.20,    40.44
       24.0,      37.13,    42.82,    33.39,    32.47,    39.84
       25.0,      36.40,    41.84,    32.72,    31.77,    39.27
       26.0,      35.69,    40.91,    32.07,    31.09,    38.70
       27.0,      35.01,    40.01,    31.44,    30.44,    38.14
       28.0,      34.35,    39.14,    30.84,    29.80,    37.60
       29.0,      33.71,    38.31,    30.26,    29.19,    37.07
       30.0,      33.09,    37.50,    29.70,    28.61,    36.55
       31.0,      32.49,    36.73,    29.16,    28.04,    36.04
       32.0,      31.92,    35.99,    28.65,    27.49,    35.54
       33.0,      31.36,    35.27,    28.15,    26.96,    35.05
       34.0,      30.82,    34.58,    27.67,    26.45,    34.57
       35.0,      30.30,    33.92,    27.21,    25.95,    34.10
       36.0,      29.79,    33.28,    26.77,    25.48,    33.65
       37.0,      29.31,    32.67,    26.35,    25.02,    33.20
       38.0,      28.84,    32.08,    25.94,    24.57,    32.76
       39.0,      28.38,    31.51,    25.54,    24.14,    32.33
       40.0,      27.94,    30.96,    25.17,    23.73,    31.90
       41.0,      27.51,    30.43,    24.80,    23.33,    31.49
       42.0,      27.10,    29.92,    24.45,    22.94,    31.09
       43.0,      26.70,    29.44,    24.11,    22.56,    30.69
       44.0,      26.31,    28.96,    23.79,    22.20,    30.30
       45.0,      25.94,    28.51,    23.47,    21.86,    29.92
       46.0,      25.58,    28.08,    23.17,    21.52,    29.55
       47.0,      25.23,    27.66,    22.88,    21.19,    29.19
       48.0,      24.89,    27.25,    22.60,    20.88,    28.83
       49.0,      24.56,    26.86,    22.33,    20.58,    28.48
       50.0,      24.24,    26.49,    22.07,    20.28,    28.14
       51.0,      23.94,    26.12,    21.82,    20.00,    27.80
       52.0,      23.64,    25.78,    21.58,    19.72,    27.48
       53.0,      23.35,    25.44,    21.35,    19.46,    27.15
       54.0,      23.07,    25.12,    21.13,    19.20,    26.84
       55.0,      22.80,    24.80,    20.91,    18.96,    26.53
       56.0,      22.54,    24.50,    20.71,    18.72,    26.23
       57.0,      22.29,    24.22,    20.51,    18.49,    25.93
       58.0,      22.04,    23.94,    20.31,    18.26,    25.64
       59.0,      21.80,    23.67,    20.13,    18.05,    25.36
       60.0,      21.57,    23.41,    19.95,    17.84,    25.08
       61.0,      21.35,    23.16,    19.78,    17.64,    24.81
       62.0,      21.13,    22.92,    19.61,    17.44,    24.54
       63.0,      20.92,    22.69,    19.45,    17.25,    24.28
       64.0,      20.71,    22.46,    19.30,    17.07,    24.03
       65.0,      20.52,    22.25,    19.15,    16.89,    23.78
       66.0,      20.32,    22.04,    19.00,    16.72,    23.53
       67.0,      20.14,    21.84,    18.86,    16.56,    23.29
       68.0,      19.96,    21.64,    18.73,    16.40,    23.05
       69.0,      19.78,    21.46,    18.60,    16.24,    22.82
       70.0,      19.61,    21.28,    18.47,    16.09,    22.60
       71.0,      19.44,    21.10,    18.35,    15.95,    22.38
       72.0,      19.28,    20.93,    18.24,    15.81,    22.16
       73.0,      19.13,    20.77,    18.12,    15.67,    21.95
       74.0,      18.98,    20.61,    18.02,    15.54,    21.74
       75.0,      18.83,    20.46,    17.91,    15.41,    21.53
       76.0,      18.69,    20.32,    17.81,    15.29,    21.33
       77.0,      18.55,    20.18,    17.71,    15.17,    21.14
       78.0,      18.41,    20.04,    17.62,    15.05,    20.94
       79.0,      18.28,    19.91,    17.52,    14.94,    20.76
       80.0,      18.16,    19.78,    17.44,    14.83,    20.57
       81.0,      18.03,    19.66,    17.35,    14.73,    20.39
       82.0,      17.91,    19.54,    17.27,    14.63,    20.21
       83.0,      17.79,    19.42,    17.19,    14.53,    20.04
       84.0,      17.68,    19.31,    17.11,    14.43,    19.87
       85.0,      17.57,    19.21,    17.03,    14.34,    19.70
       86.0,      17.46,    19.10,    16.96,    14.25,    19.54
       87.0,      17.36,    19.00,    16.89,    14.16,    19.38
       88.0,      17.26,    18.90,    16.82,    14.08,    19.22
       89.0,      17.16,    18.81,    16.75,    13.99,    19.07
       90.0,      17.06,    18.72,    16.69,    13.91,    18.92
       91.0,      16.97,    18.63,    16.63,    13.84,    18.77
       92.0,      16.87,    18.54,    16.56,    13.76,    18.62
       93.0,      16.78,    18.46,    16.51,    13.69,    18.48
       94.0,      16.70,    18.38,    16.45,    13.62,    18.34
       95.0,      16.61,    18.30,    16.39,    13.55,    18.21
       96.0,      16.53,    18.23,    16.34,    13.48,    18.07
       97.0,      16.45,    18.15,    16.29,    13.42,    17.94
       98.0,      16.37,    18.08,    16.24,    13.35,    17.81
       99.0,      16.29,    18.01,    16.19,    13.29,    17.69
      100.0,      16.22,    17.95,    16.14,    13.23,    17.56
      101.0,      16.15,    17.88,    16.09,    13.18,    17.44
      102.0,      16.08,    17.82,    16.04,    13.12,    17.32
      103.0,      16.01,    17.76,    16.00,    13.06,    17.20
      104.0,      15.94,    17.70,    15.96,    13.01,    17.09
      105.0,      15.87,    17.64,    15.91,    12.96,    16.98
      106.0,      15.81,    17.58,    15.87,    12.91,    16.87
      107.0,      15.75,    17.53,    15.83,    12.86,    16.76
      108.0,      15.68,    17.48,    15.79,    12.81,    16.65
      109.0,      15.62,    17.42,    15.76,    12.76,    16.55
      110.0,      15.56,    17.37,    15.72,    12.72,    16.45
      111.0,      15.51,    17.32,    15.68,    12.67,    16.35
      112.0,      15.45,    17.28,    15.65,    12.63,    16.25
      113.0,      15.40,    17.23,    15.61,    12.59,    16.15
      114.0,      15.34,    17.18,    15.58,    12.55,    16.06
      115.0,      15.29,    17.14,    15.55,    12.51,    15.96
      116.0,      15.24,    17.10,    15.51,    12.47,    15.87
      117.0,      15.19,    17.06,    15.48,    12.43,    15.78
      118.0,      15.14,    17.01,    15.45,    12.39,    15.70
      119.0,      15.09,    16.97,    15.42,    12.35,    15.61
      120.0,      15.04,    16.93,    15.39,    12.32,    15.53
      121.0,      15.00,    16.90,    15.36,    12.28,    15.44
      122.0,      14.95,    16.86,    15.33,    12.25,    15.36
      123.0,      14.91,    16.82,    15.30,    12.22,    15.28
      124.0,      14.86,    16.79,    15.28,    12.18,    15.20
      125.0,      14.82,    16.75,    15.25,    12.15,    15.13
      126.0,      14.78,    16.72,    15.22,    12.12,    15.05
      127.0,      14.74,    16.68,    15.20,    12.09,    14.98
      128.0,      14.70,    16.65,    15.17,    12.06,    14.90
      129.0,      14.66,    16.62,    15.15,    12.03,    14.83
      130.0,      14.62,    16.59,    15.12,    12.00,    14.76
      131.0,      14.58,    16.55,    15.10,    11.97,    14.69
      132.0,      14.54,    16.52,    15.07,    11.94,    14.63
      133.0,      14.50,    16.49,    15.05,    11.92,    14.56
      134.0,      14.47,    16.47,    15.03,    11.89,    14.49
      135.0,      14.43,    16.44,    15.00,    11.86,    14.43
      136.0,      14.40,    16.41,    14.98,    11.84,    14.37
      137.0,      14.36,    16.38,    14.96,    11.81,    14.30
      138.0,      14.33,    16.35,    14.94,    11.79,    14.24
      139.0,      14.30,    16.33,    14.91,    11.76,    14.18
      140.0,      14.26,    16.30,    14.89,    11.74,    14.12
      141.0,      14.23,    16.27,    14.87,    11.72,    14.07
      142.0,      14.20,    16.25,    14.85,    11.69,    14.01
      143.0,      14.17,    16.22,    14.83,    11.67,    13.95
      144.0,      14.14,    16.20,    14.81,    11.65,    13.90
      145.0,      14.11,    16.17,    14.79,    11.62,    13.84
      146.0,      14.08,    16.15,    14.77,    11.60,    13.79
      147.0,      14.05,    16.12,    14.75,    11.58,    13.74
      148.0,      14.02,    16.10,    14.73,    11.56,    13.69
      149.0,      13.99,    16.08,    14.71,    11.54,    13.64
      150.0,      13.96,    16.06,    14.69,    11.52,    13.59
      151.0,      13.94,    16.03,    14.67,    11.50,    13.54
      152.0,      13.91,    16.01,    14.66,    11.48,    13.49
      153.0,      13.88,    15.99,    14.64,    11.46,    13.44
      154.0,      13.86,    15.97,    14.62,    11.44,    13.40
      155.0,      13.83,    15.94,    14.60,    11.42,    13.35
      156.0,      13.80,    15.92,    14.58,    11.40,    13.31
      157.0,      13.78,    15.90,    14.56,    11.38,    13.26
      158.0,      13.75,    15.88,    14.55,    11.36,    13.22
      159.0,      13.73,    15.86,    14.53,    11.34,    13.18
      160.0,      13.70,    15.84,    14.51,    11.33,    13.13
      161.0,      13.68,    15.82,    14.49,    11.31,    13.09
      162.0,      13.66,    15.80,    14.48,    11.29,    13.05
      163.0,      13.63,    15.78,    14.46,    11.27,    13.01
      164.0,      13.61,    15.76,    14.44,    11.26,    12.97
      165.0,      13.58,    15.74,    14.43,    11.24,    12.93
      166.0,      13.56,    15.72,    14.41,    11.22,    12.90
      167.0,      13.54,    15.70,    14.39,    11.20,    12.86
      168.0,      13.52,    15.68,    14.38,    11.19,    12.82
      169.0,      13.49,    15.66,    14.36,    11.17,    12.78
      170.0,      13.47,    15.64,    14.34,    11.15,    12.75
      171.0,      13.45,    15.63,    14.33,    11.14,    12.71
      172.0,      13.43,    15.61,    14.31,    11.12,    12.68
      173.0,      13.41,    15.59,    14.30,    11.11,    12.64
      174.0,      13.39,    15.57,    14.28,    11.09,    12.61
      175.0,      13.37,    15.55,    14.26,    11.07,    12.58
      176.0,      13.35,    15.53,    14.25,    11.06,    12.54
      177.0,      13.33,    15.52,    14.23,    11.04,    12.51
      178.0,      13.31,    15.50,    14.22,    11.03,    12.48
      179.0,      13.29,    15.48,    14.20,    11.01,    12.45
      180.0,      13.27,    15.46,    14.19,    11.00,    12.41
      181.0,      13.25,    15.45,    14.17,    10.98,    12.38
      182.0,      13.23,    15.43,    14.15,    10.97,    12.35
      183.0,      13.21,    15.41,    14.14,    10.95,    12.32
      184.0,      13.19,    15.39,    14.12,    10.94,    12.29
      185.0,      13.17,    15.38,    14.11,    10.92,    12.26
      186.0,      13.15,    15.36,    14.09,    10.91,    12.24
      187.0,      13.13,    15.34,    14.08,    10.89,    12.21
      188.0,      13.11,    15.33,    14.06,    10.88,    12.18
      189.0,      13.09,    15.31,    14.05,    10.87,    12.15
      190.0,      13.08,    15.29,    14.03,    10.85,    12.12
      191.0,      13.06,    15.28,    14.02,    10.84,    12.10
      192.0,      13.04,    15.26,    14.00,    10.82,    12.07
      193.0,      13.02,    15.24,    13.99,    10.81,    12.05
      194.0,      13.00,    15.23,    13.97,    10.80,    12.02
      195.0,      12.99,    15.21,    13.96,    10.78,    11.99
      196.0,      12.97,    15.19,    13.95,    10.77,    11.97
      197.0,      12.95,    15.18,    13.93,    10.75,    11.94
      198.0,      12.93,    15.16,    13.92,    10.74,    11.92
      199.0,      12.92,    15.15,    13.90,    10.73,    11.89
      200.0,      12.90,    15.13,    13.89,    10.71,    11.87
      201.0,      12.88,    15.11,    13.87,    10.70,    11.85
      202.0,      12.87,    15.10,    13.86,    10.69,    11.82
      203.0,      12.85,    15.08,    13.84,    10.67,    11.80
      204.0,      12.83,    15.07,    13.83,    10.66,    11.78
      205.0,      12.82,    15.05,    13.82,    10.65,    11.75
      206.0,      12.80,    15.03,    13.80,    10.63,    11.73
      207.0,      12.78,    15.02,    13.79,    10.62,    11.71
      208.0,      12.77,    15.00,    13.77,    10.61,    11.69
      209.0,      12.75,    14.99,    13.76,    10.59,    11.67
      210.0,      12.73,    14.97,    13.74,    10.58,    11.64
      211.0,      12.72,    14.96,    13.73,    10.57,    11.62
      212.0,      12.70,    14.94,    13.72,    10.55,    11.60
      213.0,      12.69,    14.92,    13.70,    10.54,    11.58
      214.0,      12.67,    14.91,    13.69,    10.53,    11.56
      215.0,      12.66,    14.89,    13.67,    10.52,    11.54
      216.0,      12.64,    14.88,    13.66,    10.50,    11.52
      217.0,      12.62,    14.86,    13.65,    10.49,    11.50
      218.0,      12.61,    14.85,    13.63,    10.48,    11.48
      219.0,      12.59,    14.83,    13.62,    10.46,    11.46
      220.0,      12.58,    14.82,    13.60,    10.45,    11.44
      221.0,      12.56,    14.80,    13.59,    10.44,    11.42
      222.0,      12.55,    14.79,    13.58,    10.43,    11.40
      223.0,      12.53,    14.77,    13.56,    10.41,    11.38
      224.0,      12.52,    14.76,    13.55,    10.40,    11.37
      225.0,      12.50,    14.74,    13.54,    10.39,    11.35
      226.0,      12.49,    14.73,    13.52,    10.38,    11.33
      227.0,      12.47,    14.71,    13.51,    10.36,    11.31
      228.0,      12.46,    14.70,    13.49,    10.35,    11.29
      229.0,      12.44,    14.68,    13.48,    10.34,    11.28
      230.0,      12.43,    14.67,    13.47,    10.33,    11.26
      231.0,      12.41,    14.65,    13.45,    10.31,    11.24
      232.0,      12.40,    14.64,    13.44,    10.30,    11.22
      233.0,      12.39,    14.62,    13.43,    10.29,    11.21
      234.0,      12.37,    14.61,    13.41,    10.28,    11.19
      235.0,      12.36,    14.59,    13.40,    10.27,    11.17
      236.0,      12.34,    14.58,    13.39,    10.25,    11.16
      237.0,      12.33,    14.56,    13.37,    10.24,    11.14
      238.0,      12.31,    14.55,    13.36,    10.23,    11.12
      239.0,      12.30,    14.53,    13.34,    10.22,    11.11
      240.0,      12.29,    14.52,    13.33,    10.21,    11.09
      241.0,      12.27,    14.50,    13.32,    10.19,    11.07
      242.0,      12.26,    14.49,    13.30,    10.18,    11.06
      243.0,      12.24,    14.47,    13.29,    10.17,    11.04
      244.0,      12.23,    14.46,    13.28,    10.16,    11.03
      245.0,      12.22,    14.44,    13.26,    10.15,    11.01
      246.0,      12.20,    14.43,    13.25,    10.13,    10.99
      247.0,      12.19,    14.41,    13.24,    10.12,    10.98
      248.0,      12.17,    14.40,    13.22,    10.11,    10.96
      249.0,      12.16,    14.39,    13.21,    10.10,    10.95
      250.0,      12.15,    14.37,    13.20,    10.09,    10.93
      251.0,      12.13,    14.36,    13.18,    10.07,    10.92
      252.0,      12.12,    14.34,    13.17,    10.06,    10.90
      253.0,      12.11,    14.33,    13.16,    10.05,    10.89
      254.0,      12.09,    14.31,    13.14,    10.04,    10.87
      255.0,      12.08,    14.30,    13.13,    10.03,    10.86
      256.0,      12.07,    14.28,    13.12,    10.01,    10.85
      257.0,      12.05,    14.27,    13.11,    10.00,    10.83
      258.0,      12.04,    14.26,    13.09,     9.99,    10.82
      259.0,      12.03,    14.24,    13.08,     9.98,    10.80
      260.0,      12.01,    14.23,    13.07,     9.97,    10.79
      261.0,      12.00,    14.21,    13.05,     9.96,    10.77
      262.0,      11.99,    14.20,    13.04,     9.94,    10.76
      263.0,      11.97,    14.18,    13.03,     9.93,    10.75
      264.0,      11.96,    14.17,    13.01,     9.92,    10.73
      265.0,      11.95,    14.16,    13.00,     9.91,    10.72
      266.0,      11.93,    14.14,    12.99,     9.90,    10.71
      267.0,      11.92,    14.13,    12.97,     9.89,    10.69
      268.0,      11.91,    14.11,    12.96,     9.88,    10.68
      269.0,      11.89,    14.10,    12.95,     9.86,    10.67
      270.0,      11.88,    14.08,    12.94,     9.85,    10.65
      271.0,      11.87,    14.07,    12.92,     9.84,    10.64
      272.0,      11.86,    14.06,    12.91,     9.83,    10.63
      273.0,      11.84,    14.04,    12.90,     9.82,    10.61
      274.0,      11.83,    14.03,    12.88,     9.81,    10.60
      275.0,      11.82,    14.01,    12.87,     9.80,    10.59
      276.0,      11.80,    14.00,    12.86,     9.78,    10.57
      277.0,      11.79,    13.99,    12.85,     9.77,    10.56
      278.0,      11.78,    13.97,    12.83,     9.76,    10.55
      279.0,      11.77,    13.96,    12.82,     9.75,    10.53
      280.0,      11.75,    13.94,    12.81,     9.74,    10.52
      281.0,      11.74,    13.93,    12.79,     9.73,    10.51
      282.0,      11.73,    13.92,    12.78,     9.72,    10.50
      283.0,      11.71,    13.90,    12.77,     9.70,    10.48
      284.0,      11.70,    13.89,    12.76,     9.69,    10.47
      285.0,      11.69,    13.87,    12.74,     9.68,    10.46
      286.0,      11.68,    13.86,    12.73,     9.67,    10.45
      287.0,      11.66,    13.85,    12.72,     9.66,    10.44
      288.0,      11.65,    13.83,    12.70,     9.65,    10.42
      289.0,      11.64,    13.82,    12.69,     9.64,    10.41
      290.0,      11.63,    13.81,    12.68,     9.63,    10.40
      291.0,      11.61,    13.79,    12.67,     9.62,    10.39
      292.0,      11.60,    13.78,    12.65,     9.60,    10.37
      293.0,      11.59,    13.76,    12.64,     9.59,    10.36
      294.0,      11.58,    13.75,    12.63,     9.58,    10.35
      295.0,      11.57,    13.74,    12.62,     9.57,    10.34
      296.0,      11.55,    13.72,    12.60,     9.56,    10.33
      297.0,      11.54,    13.71,    12.59,     9.55,    10.31
      298.0,      11.53,    13.70,    12.58,     9.54,    10.30
      299.0,      11.52,    13.68,    12.57,     9.53,    10.29
      300.0,      11.50,    13.67,    12.55,     9.52,    10.28
      301.0,      11.49,    13.65,    12.54,     9.50,    10.27
      302.0,      11.48,    13.64,    12.53,     9.49,    10.26
      303.0,      11.47,    13.63,    12.51,     9.48,    10.24
      304.0,      11.46,    13.61,    12.50,     9.47,    10.23
      305.0,      11.44,    13.60,    12.49,     9.46,    10.22
      306.0,      11.43,    13.59,    12.48,     9.45,    10.21
      307.0,      11.42,    13.57,    12.46,     9.44,    10.20
      308.0,      11.41,    13.56,    12.45,     9.43,    10.19
      309.0,      11.39,    13.55,    12.44,     9.42,    10.18
      310.0,      11.38,    13.53,    12.43,     9.41,    10.16
