Radius (km), Mean (m/s), NE (m/s), SE (m/s), SW (m/s), NW (m/s)
        0.0,       0.00,     0.00,     0.00,     0.00,     0.00
        1.0,       2.08,     2.02,     2.08,     2.14,     2.10
        2.0,       3.68,     3.61,     3.68,     3.74,     3.70
        3.0,       5.14,     5.08,     5.13,     5.18,     5.15
        4.0,       6.51,     6.47,     6.50,     6.53,     6.51
        5.0,       7.81,     7.80,     7.82,     7.82,     7.82
        6.0,       9.08,     9.09,     9.08,     9.06,     9.08
        7.0,      10.30,    10.35,    10.31,    10.26,    10.29
        8.0,      11.50,    11.58,    11.51,    11.43,    11.48
        9.0,      12.67,    12.78,    12.68,    12.56,    12.64
       10.0,      13.81,    13.96,    13.83,    13.68,    13.78
       11.0,      14.94,    15.13,    14.96,    14.77,    14.89
       12.0,      16.04,    16.28,    16.07,    15.84,    15.99
       13.0,      17.13,    17.41,    17.16,    16.90,    17.07
       14.0,      18.21,    18.53,    18.24,    17.94,    18.14
       15.0,      19.27,    19.63,    19.30,    18.97,    19.19
       16.0,      20.32,    20.72,    20.36,    19.98,    20.23
       17.0,      21.36,    21.81,    21.40,    20.98,    21.26
       18.0,      22.39,    22.89,    22.43,    21.97,    22.28
       19.0,      23.43,    23.99,    23.47,    22.95,    23.29
       20.0,      24.49,    25.17,    24.54,    23.93,    24.32
       21.0,      25.61,    26.46,    25.67,    24.93,    25.40
       22.0,      26.83,    27.88,    26.89,    25.97,    26.56
       23.0,      28.14,    29.44,    28.20,    27.09,    27.83
       24.0,      29.55,    31.10,    29.60,    28.28,    29.21
       25.0,      31.00,    32.79,    31.04,    29.53,    30.66
       26.0,      32.46,    34.43,    32.46,    30.82,    32.12
       27.0,      33.84,    35.94,    33.81,    32.08,    33.53
       28.0,      35.08,    37.22,    35.01,    33.27,    34.81
       29.0,      36.12,    38.23,    36.03,    34.33,    35.89
       30.0,      36.92,    38.93,    36.82,    35.21,    36.72
       31.0,      37.46,    39.31,    37.37,    35.88,    37.27
       32.0,      37.75,    39.41,    37.70,    36.33,    37.55
       33.0,      37.81,    39.27,    37.83,    36.57,    37.58
       34.0,      37.71,    38.97,    37.81,    36.64,    37.41
       35.0,      37.48,    38.57,    37.69,    36.57,    37.10
       36.0,      37.19,    38.12,    37.52,    36.42,    36.71
       37.0,      36.88,    37.66,    37.33,    36.22,    36.29
       38.0,      36.57,    37.23,    37.14,    36.01,    35.88
       39.0,      36.27,    36.82,    36.97,    35.81,    35.49
       40.0,      36.00,    36.44,    36.81,    35.63,    35.13
       41.0,      35.74,    36.06,    36.65,    35.46,    34.78
       42.0,      35.49,    35.71,    36.50,    35.29,    34.45
       43.0,      35.24,    35.36,    36.35,    35.13,    34.13
       44.0,      35.00,    35.03,    36.20,    34.97,    33.82
       45.0,      34.77,    34.70,    36.06,    34.80,    33.52
       46.0,      34.54,    34.39,    35.91,    34.64,    33.23
       47.0,      34.32,    34.09,    35.78,    34.48,    32.95
       48.0,      34.11,    33.80,    35.64,    34.32,    32.67
       49.0,      33.90,    33.52,    35.50,    34.16,    32.40
       50.0,      33.69,    33.25,    35.37,    34.00,    32.14
       51.0,      33.49,    32.99,    35.24,    33.84,    31.89
       52.0,      33.29,    32.73,    35.11,    33.69,    31.64
       53.0,      33.10,    32.49,    34.99,    33.53,    31.40
       54.0,      32.91,    32.25,    34.86,    33.37,    31.17
       55.0,      32.73,    32.02,    34.74,    33.22,    30.94
       56.0,      32.55,    31.80,    34.62,    33.07,    30.72
       57.0,      32.38,    31.58,    34.50,    32.91,    30.51
       58.0,      32.20,    31.37,    34.38,    32.76,    30.30
       59.0,      32.03,    31.17,    34.27,    32.61,    30.09
       60.0,      31.87,    30.98,    34.15,    32.45,    29.89
       61.0,      31.71,    30.79,    34.04,    32.30,    29.70
       62.0,      31.55,    30.61,    33.93,    32.15,    29.51
       63.0,      31.39,    30.43,    33.82,    32.00,    29.33
       64.0,      31.24,    30.26,    33.71,    31.86,    29.15
       65.0,      31.09,    30.09,    33.60,    31.71,    28.97
       66.0,      30.94,    29.93,    33.49,    31.56,    28.80
       67.0,      30.80,    29.77,    33.39,    31.41,    28.63
       68.0,      30.66,    29.62,    33.29,    31.27,    28.46
       69.0,      30.52,    29.47,    33.18,    31.12,    28.30
       70.0,      30.38,    29.33,    33.08,    30.98,    28.15
       71.0,      30.25,    29.19,    32.98,    30.83,    27.99
       72.0,      30.12,    29.05,    32.88,    30.69,    27.84
       73.0,      29.99,    28.92,    32.78,    30.55,    27.69
       74.0,      29.86,    28.79,    32.68,    30.41,    27.55
       75.0,      29.73,    28.66,    32.59,    30.26,    27.41
       76.0,      29.61,    28.54,    32.49,    30.12,    27.27
       77.0,      29.48,    28.42,    32.40,    29.98,    27.13
       78.0,      29.36,    28.31,    32.30,    29.84,    27.00
       79.0,      29.25,    28.20,    32.21,    29.71,    26.87
       80.0,      29.13,    28.09,    32.12,    29.57,    26.74
       81.0,      29.01,    27.98,    32.03,    29.43,    26.61
       82.0,      28.90,    27.88,    31.93,    29.29,    26.49
       83.0,      28.79,    27.78,    31.84,    29.16,    26.37
       84.0,      28.68,    27.68,    31.76,    29.02,    26.25
       85.0,      28.57,    27.58,    31.67,    28.89,    26.13
       86.0,      28.46,    27.49,    31.58,    28.75,    26.01
       87.0,      28.35,    27.40,    31.49,    28.62,    25.90
       88.0,      28.25,    27.31,    31.40,    28.49,    25.79
       89.0,      28.14,    27.22,    31.32,    28.35,    25.68
       90.0,      28.04,    27.13,    31.23,    28.22,    25.57
       91.0,      27.94,    27.05,    31.15,    28.09,    25.46
       92.0,      27.84,    26.97,    31.06,    27.96,    25.36
       93.0,      27.74,    26.88,    30.98,    27.83,    25.25
       94.0,      27.64,    26.81,    30.89,    27.70,    25.15
       95.0,      27.54,    26.73,    30.81,    27.57,    25.05
       96.0,      27.44,    26.65,    30.73,    27.44,    24.95
       97.0,      27.35,    26.58,    30.65,    27.32,    24.85
       98.0,      27.25,    26.51,    30.56,    27.19,    24.75
       99.0,      27.16,    26.44,    30.48,    27.06,    24.66
      100.0,      27.07,    26.37,    30.40,    26.94,    24.56
      101.0,      26.97,    26.30,    30.32,    26.81,    24.47
      102.0,      26.88,    26.23,    30.24,    26.69,    24.38
      103.0,      26.79,    26.16,    30.16,    26.56,    24.28
      104.0,      26.70,    26.10,    30.08,    26.44,    24.19
      105.0,      26.62,    26.03,    30.01,    26.32,    24.10
      106.0,      26.53,    25.97,    29.93,    26.20,    24.02
      107.0,      26.44,    25.91,    29.85,    26.07,    23.93
      108.0,      26.35,    25.85,    29.77,    25.95,    23.84
      109.0,      26.27,    25.79,    29.70,    25.83,    23.76
      110.0,      26.18,    25.73,    29.62,    25.71,    23.67
      111.0,      26.10,    25.67,    29.54,    25.59,    23.59
      112.0,      26.01,    25.61,    29.47,    25.47,    23.51
      113.0,      25.93,    25.56,    29.39,    25.36,    23.42
      114.0,      25.85,    25.50,    29.32,    25.24,    23.34
      115.0,      25.77,    25.44,    29.24,    25.12,    23.26
      116.0,      25.68,    25.39,    29.17,    25.00,    23.18
      117.0,      25.60,    25.34,    29.09,    24.89,    23.10
      118.0,      25.52,    25.28,    29.02,    24.77,    23.02
      119.0,      25.44,    25.23,    28.94,    24.66,    22.94
      120.0,      25.36,    25.18,    28.87,    24.54,    22.87
      121.0,      25.29,    25.13,    28.80,    24.43,    22.79
      122.0,      25.21,    25.08,    28.72,    24.31,    22.71
      123.0,      25.13,    25.03,    28.65,    24.20,    22.64
      124.0,      25.05,    24.98,    28.58,    24.09,    22.56
      125.0,      24.98,    24.93,    28.51,    23.98,    22.49
      126.0,      24.90,    24.88,    28.43,    23.87,    22.42
      127.0,      24.82,    24.83,    28.36,    23.75,    22.34
      128.0,      24.75,    24.79,    28.29,    23.64,    22.27
      129.0,      24.67,    24.74,    28.22,    23.53,    22.20
      130.0,      24.60,    24.69,    28.15,    23.43,    22.12
      131.0,      24.52,    24.65,    28.08,    23.32,    22.05
      132.0,      24.45,    24.60,    28.01,    23.21,    21.98
      133.0,      24.38,    24.55,    27.94,    23.10,    21.91
      134.0,      24.30,    24.51,    27.87,    22.99,    21.84
      135.0,      24.23,    24.46,    27.80,    22.89,    21.77
      136.0,      24.16,    24.42,    27.73,    22.78,    21.70
      137.0,      24.09,    24.38,    27.66,    22.67,    21.63
      138.0,      24.01,    24.33,    27.59,    22.57,    21.57
      139.0,      23.94,    24.29,    27.52,    22.46,    21.50
      140.0,      23.87,    24.25,    27.45,    22.36,    21.43
      141.0,      23.80,    24.20,    27.39,    22.26,    21.36
      142.0,      23.73,    24.16,    27.32,    22.15,    21.30
      143.0,      23.66,    24.12,    27.25,    22.05,    21.23
      144.0,      23.59,    24.08,    27.18,    21.95,    21.16
      145.0,      23.52,    24.04,    27.12,    21.84,    21.10
      146.0,      23.45,    24.00,    27.05,    21.74,    21.03
      147.0,      23.39,    23.95,    26.98,    21.64,    20.97
      148.0,      23.32,    23.91,    26.91,    21.54,    20.90
      149.0,      23.25,    23.87,    26.85,    21.44,    20.84
      150.0,      23.18,    23.83,    26.78,    21.34,    20.77
      151.0,      23.11,    23.79,    26.71,    21.24,    20.71
      152.0,      23.05,    23.75,    26.65,    21.14,    20.65
      153.0,      22.98,    23.71,    26.58,    21.05,    20.58
      154.0,      22.91,    23.67,    26.52,    20.95,    20.52
      155.0,      22.85,    23.63,    26.45,    20.85,    20.46
      156.0,      22.78,    23.60,    26.39,    20.75,    20.39
      157.0,      22.72,    23.56,    26.32,    20.66,    20.33
      158.0,      22.65,    23.52,    26.26,    20.56,    20.27
      159.0,      22.59,    23.48,    26.19,    20.47,    20.21
      160.0,      22.52,    23.44,    26.13,    20.37,    20.15
      161.0,      22.46,    23.40,    26.06,    20.28,    20.09
      162.0,      22.39,    23.36,    26.00,    20.18,    20.03
      163.0,      22.33,    23.33,    25.93,    20.09,    19.97
      164.0,      22.26,    23.29,    25.87,    19.99,    19.91
      165.0,      22.20,    23.25,    25.81,    19.90,    19.85
      166.0,      22.14,    23.21,    25.74,    19.81,    19.79
      167.0,      22.07,    23.18,    25.68,    19.72,    19.73
      168.0,      22.01,    23.14,    25.62,    19.63,    19.67
      169.0,      21.95,    23.10,    25.55,    19.53,    19.61
      170.0,      21.89,    23.07,    25.49,    19.44,    19.55
      171.0,      21.82,    23.03,    25.43,    19.35,    19.49
      172.0,      21.76,    22.99,    25.37,    19.26,    19.43
      173.0,      21.70,    22.96,    25.30,    19.17,    19.37
      174.0,      21.64,    22.92,    25.24,    19.08,    19.32
      175.0,      21.58,    22.88,    25.18,    19.00,    19.26
      176.0,      21.52,    22.85,    25.12,    18.91,    19.20
      177.0,      21.46,    22.81,    25.06,    18.82,    19.14
      178.0,      21.40,    22.77,    24.99,    18.73,    19.09
      179.0,      21.34,    22.74,    24.93,    18.65,    19.03
      180.0,      21.28,    22.70,    24.87,    18.56,    18.97
      181.0,      21.22,    22.67,    24.81,    18.47,    18.91
      182.0,      21.16,    22.63,    24.75,    18.39,    18.86
      183.0,      21.10,    22.60,    24.69,    18.30,    18.80
      184.0,      21.04,    22.56,    24.63,    18.22,    18.75
      185.0,      20.98,    22.53,    24.57,    18.13,    18.69
      186.0,      20.92,    22.49,    24.51,    18.05,    18.64
      187.0,      20.86,    22.45,    24.45,    17.96,    18.58
      188.0,      20.80,    22.42,    24.39,    17.88,    18.52
      189.0,      20.75,    22.38,    24.33,    17.80,    18.47
      190.0,      20.69,    22.35,    24.27,    17.71,    18.41
      191.0,      20.63,    22.32,    24.21,    17.63,    18.36
      192.0,      20.57,    22.28,    24.15,    17.55,    18.31
      193.0,      20.51,    22.25,    24.09,    17.47,    18.25
      194.0,      20.46,    22.21,    24.03,    17.39,    18.20
      195.0,      20.40,    22.18,    23.97,    17.31,    18.14
      196.0,      20.34,    22.14,    23.91,    17.23,    18.09
      197.0,      20.29,    22.11,    23.86,    17.15,    18.04
      198.0,      20.23,    22.07,    23.80,    17.07,    17.98
      199.0,      20.17,    22.04,    23.74,    16.99,    17.93
      200.0,      20.12,    22.01,    23.68,    16.91,    17.88
      201.0,      20.06,    21.97,    23.62,    16.83,    17.82
      202.0,      20.01,    21.94,    23.57,    16.75,    17.77
      203.0,      19.95,    21.90,    23.51,    16.67,    17.72
      204.0,      19.90,    21.87,    23.45,    16.60,    17.67
      205.0,      19.84,    21.84,    23.39,    16.52,    17.61
      206.0,      19.79,    21.80,    23.34,    16.44,    17.56
      207.0,      19.73,    21.77,    23.28,    16.37,    17.51
      208.0,      19.68,    21.74,    23.22,    16.29,    17.46
      209.0,      19.62,    21.70,    23.16,    16.21,    17.41
      210.0,      19.57,    21.67,    23.11,    16.14,    17.36
      211.0,      19.51,    21.64,    23.05,    16.06,    17.30
      212.0,      19.46,    21.60,    22.99,    15.99,    17.25
      213.0,      19.41,    21.57,    22.94,    15.92,    17.20
      214.0,      19.35,    21.54,    22.88,    15.84,    17.15
      215.0,      19.30,    21.50,    22.83,    15.77,    17.10
      216.0,      19.25,    21.47,    22.77,    15.69,    17.05
      217.0,      19.19,    21.44,    22.72,    15.62,    17.00
      218.0,      19.14,    21.41,    22.66,    15.55,    16.95
      219.0,      19.09,    21.37,    22.60,    15.48,    16.90
      220.0,      19.04,    21.34,    22.55,    15.40,    16.85
      221.0,      18.98,    21.31,    22.49,    15.33,    16.80
      222.0,      18.93,    21.27,    22.44,    15.26,    16.75
      223.0,      18.88,    21.24,    22.38,    15.19,    16.70
      224.0,      18.83,    21.21,    22.33,    15.12,    16.65
      225.0,      18.78,    21.18,    22.27,    15.05,    16.60
      226.0,      18.73,    21.14,    22.22,    14.98,    16.56
      227.0,      18.67,    21.11,    22.17,    14.91,    16.51
      228.0,      18.62,    21.08,    22.11,    14.84,    16.46
      229.0,      18.57,    21.05,    22.06,    14.77,    16.41
      230.0,      18.52,    21.02,    22.00,    14.70,    16.36
      231.0,      18.47,    20.98,    21.95,    14.64,    16.31
      232.0,      18.42,    20.95,    21.90,    14.57,    16.27
      233.0,      18.37,    20.92,    21.84,    14.50,    16.22
      234.0,      18.32,    20.89,    21.79,    14.43,    16.17
      235.0,      18.27,    20.86,    21.74,    14.37,    16.12
      236.0,      18.22,    20.82,    21.68,    14.30,    16.07
      237.0,      18.17,    20.79,    21.63,    14.23,    16.03
      238.0,      18.12,    20.76,    21.58,    14.17,    15.98
      239.0,      18.07,    20.73,    21.52,    14.10,    15.93
      240.0,      18.02,    20.70,    21.47,    14.03,    15.89
      241.0,      17.97,    20.67,    21.42,    13.97,    15.84
      242.0,      17.92,    20.63,    21.37,    13.90,    15.79
      243.0,      17.88,    20.60,    21.31,    13.84,    15.75
      244.0,      17.83,    20.57,    21.26,    13.78,    15.70
      245.0,      17.78,    20.54,    21.21,    13.71,    15.65
      246.0,      17.73,    20.51,    21.16,    13.65,    15.61
      247.0,      17.68,    20.48,    21.11,    13.58,    15.56
      248.0,      17.63,    20.45,    21.06,    13.52,    15.52
      249.0,      17.59,    20.42,    21.00,    13.46,    15.47
      250.0,      17.54,    20.38,    20.95,    13.40,    15.43
      251.0,      17.49,    20.35,    20.90,    13.33,    15.38
      252.0,      17.44,    20.32,    20.85,    13.27,    15.34
      253.0,      17.40,    20.29,    20.80,    13.21,    15.29
      254.0,      17.35,    20.26,    20.75,    13.15,    15.25
      255.0,      17.30,    20.23,    20.70,    13.09,    15.20
      256.0,      17.26,    20.20,    20.65,    13.03,    15.16
      257.0,      17.21,    20.17,    20.60,    12.97,    15.11
      258.0,      17.16,    20.14,    20.55,    12.91,    15.07
      259.0,      17.12,    20.11,    20.50,    12.85,    15.02
      260.0,      17.07,    20.08,    20.45,    12.79,    14.98
      261.0,      17.03,    20.05,    20.40,    12.73,    14.93
      262.0,      16.98,    20.01,    20.35,    12.67,    14.89
      263.0,      16.93,    19.98,    20.30,    12.61,    14.85
      264.0,      16.89,    19.95,    20.25,    12.55,    14.80
      265.0,      16.84,    19.92,    20.20,    12.49,    14.76
      266.0,      16.80,    19.89,    20.15,    12.43,    14.72
      267.0,      16.75,    19.86,    20.10,    12.38,    14.67
      268.0,      16.71,    19.83,    20.05,    12.32,    14.63
      269.0,      16.66,    19.80,    20.00,    12.26,    14.59
      270.0,      16.62,    19.77,    19.95,    12.21,    14.54
      271.0,      16.57,    19.74,    19.90,    12.15,    14.50
      272.0,      16.53,    19.71,    19.85,    12.09,    14.46
      273.0,      16.49,    19.68,    19.81,    12.04,    14.42
      274.0,      16.44,    19.65,    19.76,    11.98,    14.37
      275.0,      16.40,    19.62,    19.71,    11.92,    14.33
      276.0,      16.35,    19.59,    19.66,    11.87,    14.29
      277.0,      16.31,    19.56,    19.61,    11.81,    14.25
      278.0,      16.27,    19.53,    19.56,    11.76,    14.21
      279.0,      16.22,    19.50,    19.52,    11.70,    14.16
      280.0,      16.18,    19.47,    19.47,    11.65,    14.12
      281.0,      16.14,    19.44,    19.42,    11.60,    14.08
      282.0,      16.09,    19.41,    19.37,    11.54,    14.04
      283.0,      16.05,    19.39,    19.33,    11.49,    14.00
      284.0,      16.01,    19.36,    19.28,    11.43,    13.96
      285.0,      15.96,    19.33,    19.23,    11.38,    13.92
      286.0,      15.92,    19.30,    19.19,    11.33,    13.88
      287.0,      15.88,    19.27,    19.14,    11.28,    13.84
      288.0,      15.84,    19.24,    19.09,    11.22,    13.79
      289.0,      15.79,    19.21,    19.05,    11.17,    13.75
      290.0,      15.75,    19.18,    19.00,    11.12,    13.71
      291.0,      15.71,    19.15,    18.95,    11.07,    13.67
      292.0,      15.67,    19.12,    18.91,    11.02,    13.63
      293.0,      15.63,    19.09,    18.86,    10.97,    13.59
      294.0,      15.59,    19.06,    18.81,    10.91,    13.55
      295.0,      15.54,    19.03,    18.77,    10.86,    13.51
      296.0,      15.50,    19.01,    18.72,    10.81,    13.47
      297.0,      15.46,    18.98,    18.68,    10.76,    13.43
      298.0,      15.42,    18.95,    18.63,    10.71,    13.40
      299.0,      15.38,    18.92,    18.58,    10.66,    13.36
      300.0,      15.34,    18.89,    18.54,    10.61,    13.32
      301.0,      15.30,    18.86,    18.49,    10.56,    13.28
      302.0,      15.26,    18.83,    18.45,    10.52,    13.24
      303.0,      15.22,    18.80,    18.40,    10.47,    13.20
      304.0,      15.18,    18.78,    18.36,    10.42,    13.16
      305.0,      15.14,    18.75,    18.31,    10.37,    13.12
      306.0,      15.10,    18.72,    18.27,    10.32,    13.08
      307.0,      15.06,    18.69,    18.22,    10.27,    13.05
      308.0,      15.02,    18.66,    18.18,    10.23,    13.01
      309.0,      14.98,    18.63,    18.14,    10.18,    12.97
      310.0,      14.94,    18.60,    18.09,    10.13,    12.93
