Radius (km), Mean (m/s), NE (m/s), SE (m/s), SW (m/s), NW (m/s)
        0.0,       0.00,     0.00,     0.00,     0.00,     0.00
        1.0,       2.41,     2.09,     2.61,     2.61,     2.34
        2.0,       4.98,     4.59,     5.22,     5.21,     4.91
        3.0,       7.66,     7.32,     7.89,     7.86,     7.59
        4.0,      10.53,    10.33,    10.71,    10.64,    10.44
        5.0,      13.67,    13.71,    13.79,    13.64,    13.54
        6.0,      17.17,    17.57,    17.19,    16.94,    16.97
        7.0,      21.04,    21.92,    20.91,    20.55,    20.79
        8.0,      25.26,    26.74,    24.90,    24.43,    24.95
        9.0,      29.68,    31.87,    29.02,    28.46,    29.36
       10.0,      34.13,    37.10,    33.09,    32.48,    33.86
       11.0,      38.40,    42.17,    36.93,    36.30,    38.22
       12.0,      42.28,    46.79,    40.35,    39.73,    42.24
       13.0,      45.57,    50.75,    43.19,    42.62,    45.73
       14.0,      48.16,    53.86,    45.36,    44.88,    48.53
       15.0,      49.98,    56.05,    46.84,    46.46,    50.58
       16.0,      51.07,    57.33,    47.66,    47.40,    51.88
       17.0,      51.51,    57.80,    47.93,    47.78,    52.51
       18.0,      51.43,    57.63,    47.78,    47.73,    52.58
       19.0,      51.00,    57.00,    47.34,    47.38,    52.27
       20.0,      50.36,    56.11,    46.75,    46.86,    51.72
       21.0,      49.65,    55.12,    46.11,    46.29,    51.07
       22.0,      48.93,    54.14,    45.48,    45.71,    50.40
       23.0,      48.25,    53.21,    44.88,    45.16,    49.77
       24.0,      47.61,    52.33,    44.30,    44.63,    49.18
       25.0,      46.99,    51.50,    43.73,    44.12,    48.61
       26.0,      46.38,    50.68,    43.18,    43.61,    48.05
       27.0,      45.79,    49.89,    42.64,    43.12,    47.51
       28.0,      45.20,    49.12,    42.10,    42.62,    46.97
       29.0,      44.63,    48.37,    41.58,    42.14,    46.44
       30.0,      44.07,    47.65,    41.06,    41.66,    45.92
       31.0,      43.52,    46.94,    40.56,    41.20,    45.40
       32.0,      42.98,    46.24,    40.06,    40.73,    44.90
       33.0,      42.46,    45.57,    39.57,    40.28,    44.41
       34.0,      41.94,    44.92,    39.09,    39.83,    43.92
       35.0,      41.43,    44.28,    38.62,    39.38,    43.44
       36.0,      40.93,    43.66,    38.16,    38.95,    42.97
       37.0,      40.45,    43.06,    37.70,    38.52,    42.51
       38.0,      39.97,    42.47,    37.26,    38.09,    42.05
       39.0,      39.50,    41.90,    36.82,    37.68,    41.60
       40.0,      39.04,    41.34,    36.39,    37.26,    41.16
       41.0,      38.59,    40.80,    35.97,    36.86,    40.73
       42.0,      38.14,    40.27,    35.55,    36.46,    40.30
       43.0,      37.71,    39.75,    35.14,    36.06,    39.88
       44.0,      37.28,    39.25,    34.74,    35.68,    39.47
       45.0,      36.87,    38.76,    34.35,    35.29,    39.07
       46.0,      36.46,    38.28,    33.96,    34.92,    38.67
       47.0,      36.05,    37.82,    33.58,    34.54,    38.27
       48.0,      35.66,    37.37,    33.21,    34.18,    37.89
       49.0,      35.27,    36.93,    32.84,    33.82,    37.51
       50.0,      34.89,    36.50,    32.48,    33.46,    37.13
       51.0,      34.52,    36.08,    32.12,    33.11,    36.77
       52.0,      34.15,    35.67,    31.78,    32.76,    36.41
       53.0,      33.79,    35.27,    31.44,    32.42,    36.05
       54.0,      33.44,    34.88,    31.10,    32.08,    35.70
       55.0,      33.10,    34.50,    30.77,    31.75,    35.35
       56.0,      32.76,    34.14,    30.45,    31.43,    35.02
       57.0,      32.42,    33.78,    30.13,    31.10,    34.68
       58.0,      32.09,    33.42,    29.81,    30.79,    34.35
       59.0,      31.77,    33.08,    29.51,    30.47,    34.03
       60.0,      31.46,    32.75,    29.20,    30.17,    33.71
       61.0,      31.15,    32.42,    28.91,    29.86,    33.40
       62.0,      30.84,    32.10,    28.62,    29.56,    33.09
       63.0,      30.54,    31.79,    28.33,    29.27,    32.79
       64.0,      30.25,    31.49,    28.05,    28.98,    32.49
       65.0,      29.96,    31.19,    27.77,    28.69,    32.20
       66.0,      29.68,    30.91,    27.50,    28.41,    31.91
       67.0,      29.40,    30.62,    27.23,    28.13,    31.62
       68.0,      29.13,    30.35,    26.97,    27.85,    31.34
       69.0,      28.86,    30.08,    26.71,    27.58,    31.07
       70.0,      28.60,    29.82,    26.46,    27.32,    30.80
       71.0,      28.34,    29.56,    26.21,    27.05,    30.53
       72.0,      28.08,    29.31,    25.97,    26.79,    30.27
       73.0,      27.83,    29.06,    25.73,    26.54,    30.01
       74.0,      27.59,    28.83,    25.49,    26.29,    29.75
       75.0,      27.35,    28.59,    25.26,    26.04,    29.50
       76.0,      27.11,    28.36,    25.03,    25.79,    29.25
       77.0,      26.88,    28.14,    24.80,    25.55,    29.01
       78.0,      26.65,    27.92,    24.58,    25.31,    28.77
       79.0,      26.42,    27.71,    24.37,    25.08,    28.54
       80.0,      26.20,    27.50,    24.15,    24.85,    28.30
       81.0,      25.98,    27.29,    23.94,    24.62,    28.07
       82.0,      25.77,    27.09,    23.74,    24.40,    27.85
       83.0,      25.56,    26.90,    23.54,    24.17,    27.63
       84.0,      25.35,    26.71,    23.34,    23.96,    27.41
       85.0,      25.15,    26.52,    23.14,    23.74,    27.19
       86.0,      24.95,    26.34,    22.95,    23.53,    26.98
       87.0,      24.75,    26.16,    22.76,    23.32,    26.77
       88.0,      24.56,    25.98,    22.58,    23.11,    26.57
       89.0,      24.37,    25.81,    22.39,    22.91,    26.36
       90.0,      24.18,    25.64,    22.21,    22.71,    26.16
       91.0,      24.00,    25.47,    22.04,    22.51,    25.97
       92.0,      23.82,    25.31,    21.86,    22.31,    25.77
       93.0,      23.64,    25.15,    21.69,    22.12,    25.58
       94.0,      23.46,    25.00,    21.53,    21.93,    25.39
       95.0,      23.29,    24.84,    21.36,    21.75,    25.21
       96.0,      23.12,    24.69,    21.20,    21.56,    25.02
       97.0,      22.95,    24.55,    21.04,    21.38,    24.84
       98.0,      22.79,    24.40,    20.88,    21.20,    24.67
       99.0,      22.63,    24.26,    20.73,    21.02,    24.49
      100.0,      22.47,    24.12,    20.58,    20.85,    24.32
      101.0,      22.31,    23.99,    20.43,    20.68,    24.15
      102.0,      22.16,    23.86,    20.28,    20.51,    23.98
      103.0,      22.00,    23.72,    20.14,    20.34,    23.81
      104.0,      21.86,    23.60,    20.00,    20.18,    23.65
      105.0,      21.71,    23.47,    19.86,    20.02,    23.49
      106.0,      21.56,    23.35,    19.72,    19.86,    23.33
      107.0,      21.42,    23.22,    19.59,    19.70,    23.18
      108.0,      21.28,    23.10,    19.45,    19.54,    23.02
      109.0,      21.14,    22.99,    19.32,    19.39,    22.87
      110.0,      21.01,    22.87,    19.19,    19.24,    22.72
      111.0,      20.87,    22.76,    19.07,    19.09,    22.57
      112.0,      20.74,    22.65,    18.94,    18.94,    22.43
      113.0,      20.61,    22.54,    18.82,    18.80,    22.28
      114.0,      20.48,    22.43,    18.70,    18.65,    22.14
      115.0,      20.35,    22.32,    18.58,    18.51,    22.00
      116.0,      20.23,    22.22,    18.47,    18.37,    21.86
      117.0,      20.11,    22.11,    18.35,    18.23,    21.73
      118.0,      19.99,    22.01,    18.24,    18.10,    21.59
      119.0,      19.87,    21.91,    18.13,    17.97,    21.46
      120.0,      19.75,    21.81,    18.02,    17.83,    21.33
      121.0,      19.63,    21.72,    17.91,    17.70,    21.20
      122.0,      19.52,    21.62,    17.81,    17.58,    21.07
      123.0,      19.41,    21.53,    17.71,    17.45,    20.95
      124.0,      19.30,    21.44,    17.60,    17.33,    20.82
      125.0,      19.19,    21.34,    17.50,    17.20,    20.70
      126.0,      19.08,    21.25,    17.40,    17.08,    20.58
      127.0,      18.97,    21.17,    17.31,    16.96,    20.46
      128.0,      18.87,    21.08,    17.21,    16.84,    20.34
      129.0,      18.77,    20.99,    17.12,    16.73,    20.23
      130.0,      18.66,    20.91,    17.02,    16.61,    20.11
      131.0,      18.56,    20.82,    16.93,    16.50,    20.00
      132.0,      18.46,    20.74,    16.84,    16.39,    19.89
      133.0,      18.37,    20.66,    16.75,    16.28,    19.78
      134.0,      18.27,    20.58,    16.67,    16.17,    19.67
      135.0,      18.18,    20.50,    16.58,    16.06,    19.56
      136.0,      18.08,    20.42,    16.50,    15.96,    19.46
      137.0,      17.99,    20.34,    16.41,    15.85,    19.35
      138.0,      17.90,    20.26,    16.33,    15.75,    19.25
      139.0,      17.81,    20.19,    16.25,    15.65,    19.14
      140.0,      17.72,    20.11,    16.17,    15.55,    19.04
      141.0,      17.63,    20.04,    16.09,    15.45,    18.94
      142.0,      17.54,    19.97,    16.02,    15.35,    18.84
      143.0,      17.46,    19.89,    15.94,    15.26,    18.75
      144.0,      17.37,    19.82,    15.87,    15.16,    18.65
      145.0,      17.29,    19.75,    15.79,    15.07,    18.56
      146.0,      17.21,    19.68,    15.72,    14.97,    18.46
      147.0,      17.13,    19.61,    15.65,    14.88,    18.37
      148.0,      17.05,    19.54,    15.58,    14.79,    18.28
      149.0,      16.97,    19.48,    15.51,    14.71,    18.19
      150.0,      16.89,    19.41,    15.44,    14.62,    18.10
      151.0,      16.81,    19.34,    15.37,    14.53,    18.01
      152.0,      16.74,    19.28,    15.31,    14.45,    17.92
      153.0,      16.66,    19.21,    15.24,    14.36,    17.83
      154.0,      16.59,    19.15,    15.18,    14.28,    17.75
      155.0,      16.51,    19.08,    15.11,    14.20,    17.66
      156.0,      16.44,    19.02,    15.05,    14.12,    17.58
      157.0,      16.37,    18.96,    14.99,    14.04,    17.50
      158.0,      16.30,    18.89,    14.93,    13.96,    17.41
      159.0,      16.23,    18.83,    14.87,    13.88,    17.33
      160.0,      16.16,    18.77,    14.81,    13.80,    17.25
      161.0,      16.09,    18.71,    14.75,    13.73,    17.17
      162.0,      16.02,    18.65,    14.70,    13.65,    17.09
      163.0,      15.96,    18.59,    14.64,    13.58,    17.02
      164.0,      15.89,    18.53,    14.58,    13.51,    16.94
      165.0,      15.83,    18.48,    14.53,    13.44,    16.86
      166.0,      15.76,    18.42,    14.47,    13.36,    16.79
      167.0,      15.70,    18.36,    14.42,    13.29,    16.71
      168.0,      15.63,    18.30,    14.37,    13.23,    16.64
      169.0,      15.57,    18.25,    14.32,    13.16,    16.57
      170.0,      15.51,    18.19,    14.27,    13.09,    16.50
      171.0,      15.45,    18.13,    14.21,    13.02,    16.43
      172.0,      15.39,    18.08,    14.17,    12.96,    16.35
      173.0,      15.33,    18.02,    14.12,    12.89,    16.28
      174.0,      15.27,    17.97,    14.07,    12.83,    16.22
      175.0,      15.21,    17.92,    14.02,    12.77,    16.15
      176.0,      15.15,    17.86,    13.97,    12.70,    16.08
      177.0,      15.10,    17.81,    13.93,    12.64,    16.01
      178.0,      15.04,    17.75,    13.88,    12.58,    15.95
      179.0,      14.98,    17.70,    13.83,    12.52,    15.88
      180.0,      14.93,    17.65,    13.79,    12.46,    15.81
      181.0,      14.87,    17.60,    13.75,    12.40,    15.75
      182.0,      14.82,    17.55,    13.70,    12.35,    15.69
      183.0,      14.77,    17.50,    13.66,    12.29,    15.62
      184.0,      14.71,    17.44,    13.62,    12.23,    15.56
      185.0,      14.66,    17.39,    13.58,    12.18,    15.50
      186.0,      14.61,    17.34,    13.53,    12.12,    15.44
      187.0,      14.56,    17.29,    13.49,    12.07,    15.38
      188.0,      14.51,    17.24,    13.45,    12.02,    15.32
      189.0,      14.46,    17.19,    13.41,    11.96,    15.26
      190.0,      14.41,    17.14,    13.37,    11.91,    15.20
      191.0,      14.36,    17.10,    13.33,    11.86,    15.14
      192.0,      14.31,    17.05,    13.30,    11.81,    15.08
      193.0,      14.26,    17.00,    13.26,    11.76,    15.02
      194.0,      14.21,    16.95,    13.22,    11.71,    14.96
      195.0,      14.16,    16.90,    13.18,    11.66,    14.91
      196.0,      14.12,    16.86,    13.15,    11.61,    14.85
      197.0,      14.07,    16.81,    13.11,    11.56,    14.80
      198.0,      14.02,    16.76,    13.08,    11.52,    14.74
      199.0,      13.98,    16.71,    13.04,    11.47,    14.69
      200.0,      13.93,    16.67,    13.01,    11.42,    14.63
      201.0,      13.89,    16.62,    12.97,    11.38,    14.58
      202.0,      13.84,    16.58,    12.94,    11.33,    14.52
      203.0,      13.80,    16.53,    12.90,    11.29,    14.47
      204.0,      13.75,    16.48,    12.87,    11.24,    14.42
      205.0,      13.71,    16.44,    12.84,    11.20,    14.37
      206.0,      13.67,    16.39,    12.81,    11.16,    14.32
      207.0,      13.63,    16.35,    12.77,    11.12,    14.26
      208.0,      13.58,    16.30,    12.74,    11.07,    14.21
      209.0,      13.54,    16.26,    12.71,    11.03,    14.16
      210.0,      13.50,    16.21,    12.68,    10.99,    14.11
      211.0,      13.46,    16.17,    12.65,    10.95,    14.06
      212.0,      13.42,    16.13,    12.62,    10.91,    14.01
      213.0,      13.38,    16.08,    12.59,    10.87,    13.97
      214.0,      13.34,    16.04,    12.56,    10.83,    13.92
      215.0,      13.30,    16.00,    12.53,    10.79,    13.87
      216.0,      13.26,    15.95,    12.50,    10.76,    13.82
      217.0,      13.22,    15.91,    12.47,    10.72,    13.77
      218.0,      13.18,    15.87,    12.44,    10.68,    13.73
      219.0,      13.14,    15.82,    12.41,    10.64,    13.68
      220.0,      13.10,    15.78,    12.39,    10.61,    13.63
      221.0,      13.06,    15.74,    12.36,    10.57,    13.59
      222.0,      13.03,    15.70,    12.33,    10.54,    13.54
      223.0,      12.99,    15.65,    12.30,    10.50,    13.50
      224.0,      12.95,    15.61,    12.28,    10.47,    13.45
      225.0,      12.92,    15.57,    12.25,    10.43,    13.41
      226.0,      12.88,    15.53,    12.22,    10.40,    13.36
      227.0,      12.84,    15.49,    12.20,    10.36,    13.32
      228.0,      12.81,    15.45,    12.17,    10.33,    13.27
      229.0,      12.77,    15.41,    12.15,    10.30,    13.23
      230.0,      12.74,    15.37,    12.12,    10.27,    13.19
      231.0,      12.70,    15.32,    12.10,    10.23,    13.15
      232.0,      12.67,    15.28,    12.07,    10.20,    13.10
      233.0,      12.63,    15.24,    12.05,    10.17,    13.06
      234.0,      12.60,    15.20,    12.02,    10.14,    13.02
      235.0,      12.56,    15.16,    12.00,    10.11,    12.98
      236.0,      12.53,    15.12,    11.98,    10.08,    12.94
      237.0,      12.49,    15.08,    11.95,    10.05,    12.89
      238.0,      12.46,    15.04,    11.93,    10.02,    12.85
      239.0,      12.43,    15.00,    11.91,     9.99,    12.81
      240.0,      12.39,    14.96,    11.88,     9.96,    12.77
      241.0,      12.36,    14.93,    11.86,     9.93,    12.73
      242.0,      12.33,    14.89,    11.84,     9.90,    12.69
      243.0,      12.30,    14.85,    11.81,     9.87,    12.65
      244.0,      12.26,    14.81,    11.79,     9.84,    12.61
      245.0,      12.23,    14.77,    11.77,     9.82,    12.57
      246.0,      12.20,    14.73,    11.75,     9.79,    12.53
      247.0,      12.17,    14.69,    11.73,     9.76,    12.50
      248.0,      12.14,    14.65,    11.71,     9.74,    12.46
      249.0,      12.11,    14.62,    11.68,     9.71,    12.42
      250.0,      12.08,    14.58,    11.66,     9.68,    12.38
      251.0,      12.05,    14.54,    11.64,     9.66,    12.34
      252.0,      12.02,    14.50,    11.62,     9.63,    12.31
      253.0,      11.98,    14.46,    11.60,     9.61,    12.27
      254.0,      11.95,    14.43,    11.58,     9.58,    12.23
      255.0,      11.92,    14.39,    11.56,     9.56,    12.19
      256.0,      11.89,    14.35,    11.54,     9.53,    12.16
      257.0,      11.87,    14.31,    11.52,     9.51,    12.12
      258.0,      11.84,    14.28,    11.50,     9.48,    12.09
      259.0,      11.81,    14.24,    11.48,     9.46,    12.05
      260.0,      11.78,    14.20,    11.46,     9.43,    12.01
      261.0,      11.75,    14.17,    11.44,     9.41,    11.98
      262.0,      11.72,    14.13,    11.42,     9.39,    11.94
      263.0,      11.69,    14.09,    11.40,     9.36,    11.91
      264.0,      11.66,    14.06,    11.38,     9.34,    11.87
      265.0,      11.64,    14.02,    11.36,     9.32,    11.84
      266.0,      11.61,    13.98,    11.35,     9.30,    11.80
      267.0,      11.58,    13.95,    11.33,     9.27,    11.77
      268.0,      11.55,    13.91,    11.31,     9.25,    11.73
      269.0,      11.52,    13.88,    11.29,     9.23,    11.70
      270.0,      11.50,    13.84,    11.27,     9.21,    11.67
      271.0,      11.47,    13.80,    11.25,     9.19,    11.63
      272.0,      11.44,    13.77,    11.24,     9.17,    11.60
      273.0,      11.42,    13.73,    11.22,     9.15,    11.56
      274.0,      11.39,    13.70,    11.20,     9.12,    11.53
      275.0,      11.36,    13.66,    11.18,     9.10,    11.50
      276.0,      11.34,    13.63,    11.17,     9.08,    11.46
      277.0,      11.31,    13.59,    11.15,     9.06,    11.43
      278.0,      11.28,    13.56,    11.13,     9.04,    11.40
      279.0,      11.26,    13.52,    11.11,     9.02,    11.37
      280.0,      11.23,    13.49,    11.10,     9.00,    11.33
      281.0,      11.20,    13.45,    11.08,     8.98,    11.30
      282.0,      11.18,    13.42,    11.06,     8.97,    11.27
      283.0,      11.15,    13.38,    11.05,     8.95,    11.24
      284.0,      11.13,    13.35,    11.03,     8.93,    11.21
      285.0,      11.10,    13.31,    11.01,     8.91,    11.17
      286.0,      11.08,    13.28,    11.00,     8.89,    11.14
      287.0,      11.05,    13.25,    10.98,     8.87,    11.11
      288.0,      11.03,    13.21,    10.96,     8.85,    11.08
      289.0,      11.00,    13.18,    10.95,     8.83,    11.05
      290.0,      10.98,    13.14,    10.93,     8.82,    11.02
      291.0,      10.95,    13.11,    10.91,     8.80,    10.99
      292.0,      10.93,    13.08,    10.90,     8.78,    10.96
      293.0,      10.90,    13.04,    10.88,     8.76,    10.93
      294.0,      10.88,    13.01,    10.87,     8.75,    10.90
      295.0,      10.86,    12.98,    10.85,     8.73,    10.87
      296.0,      10.83,    12.94,    10.84,     8.71,    10.84
      297.0,      10.81,    12.91,    10.82,     8.69,    10.81
      298.0,      10.78,    12.88,    10.80,     8.68,    10.78
      299.0,      10.76,    12.84,    10.79,     8.66,    10.75
      300.0,      10.74,    12.81,    10.77,     8.64,    10.72
      301.0,      10.71,    12.78,    10.76,     8.63,    10.69
      302.0,      10.69,    12.75,    10.74,     8.61,    10.66
      303.0,      10.67,    12.71,    10.73,     8.59,    10.63
      304.0,      10.64,    12.68,    10.71,     8.58,    10.60
      305.0,      10.62,    12.65,    10.70,     8.56,    10.57
      306.0,      10.60,    12.62,    10.68,     8.55,    10.54
      307.0,      10.57,    12.58,    10.67,     8.53,    10.51
      308.0,      10.55,    12.55,    10.65,     8.52,    10.48
      309.0,      10.53,    12.52,    10.64,     8.50,    10.46
      310.0,      10.51,    12.49,    10.62,     8.48,    10.43
