Radius (km), Mean (m/s), NE (m/s), SE (m/s), SW (m/s), NW (m/s)
        0.0,       0.00,     0.00,     0.00,     0.00,     0.00
        1.0,       2.55,     2.18,     2.74,     2.83,     2.46
        2.0,       5.12,     4.71,     5.34,     5.41,     5.03
        3.0,       7.74,     7.42,     7.96,     7.91,     7.66
        4.0,      10.47,    10.37,    10.69,    10.41,    10.40
        5.0,      13.41,    13.67,    13.65,    12.99,    13.34
        6.0,      16.66,    17.42,    16.89,    15.74,    16.60
        7.0,      20.26,    21.68,    20.42,    18.73,    20.22
        8.0,      24.19,    26.39,    24.18,    21.95,    24.22
        9.0,      28.33,    31.43,    28.04,    25.35,    28.51
       10.0,      32.54,    36.56,    31.84,    28.82,    32.92
       11.0,      36.59,    41.53,    35.41,    32.21,    37.23
       12.0,      40.29,    46.04,    38.56,    35.35,    41.22
       13.0,      43.44,    49.86,    41.16,    38.09,    44.65
       14.0,      45.91,    52.81,    43.13,    40.31,    47.38
       15.0,      47.62,    54.82,    44.45,    41.93,    49.29
       16.0,      48.59,    55.88,    45.16,    42.94,    50.39
       17.0,      48.90,    56.12,    45.36,    43.40,    50.73
       18.0,      48.67,    55.69,    45.16,    43.39,    50.45
       19.0,      48.06,    54.79,    44.72,    43.03,    49.71
       20.0,      47.23,    53.64,    44.13,    42.45,    48.71
       21.0,      46.31,    52.39,    43.50,    41.78,    47.59
       22.0,      45.40,    51.16,    42.89,    41.08,    46.47
       23.0,      44.53,    50.00,    42.29,    40.41,    45.40
       24.0,      43.71,    48.91,    41.73,    39.78,    44.42
       25.0,      42.93,    47.88,    41.17,    39.19,    43.49
       26.0,      42.18,    46.90,    40.63,    38.61,    42.60
       27.0,      41.46,    45.95,    40.09,    38.04,    41.74
       28.0,      40.75,    45.03,    39.57,    37.49,    40.92
       29.0,      40.07,    44.15,    39.05,    36.95,    40.13
       30.0,      39.41,    43.30,    38.55,    36.41,    39.36
       31.0,      38.76,    42.48,    38.05,    35.89,    38.62
       32.0,      38.14,    41.69,    37.57,    35.38,    37.91
       33.0,      37.53,    40.93,    37.09,    34.88,    37.22
       34.0,      36.94,    40.20,    36.62,    34.39,    36.56
       35.0,      36.37,    39.50,    36.16,    33.91,    35.92
       36.0,      35.82,    38.81,    35.71,    33.44,    35.30
       37.0,      35.28,    38.16,    35.26,    32.98,    34.71
       38.0,      34.75,    37.53,    34.83,    32.53,    34.13
       39.0,      34.25,    36.92,    34.40,    32.09,    33.58
       40.0,      33.75,    36.33,    33.98,    31.65,    33.04
       41.0,      33.27,    35.76,    33.57,    31.23,    32.53
       42.0,      32.80,    35.21,    33.17,    30.81,    32.03
       43.0,      32.35,    34.69,    32.77,    30.40,    31.55
       44.0,      31.91,    34.18,    32.38,    30.00,    31.08
       45.0,      31.48,    33.68,    32.00,    29.61,    30.63
       46.0,      31.06,    33.21,    31.62,    29.23,    30.20
       47.0,      30.66,    32.75,    31.25,    28.85,    29.78
       48.0,      30.26,    32.31,    30.89,    28.48,    29.37
       49.0,      29.88,    31.88,    30.54,    28.12,    28.98
       50.0,      29.51,    31.47,    30.19,    27.77,    28.60
       51.0,      29.14,    31.07,    29.84,    27.42,    28.23
       52.0,      28.79,    30.68,    29.51,    27.08,    27.88
       53.0,      28.44,    30.31,    29.18,    26.75,    27.53
       54.0,      28.11,    29.95,    28.85,    26.42,    27.20
       55.0,      27.78,    29.60,    28.54,    26.10,    26.88
       56.0,      27.46,    29.27,    28.22,    25.78,    26.57
       57.0,      27.15,    28.94,    27.92,    25.48,    26.27
       58.0,      26.85,    28.63,    27.62,    25.17,    25.97
       59.0,      26.55,    28.32,    27.32,    24.88,    25.69
       60.0,      26.27,    28.03,    27.03,    24.59,    25.42
       61.0,      25.99,    27.74,    26.75,    24.30,    25.15
       62.0,      25.71,    27.47,    26.47,    24.02,    24.89
       63.0,      25.45,    27.20,    26.19,    23.75,    24.64
       64.0,      25.19,    26.94,    25.92,    23.48,    24.40
       65.0,      24.93,    26.69,    25.66,    23.22,    24.16
       66.0,      24.69,    26.45,    25.40,    22.96,    23.93
       67.0,      24.44,    26.21,    25.14,    22.71,    23.71
       68.0,      24.21,    25.98,    24.89,    22.46,    23.50
       69.0,      23.98,    25.76,    24.64,    22.22,    23.29
       70.0,      23.75,    25.55,    24.40,    21.98,    23.08
       71.0,      23.53,    25.34,    24.16,    21.75,    22.88
       72.0,      23.32,    25.14,    23.93,    21.52,    22.69
       73.0,      23.11,    24.94,    23.70,    21.29,    22.50
       74.0,      22.90,    24.75,    23.48,    21.07,    22.32
       75.0,      22.70,    24.56,    23.26,    20.85,    22.15
       76.0,      22.51,    24.38,    23.04,    20.64,    21.97
       77.0,      22.32,    24.21,    22.83,    20.43,    21.80
       78.0,      22.13,    24.04,    22.62,    20.23,    21.64
       79.0,      21.95,    23.87,    22.41,    20.03,    21.48
       80.0,      21.77,    23.71,    22.21,    19.83,    21.33
       81.0,      21.59,    23.56,    22.01,    19.64,    21.17
       82.0,      21.42,    23.40,    21.82,    19.45,    21.03
       83.0,      21.26,    23.25,    21.63,    19.26,    20.88
       84.0,      21.09,    23.11,    21.44,    19.08,    20.74
       85.0,      20.93,    22.97,    21.25,    18.90,    20.60
       86.0,      20.77,    22.83,    21.07,    18.72,    20.47
       87.0,      20.62,    22.70,    20.89,    18.55,    20.34
       88.0,      20.47,    22.57,    20.72,    18.38,    20.21
       89.0,      20.32,    22.44,    20.55,    18.21,    20.09
       90.0,      20.18,    22.31,    20.38,    18.05,    19.96
       91.0,      20.03,    22.19,    20.21,    17.89,    19.84
       92.0,      19.89,    22.07,    20.05,    17.73,    19.73
       93.0,      19.76,    21.96,    19.89,    17.58,    19.61
       94.0,      19.62,    21.84,    19.73,    17.43,    19.50
       95.0,      19.49,    21.73,    19.58,    17.28,    19.39
       96.0,      19.36,    21.62,    19.43,    17.13,    19.28
       97.0,      19.24,    21.52,    19.28,    16.99,    19.17
       98.0,      19.11,    21.41,    19.13,    16.84,    19.07
       99.0,      18.99,    21.31,    18.99,    16.71,    18.97
      100.0,      18.87,    21.21,    18.84,    16.57,    18.87
      101.0,      18.76,    21.11,    18.71,    16.44,    18.77
      102.0,      18.64,    21.02,    18.57,    16.30,    18.67
      103.0,      18.53,    20.93,    18.43,    16.17,    18.58
      104.0,      18.42,    20.83,    18.30,    16.05,    18.49
      105.0,      18.31,    20.74,    18.17,    15.92,    18.40
      106.0,      18.20,    20.65,    18.05,    15.80,    18.31
      107.0,      18.10,    20.57,    17.92,    15.68,    18.22
      108.0,      17.99,    20.48,    17.80,    15.56,    18.13
      109.0,      17.89,    20.40,    17.68,    15.45,    18.04
      110.0,      17.79,    20.32,    17.56,    15.33,    17.96
      111.0,      17.69,    20.23,    17.44,    15.22,    17.88
      112.0,      17.60,    20.15,    17.33,    15.11,    17.80
      113.0,      17.50,    20.08,    17.21,    15.00,    17.72
      114.0,      17.41,    20.00,    17.10,    14.89,    17.64
      115.0,      17.32,    19.92,    16.99,    14.79,    17.56
      116.0,      17.22,    19.85,    16.89,    14.68,    17.48
      117.0,      17.14,    19.77,    16.78,    14.58,    17.41
      118.0,      17.05,    19.70,    16.68,    14.48,    17.33
      119.0,      16.96,    19.63,    16.57,    14.38,    17.26
      120.0,      16.88,    19.56,    16.47,    14.29,    17.18
      121.0,      16.79,    19.49,    16.38,    14.19,    17.11
      122.0,      16.71,    19.42,    16.28,    14.10,    17.04
      123.0,      16.63,    19.35,    16.18,    14.01,    16.97
      124.0,      16.55,    19.28,    16.09,    13.92,    16.90
      125.0,      16.47,    19.22,    16.00,    13.83,    16.83
      126.0,      16.39,    19.15,    15.91,    13.74,    16.76
      127.0,      16.31,    19.09,    15.82,    13.65,    16.70
      128.0,      16.24,    19.03,    15.73,    13.57,    16.63
      129.0,      16.16,    18.96,    15.64,    13.49,    16.56
      130.0,      16.09,    18.90,    15.56,    13.40,    16.50
      131.0,      16.02,    18.84,    15.48,    13.32,    16.43
      132.0,      15.95,    18.78,    15.39,    13.24,    16.37
      133.0,      15.88,    18.72,    15.31,    13.17,    16.31
      134.0,      15.81,    18.66,    15.23,    13.09,    16.24
      135.0,      15.74,    18.60,    15.16,    13.01,    16.18
      136.0,      15.67,    18.54,    15.08,    12.94,    16.12
      137.0,      15.60,    18.48,    15.00,    12.86,    16.06
      138.0,      15.54,    18.42,    14.93,    12.79,    16.00
      139.0,      15.47,    18.37,    14.86,    12.72,    15.94
      140.0,      15.41,    18.31,    14.78,    12.65,    15.88
      141.0,      15.34,    18.25,    14.71,    12.58,    15.82
      142.0,      15.28,    18.20,    14.64,    12.51,    15.76
      143.0,      15.22,    18.14,    14.58,    12.44,    15.71
      144.0,      15.16,    18.09,    14.51,    12.38,    15.65
      145.0,      15.10,    18.04,    14.44,    12.31,    15.59
      146.0,      15.04,    17.98,    14.38,    12.25,    15.54
      147.0,      14.98,    17.93,    14.31,    12.18,    15.48
      148.0,      14.92,    17.88,    14.25,    12.12,    15.42
      149.0,      14.86,    17.82,    14.19,    12.06,    15.37
      150.0,      14.80,    17.77,    14.13,    12.00,    15.31
      151.0,      14.75,    17.72,    14.07,    11.94,    15.26
      152.0,      14.69,    17.67,    14.01,    11.88,    15.20
      153.0,      14.63,    17.62,    13.95,    11.82,    15.15
      154.0,      14.58,    17.57,    13.89,    11.76,    15.10
      155.0,      14.52,    17.52,    13.83,    11.70,    15.04
      156.0,      14.47,    17.47,    13.78,    11.65,    14.99
      157.0,      14.42,    17.42,    13.72,    11.59,    14.94
      158.0,      14.37,    17.37,    13.67,    11.54,    14.89
      159.0,      14.31,    17.32,    13.61,    11.48,    14.84
      160.0,      14.26,    17.27,    13.56,    11.43,    14.78
      161.0,      14.21,    17.22,    13.51,    11.38,    14.73
      162.0,      14.16,    17.17,    13.46,    11.33,    14.68
      163.0,      14.11,    17.13,    13.41,    11.28,    14.63
      164.0,      14.06,    17.08,    13.36,    11.22,    14.58
      165.0,      14.01,    17.03,    13.31,    11.17,    14.53
      166.0,      13.96,    16.98,    13.26,    11.13,    14.48
      167.0,      13.92,    16.94,    13.21,    11.08,    14.43
      168.0,      13.87,    16.89,    13.17,    11.03,    14.38
      169.0,      13.82,    16.84,    13.12,    10.98,    14.34
      170.0,      13.77,    16.80,    13.08,    10.93,    14.29
      171.0,      13.73,    16.75,    13.03,    10.89,    14.24
      172.0,      13.68,    16.71,    12.99,    10.84,    14.19
      173.0,      13.64,    16.66,    12.94,    10.80,    14.14
      174.0,      13.59,    16.62,    12.90,    10.75,    14.09
      175.0,      13.55,    16.57,    12.86,    10.71,    14.05
      176.0,      13.50,    16.53,    12.82,    10.66,    14.00
      177.0,      13.46,    16.48,    12.78,    10.62,    13.95
      178.0,      13.41,    16.44,    12.74,    10.58,    13.91
      179.0,      13.37,    16.39,    12.70,    10.54,    13.86
      180.0,      13.33,    16.35,    12.66,    10.49,    13.81
      181.0,      13.29,    16.30,    12.62,    10.45,    13.77
      182.0,      13.24,    16.26,    12.58,    10.41,    13.72
      183.0,      13.20,    16.22,    12.54,    10.37,    13.68
      184.0,      13.16,    16.17,    12.51,    10.33,    13.63
      185.0,      13.12,    16.13,    12.47,    10.29,    13.59
      186.0,      13.08,    16.09,    12.43,    10.25,    13.54
      187.0,      13.04,    16.05,    12.40,    10.21,    13.50
      188.0,      13.00,    16.00,    12.36,    10.18,    13.45
      189.0,      12.96,    15.96,    12.33,    10.14,    13.41
      190.0,      12.92,    15.92,    12.29,    10.10,    13.36
      191.0,      12.88,    15.88,    12.26,    10.06,    13.32
      192.0,      12.84,    15.83,    12.23,    10.03,    13.27
      193.0,      12.80,    15.79,    12.19,     9.99,    13.23
      194.0,      12.76,    15.75,    12.16,     9.95,    13.19
      195.0,      12.72,    15.71,    12.13,     9.92,    13.14
      196.0,      12.69,    15.67,    12.10,     9.88,    13.10
      197.0,      12.65,    15.63,    12.07,     9.85,    13.06
      198.0,      12.61,    15.58,    12.03,     9.81,    13.01
      199.0,      12.57,    15.54,    12.00,     9.78,    12.97
      200.0,      12.54,    15.50,    11.97,     9.75,    12.93
      201.0,      12.50,    15.46,    11.94,     9.71,    12.89
      202.0,      12.46,    15.42,    11.91,     9.68,    12.84
      203.0,      12.43,    15.38,    11.89,     9.64,    12.80
      204.0,      12.39,    15.34,    11.86,     9.61,    12.76
      205.0,      12.36,    15.30,    11.83,     9.58,    12.72
      206.0,      12.32,    15.26,    11.80,     9.55,    12.68
      207.0,      12.29,    15.22,    11.77,     9.52,    12.63
      208.0,      12.25,    15.18,    11.75,     9.48,    12.59
      209.0,      12.22,    15.14,    11.72,     9.45,    12.55
      210.0,      12.18,    15.10,    11.69,     9.42,    12.51
      211.0,      12.15,    15.06,    11.66,     9.39,    12.47
      212.0,      12.11,    15.02,    11.64,     9.36,    12.43
      213.0,      12.08,    14.98,    11.61,     9.33,    12.39
      214.0,      12.05,    14.94,    11.59,     9.30,    12.35
      215.0,      12.01,    14.90,    11.56,     9.27,    12.31
      216.0,      11.98,    14.87,    11.54,     9.24,    12.27
      217.0,      11.94,    14.83,    11.51,     9.21,    12.23
      218.0,      11.91,    14.79,    11.49,     9.18,    12.19
      219.0,      11.88,    14.75,    11.46,     9.15,    12.15
      220.0,      11.85,    14.71,    11.44,     9.12,    12.11
      221.0,      11.81,    14.67,    11.42,     9.10,    12.07
      222.0,      11.78,    14.64,    11.39,     9.07,    12.03
      223.0,      11.75,    14.60,    11.37,     9.04,    11.99
      224.0,      11.72,    14.56,    11.35,     9.01,    11.95
      225.0,      11.69,    14.52,    11.32,     8.98,    11.91
      226.0,      11.65,    14.48,    11.30,     8.96,    11.88
      227.0,      11.62,    14.45,    11.28,     8.93,    11.84
      228.0,      11.59,    14.41,    11.26,     8.90,    11.80
      229.0,      11.56,    14.37,    11.24,     8.88,    11.76
      230.0,      11.53,    14.33,    11.22,     8.85,    11.72
      231.0,      11.50,    14.30,    11.19,     8.82,    11.68
      232.0,      11.47,    14.26,    11.17,     8.80,    11.65
      233.0,      11.44,    14.22,    11.15,     8.77,    11.61
      234.0,      11.41,    14.19,    11.13,     8.75,    11.57
      235.0,      11.38,    14.15,    11.11,     8.72,    11.53
      236.0,      11.35,    14.11,    11.09,     8.69,    11.50
      237.0,      11.32,    14.08,    11.07,     8.67,    11.46
      238.0,      11.29,    14.04,    11.05,     8.64,    11.42
      239.0,      11.26,    14.00,    11.03,     8.62,    11.38
      240.0,      11.23,    13.97,    11.01,     8.59,    11.35
      241.0,      11.20,    13.93,    10.99,     8.57,    11.31
      242.0,      11.17,    13.89,    10.97,     8.54,    11.27
      243.0,      11.14,    13.86,    10.95,     8.52,    11.24
      244.0,      11.11,    13.82,    10.94,     8.50,    11.20
      245.0,      11.09,    13.79,    10.92,     8.47,    11.16
      246.0,      11.06,    13.75,    10.90,     8.45,    11.13
      247.0,      11.03,    13.72,    10.88,     8.42,    11.09
      248.0,      11.00,    13.68,    10.86,     8.40,    11.06
      249.0,      10.97,    13.64,    10.84,     8.38,    11.02
      250.0,      10.94,    13.61,    10.83,     8.35,    10.99
      251.0,      10.92,    13.57,    10.81,     8.33,    10.95
      252.0,      10.89,    13.54,    10.79,     8.31,    10.91
      253.0,      10.86,    13.50,    10.77,     8.28,    10.88
      254.0,      10.83,    13.47,    10.76,     8.26,    10.84
      255.0,      10.81,    13.43,    10.74,     8.24,    10.81
      256.0,      10.78,    13.40,    10.72,     8.22,    10.77
      257.0,      10.75,    13.37,    10.71,     8.19,    10.74
      258.0,      10.72,    13.33,    10.69,     8.17,    10.70
      259.0,      10.70,    13.30,    10.67,     8.15,    10.67
      260.0,      10.67,    13.26,    10.66,     8.13,    10.64
      261.0,      10.64,    13.23,    10.64,     8.10,    10.60
      262.0,      10.62,    13.19,    10.62,     8.08,    10.57
      263.0,      10.59,    13.16,    10.61,     8.06,    10.53
      264.0,      10.56,    13.13,    10.59,     8.04,    10.50
      265.0,      10.54,    13.09,    10.58,     8.02,    10.46
      266.0,      10.51,    13.06,    10.56,     8.00,    10.43
      267.0,      10.48,    13.02,    10.54,     7.97,    10.40
      268.0,      10.46,    12.99,    10.53,     7.95,    10.36
      269.0,      10.43,    12.96,    10.51,     7.93,    10.33
      270.0,      10.41,    12.92,    10.50,     7.91,    10.30
      271.0,      10.38,    12.89,    10.48,     7.89,    10.26
      272.0,      10.36,    12.86,    10.47,     7.87,    10.23
      273.0,      10.33,    12.82,    10.45,     7.85,    10.20
      274.0,      10.31,    12.79,    10.44,     7.83,    10.16
      275.0,      10.28,    12.76,    10.42,     7.81,    10.13
      276.0,      10.25,    12.72,    10.41,     7.79,    10.10
      277.0,      10.23,    12.69,    10.39,     7.77,    10.07
      278.0,      10.20,    12.66,    10.38,     7.75,    10.03
      279.0,      10.18,    12.63,    10.36,     7.73,    10.00
      280.0,      10.15,    12.59,    10.35,     7.71,     9.97
      281.0,      10.13,    12.56,    10.34,     7.69,     9.94
      282.0,      10.11,    12.53,    10.32,     7.67,     9.90
      283.0,      10.08,    12.50,    10.31,     7.65,     9.87
      284.0,      10.06,    12.46,    10.29,     7.63,     9.84
      285.0,      10.03,    12.43,    10.28,     7.61,     9.81
      286.0,      10.01,    12.40,    10.27,     7.59,     9.78
      287.0,       9.98,    12.37,    10.25,     7.57,     9.75
      288.0,       9.96,    12.34,    10.24,     7.55,     9.71
      289.0,       9.94,    12.30,    10.23,     7.53,     9.68
      290.0,       9.91,    12.27,    10.21,     7.51,     9.65
      291.0,       9.89,    12.24,    10.20,     7.49,     9.62
      292.0,       9.86,    12.21,    10.19,     7.47,     9.59
      293.0,       9.84,    12.18,    10.17,     7.45,     9.56
      294.0,       9.82,    12.15,    10.16,     7.43,     9.53
      295.0,       9.79,    12.12,    10.15,     7.42,     9.50
      296.0,       9.77,    12.08,    10.13,     7.40,     9.47
      297.0,       9.75,    12.05,    10.12,     7.38,     9.44
      298.0,       9.72,    12.02,    10.11,     7.36,     9.40
      299.0,       9.70,    11.99,    10.09,     7.34,     9.37
      300.0,       9.68,    11.96,    10.08,     7.32,     9.34
      301.0,       9.65,    11.93,    10.07,     7.30,     9.31
      302.0,       9.63,    11.90,    10.06,     7.29,     9.28
      303.0,       9.61,    11.87,    10.04,     7.27,     9.25
      304.0,       9.59,    11.84,    10.03,     7.25,     9.22
      305.0,       9.56,    11.81,    10.02,     7.23,     9.19
      306.0,       9.54,    11.78,    10.01,     7.21,     9.16
      307.0,       9.52,    11.75,     9.99,     7.19,     9.14
      308.0,       9.49,    11.72,     9.98,     7.18,     9.11
      309.0,       9.47,    11.68,     9.97,     7.16,     9.08
      310.0,       9.45,    11.65,     9.96,     7.14,     9.05
