Radius (km), Mean (m/s), NE (m/s), SE (m/s), SW (m/s), NW (m/s)
        0.0,       0.00,     0.00,     0.00,     0.00,     0.00
        1.0,       2.31,     2.29,     2.34,     2.33,     2.25
        2.0,       3.56,     3.61,     3.55,     3.45,     3.61
        3.0,       4.58,     4.72,     4.52,     4.34,     4.76
        4.0,       5.49,     5.70,     5.37,     5.11,     5.78
        5.0,       6.32,     6.59,     6.14,     5.80,     6.73
        6.0,       7.08,     7.43,     6.85,     6.43,     7.62
        7.0,       7.80,     8.22,     7.51,     7.01,     8.47
        8.0,       8.49,     8.98,     8.13,     7.56,     9.27
        9.0,       9.14,     9.70,     8.73,     8.08,    10.05
       10.0,       9.76,    10.39,     9.29,     8.58,    10.80
       11.0,      10.37,    11.06,     9.84,     9.05,    11.52
       12.0,      10.95,    11.71,    10.36,     9.51,    12.22
       13.0,      11.52,    12.34,    10.87,     9.95,    12.91
       14.0,      12.07,    12.96,    11.36,    10.37,    13.58
       15.0,      12.60,    13.56,    11.84,    10.79,    14.23
       16.0,      13.13,    14.15,    12.31,    11.19,    14.87
       17.0,      13.64,    14.72,    12.76,    11.58,    15.49
       18.0,      14.14,    15.28,    13.21,    11.96,    16.11
       19.0,      14.63,    15.84,    13.64,    12.33,    16.71
       20.0,      15.11,    16.39,    14.07,    12.69,    17.31
       21.0,      15.60,    16.95,    14.50,    13.05,    17.90
       22.0,      16.10,    17.55,    14.95,    13.41,    18.49
       23.0,      16.64,    18.21,    15.43,    13.79,    19.11
       24.0,      17.21,    18.93,    15.97,    14.19,    19.77
       25.0,      17.84,    19.70,    16.57,    14.61,    20.47
       26.0,      18.49,    20.50,    17.20,    15.05,    21.21
       27.0,      19.15,    21.30,    17.85,    15.49,    21.97
       28.0,      19.80,    22.05,    18.48,    15.93,    22.73
       29.0,      20.39,    22.73,    19.05,    16.34,    23.44
       30.0,      20.90,    23.28,    19.52,    16.70,    24.08
       31.0,      21.30,    23.69,    19.88,    17.01,    24.63
       32.0,      21.58,    23.95,    20.09,    17.24,    25.05
       33.0,      21.74,    24.07,    20.16,    17.41,    25.34
       34.0,      21.80,    24.06,    20.10,    17.51,    25.52
       35.0,      21.75,    23.94,    19.94,    17.55,    25.58
       36.0,      21.64,    23.77,    19.70,    17.55,    25.56
       37.0,      21.49,    23.55,    19.41,    17.52,    25.48
       38.0,      21.32,    23.32,    19.10,    17.47,    25.37
       39.0,      21.14,    23.09,    18.79,    17.42,    25.26
       40.0,      20.97,    22.86,    18.49,    17.38,    25.14
       41.0,      20.80,    22.65,    18.20,    17.33,    25.03
       42.0,      20.65,    22.45,    17.93,    17.29,    24.93
       43.0,      20.50,    22.25,    17.67,    17.25,    24.83
       44.0,      20.35,    22.05,    17.41,    17.21,    24.73
       45.0,      20.21,    21.86,    17.16,    17.17,    24.63
       46.0,      20.06,    21.68,    16.92,    17.13,    24.53
       47.0,      19.93,    21.49,    16.68,    17.09,    24.44
       48.0,      19.79,    21.32,    16.45,    17.05,    24.34
       49.0,      19.66,    21.14,    16.23,    17.01,    24.25
       50.0,      19.53,    20.97,    16.01,    16.97,    24.15
       51.0,      19.40,    20.80,    15.80,    16.93,    24.06
       52.0,      19.27,    20.64,    15.59,    16.89,    23.96
       53.0,      19.15,    20.48,    15.39,    16.85,    23.87
       54.0,      19.03,    20.32,    15.20,    16.81,    23.77
       55.0,      18.91,    20.17,    15.01,    16.77,    23.68
       56.0,      18.79,    20.02,    14.82,    16.73,    23.59
       57.0,      18.68,    19.87,    14.64,    16.70,    23.50
       58.0,      18.56,    19.73,    14.46,    16.66,    23.41
       59.0,      18.45,    19.59,    14.29,    16.62,    23.31
       60.0,      18.35,    19.45,    14.13,    16.58,    23.22
       61.0,      18.24,    19.32,    13.96,    16.54,    23.13
       62.0,      18.14,    19.19,    13.80,    16.50,    23.04
       63.0,      18.03,    19.06,    13.65,    16.46,    22.96
       64.0,      17.93,    18.93,    13.50,    16.43,    22.87
       65.0,      17.83,    18.81,    13.35,    16.39,    22.78
       66.0,      17.74,    18.69,    13.21,    16.35,    22.69
       67.0,      17.64,    18.57,    13.07,    16.31,    22.60
       68.0,      17.55,    18.46,    12.94,    16.27,    22.52
       69.0,      17.45,    18.34,    12.81,    16.24,    22.43
       70.0,      17.36,    18.23,    12.68,    16.20,    22.34
       71.0,      17.27,    18.12,    12.55,    16.16,    22.26
       72.0,      17.19,    18.02,    12.43,    16.12,    22.17
       73.0,      17.10,    17.91,    12.31,    16.09,    22.09
       74.0,      17.02,    17.81,    12.20,    16.05,    22.00
       75.0,      16.93,    17.71,    12.08,    16.01,    21.92
       76.0,      16.85,    17.61,    11.98,    15.98,    21.84
       77.0,      16.77,    17.52,    11.87,    15.94,    21.75
       78.0,      16.69,    17.42,    11.76,    15.90,    21.67
       79.0,      16.61,    17.33,    11.66,    15.86,    21.59
       80.0,      16.53,    17.24,    11.56,    15.83,    21.50
       81.0,      16.46,    17.15,    11.47,    15.79,    21.42
       82.0,      16.38,    17.07,    11.37,    15.76,    21.34
       83.0,      16.31,    16.98,    11.28,    15.72,    21.26
       84.0,      16.24,    16.90,    11.19,    15.68,    21.18
       85.0,      16.17,    16.82,    11.10,    15.65,    21.10
       86.0,      16.10,    16.74,    11.02,    15.61,    21.02
       87.0,      16.03,    16.66,    10.94,    15.57,    20.94
       88.0,      15.96,    16.58,    10.86,    15.54,    20.86
       89.0,      15.89,    16.51,    10.78,    15.50,    20.78
       90.0,      15.83,    16.44,    10.70,    15.47,    20.71
       91.0,      15.76,    16.36,    10.63,    15.43,    20.63
       92.0,      15.70,    16.29,    10.55,    15.39,    20.55
       93.0,      15.63,    16.22,    10.48,    15.36,    20.48
       94.0,      15.57,    16.15,    10.41,    15.32,    20.40
       95.0,      15.51,    16.09,    10.34,    15.29,    20.32
       96.0,      15.45,    16.02,    10.28,    15.25,    20.25
       97.0,      15.39,    15.96,    10.21,    15.22,    20.17
       98.0,      15.33,    15.89,    10.15,    15.18,    20.10
       99.0,      15.27,    15.83,    10.09,    15.15,    20.02
      100.0,      15.21,    15.77,    10.03,    15.11,    19.95
      101.0,      15.16,    15.71,     9.97,    15.08,    19.87
      102.0,      15.10,    15.65,     9.91,    15.04,    19.80
      103.0,      15.05,    15.60,     9.86,    15.01,    19.73
      104.0,      14.99,    15.54,     9.80,    14.97,    19.65
      105.0,      14.94,    15.48,     9.75,    14.94,    19.58
      106.0,      14.88,    15.43,     9.70,    14.91,    19.51
      107.0,      14.83,    15.38,     9.65,    14.87,    19.44
      108.0,      14.78,    15.32,     9.60,    14.84,    19.36
      109.0,      14.73,    15.27,     9.55,    14.80,    19.29
      110.0,      14.68,    15.22,     9.50,    14.77,    19.22
      111.0,      14.63,    15.17,     9.45,    14.73,    19.15
      112.0,      14.58,    15.12,     9.41,    14.70,    19.08
      113.0,      14.53,    15.08,     9.36,    14.67,    19.01
      114.0,      14.48,    15.03,     9.32,    14.63,    18.94
      115.0,      14.43,    14.98,     9.28,    14.60,    18.87
      116.0,      14.39,    14.94,     9.24,    14.57,    18.80
      117.0,      14.34,    14.89,     9.20,    14.53,    18.74
      118.0,      14.29,    14.85,     9.16,    14.50,    18.67
      119.0,      14.25,    14.81,     9.12,    14.47,    18.60
      120.0,      14.20,    14.76,     9.08,    14.43,    18.53
      121.0,      14.16,    14.72,     9.04,    14.40,    18.46
      122.0,      14.11,    14.68,     9.01,    14.37,    18.40
      123.0,      14.07,    14.64,     8.97,    14.33,    18.33
      124.0,      14.03,    14.60,     8.94,    14.30,    18.27
      125.0,      13.98,    14.56,     8.90,    14.27,    18.20
      126.0,      13.94,    14.52,     8.87,    14.23,    18.13
      127.0,      13.90,    14.48,     8.84,    14.20,    18.07
      128.0,      13.86,    14.45,     8.81,    14.17,    18.00
      129.0,      13.81,    14.41,     8.78,    14.14,    17.94
      130.0,      13.77,    14.37,     8.75,    14.10,    17.87
      131.0,      13.73,    14.34,     8.72,    14.07,    17.81
      132.0,      13.69,    14.30,     8.69,    14.04,    17.75
      133.0,      13.65,    14.27,     8.66,    14.01,    17.68
      134.0,      13.61,    14.23,     8.63,    13.98,    17.62
      135.0,      13.58,    14.20,     8.60,    13.94,    17.56
      136.0,      13.54,    14.17,     8.58,    13.91,    17.49
      137.0,      13.50,    14.13,     8.55,    13.88,    17.43
      138.0,      13.46,    14.10,     8.52,    13.85,    17.37
      139.0,      13.42,    14.07,     8.50,    13.82,    17.31
      140.0,      13.39,    14.04,     8.47,    13.78,    17.25
      141.0,      13.35,    14.01,     8.45,    13.75,    17.18
      142.0,      13.31,    13.98,     8.42,    13.72,    17.12
      143.0,      13.28,    13.95,     8.40,    13.69,    17.06
      144.0,      13.24,    13.92,     8.38,    13.66,    17.00
      145.0,      13.20,    13.89,     8.35,    13.63,    16.94
      146.0,      13.17,    13.86,     8.33,    13.60,    16.88
      147.0,      13.13,    13.83,     8.31,    13.56,    16.82
      148.0,      13.10,    13.80,     8.29,    13.53,    16.76
      149.0,      13.06,    13.78,     8.27,    13.50,    16.70
      150.0,      13.03,    13.75,     8.25,    13.47,    16.65
      151.0,      12.99,    13.72,     8.23,    13.44,    16.59
      152.0,      12.96,    13.70,     8.21,    13.41,    16.53
      153.0,      12.93,    13.67,     8.19,    13.38,    16.47
      154.0,      12.89,    13.64,     8.17,    13.35,    16.41
      155.0,      12.86,    13.62,     8.15,    13.32,    16.36
      156.0,      12.83,    13.59,     8.13,    13.29,    16.30
      157.0,      12.80,    13.57,     8.11,    13.26,    16.24
      158.0,      12.76,    13.54,     8.09,    13.23,    16.19
      159.0,      12.73,    13.52,     8.08,    13.20,    16.13
      160.0,      12.70,    13.50,     8.06,    13.17,    16.07
      161.0,      12.67,    13.47,     8.04,    13.14,    16.02
      162.0,      12.64,    13.45,     8.03,    13.11,    15.96
      163.0,      12.60,    13.42,     8.01,    13.08,    15.91
      164.0,      12.57,    13.40,     7.99,    13.05,    15.85
      165.0,      12.54,    13.38,     7.98,    13.02,    15.80
      166.0,      12.51,    13.36,     7.96,    12.99,    15.74
      167.0,      12.48,    13.33,     7.94,    12.96,    15.69
      168.0,      12.45,    13.31,     7.93,    12.93,    15.63
      169.0,      12.42,    13.29,     7.91,    12.90,    15.58
      170.0,      12.39,    13.27,     7.90,    12.87,    15.53
      171.0,      12.36,    13.25,     7.88,    12.84,    15.47
      172.0,      12.33,    13.23,     7.87,    12.81,    15.42
      173.0,      12.30,    13.20,     7.85,    12.78,    15.37
      174.0,      12.27,    13.18,     7.84,    12.75,    15.31
      175.0,      12.24,    13.16,     7.83,    12.72,    15.26
      176.0,      12.21,    13.14,     7.81,    12.69,    15.21
      177.0,      12.19,    13.12,     7.80,    12.67,    15.16
      178.0,      12.16,    13.10,     7.79,    12.64,    15.11
      179.0,      12.13,    13.08,     7.77,    12.61,    15.05
      180.0,      12.10,    13.06,     7.76,    12.58,    15.00
      181.0,      12.07,    13.04,     7.75,    12.55,    14.95
      182.0,      12.05,    13.02,     7.73,    12.52,    14.90
      183.0,      12.02,    13.01,     7.72,    12.49,    14.85
      184.0,      11.99,    12.99,     7.71,    12.46,    14.80
      185.0,      11.96,    12.97,     7.70,    12.44,    14.75
      186.0,      11.94,    12.95,     7.68,    12.41,    14.70
      187.0,      11.91,    12.93,     7.67,    12.38,    14.65
      188.0,      11.88,    12.91,     7.66,    12.35,    14.60
      189.0,      11.85,    12.89,     7.65,    12.32,    14.55
      190.0,      11.83,    12.88,     7.64,    12.30,    14.50
      191.0,      11.80,    12.86,     7.62,    12.27,    14.45
      192.0,      11.77,    12.84,     7.61,    12.24,    14.41
      193.0,      11.75,    12.82,     7.60,    12.21,    14.36
      194.0,      11.72,    12.81,     7.59,    12.18,    14.31
      195.0,      11.70,    12.79,     7.58,    12.16,    14.26
      196.0,      11.67,    12.77,     7.57,    12.13,    14.21
      197.0,      11.64,    12.75,     7.56,    12.10,    14.17
      198.0,      11.62,    12.74,     7.55,    12.07,    14.12
      199.0,      11.59,    12.72,     7.54,    12.05,    14.07
      200.0,      11.57,    12.70,     7.53,    12.02,    14.02
      201.0,      11.54,    12.69,     7.51,    11.99,    13.98
      202.0,      11.52,    12.67,     7.50,    11.96,    13.93
      203.0,      11.49,    12.65,     7.49,    11.94,    13.89
      204.0,      11.47,    12.64,     7.48,    11.91,    13.84
      205.0,      11.44,    12.62,     7.47,    11.88,    13.79
      206.0,      11.42,    12.60,     7.46,    11.86,    13.75
      207.0,      11.39,    12.59,     7.45,    11.83,    13.70
      208.0,      11.37,    12.57,     7.44,    11.80,    13.66
      209.0,      11.34,    12.56,     7.43,    11.78,    13.61
      210.0,      11.32,    12.54,     7.42,    11.75,    13.57
      211.0,      11.30,    12.53,     7.41,    11.72,    13.52
      212.0,      11.27,    12.51,     7.40,    11.70,    13.48
      213.0,      11.25,    12.49,     7.40,    11.67,    13.43
      214.0,      11.22,    12.48,     7.39,    11.64,    13.39
      215.0,      11.20,    12.46,     7.38,    11.62,    13.34
      216.0,      11.18,    12.45,     7.37,    11.59,    13.30
      217.0,      11.15,    12.43,     7.36,    11.56,    13.26
      218.0,      11.13,    12.42,     7.35,    11.54,    13.21
      219.0,      11.11,    12.40,     7.34,    11.51,    13.17
      220.0,      11.08,    12.39,     7.33,    11.49,    13.13
      221.0,      11.06,    12.37,     7.32,    11.46,    13.09
      222.0,      11.04,    12.36,     7.31,    11.43,    13.04
      223.0,      11.01,    12.34,     7.30,    11.41,    13.00
      224.0,      10.99,    12.33,     7.29,    11.38,    12.96
      225.0,      10.97,    12.32,     7.29,    11.36,    12.92
      226.0,      10.95,    12.30,     7.28,    11.33,    12.87
      227.0,      10.92,    12.29,     7.27,    11.30,    12.83
      228.0,      10.90,    12.27,     7.26,    11.28,    12.79
      229.0,      10.88,    12.26,     7.25,    11.25,    12.75
      230.0,      10.86,    12.24,     7.24,    11.23,    12.71
      231.0,      10.83,    12.23,     7.23,    11.20,    12.67
      232.0,      10.81,    12.22,     7.23,    11.18,    12.63
      233.0,      10.79,    12.20,     7.22,    11.15,    12.59
      234.0,      10.77,    12.19,     7.21,    11.13,    12.54
      235.0,      10.74,    12.17,     7.20,    11.10,    12.50
      236.0,      10.72,    12.16,     7.19,    11.08,    12.46
      237.0,      10.70,    12.15,     7.18,    11.05,    12.42
      238.0,      10.68,    12.13,     7.18,    11.03,    12.38
      239.0,      10.66,    12.12,     7.17,    11.00,    12.34
      240.0,      10.64,    12.10,     7.16,    10.98,    12.31
      241.0,      10.61,    12.09,     7.15,    10.95,    12.27
      242.0,      10.59,    12.08,     7.14,    10.93,    12.23
      243.0,      10.57,    12.06,     7.13,    10.90,    12.19
      244.0,      10.55,    12.05,     7.13,    10.88,    12.15
      245.0,      10.53,    12.04,     7.12,    10.85,    12.11
      246.0,      10.51,    12.02,     7.11,    10.83,    12.07
      247.0,      10.49,    12.01,     7.10,    10.80,    12.03
      248.0,      10.47,    12.00,     7.09,    10.78,    12.00
      249.0,      10.45,    11.98,     7.09,    10.76,    11.96
      250.0,      10.42,    11.97,     7.08,    10.73,    11.92
      251.0,      10.40,    11.96,     7.07,    10.71,    11.88
      252.0,      10.38,    11.94,     7.06,    10.68,    11.84
      253.0,      10.36,    11.93,     7.06,    10.66,    11.81
      254.0,      10.34,    11.92,     7.05,    10.63,    11.77
      255.0,      10.32,    11.91,     7.04,    10.61,    11.73
      256.0,      10.30,    11.89,     7.03,    10.59,    11.70
      257.0,      10.28,    11.88,     7.02,    10.56,    11.66
      258.0,      10.26,    11.87,     7.02,    10.54,    11.62
      259.0,      10.24,    11.85,     7.01,    10.52,    11.59
      260.0,      10.22,    11.84,     7.00,    10.49,    11.55
      261.0,      10.20,    11.83,     6.99,    10.47,    11.51
      262.0,      10.18,    11.82,     6.99,    10.44,    11.48
      263.0,      10.16,    11.80,     6.98,    10.42,    11.44
      264.0,      10.14,    11.79,     6.97,    10.40,    11.40
      265.0,      10.12,    11.78,     6.96,    10.37,    11.37
      266.0,      10.10,    11.76,     6.96,    10.35,    11.33
      267.0,      10.08,    11.75,     6.95,    10.33,    11.30
      268.0,      10.06,    11.74,     6.94,    10.30,    11.26
      269.0,      10.04,    11.73,     6.93,    10.28,    11.23
      270.0,      10.02,    11.71,     6.93,    10.26,    11.19
      271.0,      10.00,    11.70,     6.92,    10.23,    11.16
      272.0,       9.98,    11.69,     6.91,    10.21,    11.12
      273.0,       9.97,    11.68,     6.91,    10.19,    11.09
      274.0,       9.95,    11.67,     6.90,    10.17,    11.05
      275.0,       9.93,    11.65,     6.89,    10.14,    11.02
      276.0,       9.91,    11.64,     6.88,    10.12,    10.99
      277.0,       9.89,    11.63,     6.88,    10.10,    10.95
      278.0,       9.87,    11.62,     6.87,    10.07,    10.92
      279.0,       9.85,    11.60,     6.86,    10.05,    10.89
      280.0,       9.83,    11.59,     6.85,    10.03,    10.85
      281.0,       9.81,    11.58,     6.85,    10.01,    10.82
      282.0,       9.79,    11.57,     6.84,     9.98,    10.79
      283.0,       9.78,    11.56,     6.83,     9.96,    10.75
      284.0,       9.76,    11.54,     6.83,     9.94,    10.72
      285.0,       9.74,    11.53,     6.82,     9.92,    10.69
      286.0,       9.72,    11.52,     6.81,     9.89,    10.65
      287.0,       9.70,    11.51,     6.80,     9.87,    10.62
      288.0,       9.68,    11.50,     6.80,     9.85,    10.59
      289.0,       9.66,    11.48,     6.79,     9.83,    10.56
      290.0,       9.65,    11.47,     6.78,     9.81,    10.52
      291.0,       9.63,    11.46,     6.78,     9.78,    10.49
      292.0,       9.61,    11.45,     6.77,     9.76,    10.46
      293.0,       9.59,    11.44,     6.76,     9.74,    10.43
      294.0,       9.57,    11.42,     6.76,     9.72,    10.40
      295.0,       9.56,    11.41,     6.75,     9.70,    10.36
      296.0,       9.54,    11.40,     6.74,     9.67,    10.33
      297.0,       9.52,    11.39,     6.73,     9.65,    10.30
      298.0,       9.50,    11.38,     6.73,     9.63,    10.27
      299.0,       9.48,    11.36,     6.72,     9.61,    10.24
      300.0,       9.47,    11.35,     6.71,     9.59,    10.21
      301.0,       9.45,    11.34,     6.71,     9.57,    10.18
      302.0,       9.43,    11.33,     6.70,     9.54,    10.15
      303.0,       9.41,    11.32,     6.69,     9.52,    10.12
      304.0,       9.40,    11.31,     6.69,     9.50,    10.09
      305.0,       9.38,    11.29,     6.68,     9.48,    10.06
      306.0,       9.36,    11.28,     6.67,     9.46,    10.03
      307.0,       9.34,    11.27,     6.67,     9.44,    10.00
      308.0,       9.33,    11.26,     6.66,     9.42,     9.97
      309.0,       9.31,    11.25,     6.65,     9.40,     9.94
      310.0,       9.29,    11.24,     6.65,     9.37,     9.91
