Radius (km), Mean (m/s), NE (m/s), SE (m/s), SW (m/s), NW (m/s)
        0.0,       0.00,     0.00,     0.00,     0.00,     0.00
        1.0,       1.90,     1.83,     1.90,     1.97,     1.90
        2.0,       3.38,     3.31,     3.38,     3.46,     3.38
        3.0,       4.74,     4.67,     4.74,     4.81,     4.74
        4.0,       6.02,     5.97,     6.03,     6.07,     6.03
        5.0,       7.25,     7.22,     7.26,     7.28,     7.26
        6.0,       8.44,     8.44,     8.45,     8.44,     8.45
        7.0,       9.60,     9.62,     9.60,     9.57,     9.60
        8.0,      10.73,    10.78,    10.73,    10.67,    10.73
        9.0,      11.83,    11.92,    11.84,    11.74,    11.84
       10.0,      12.92,    13.04,    12.92,    12.79,    12.92
       11.0,      13.98,    14.14,    13.99,    13.82,    13.99
       12.0,      15.03,    15.23,    15.04,    14.83,    15.04
       13.0,      16.07,    16.31,    16.07,    15.82,    16.07
       14.0,      17.09,    17.37,    17.10,    16.81,    17.10
       15.0,      18.10,    18.42,    18.11,    17.78,    18.11
       16.0,      19.10,    19.47,    19.11,    18.73,    19.11
       17.0,      20.09,    20.50,    20.10,    19.68,    20.10
       18.0,      21.07,    21.52,    21.08,    20.61,    21.08
       19.0,      22.04,    22.54,    22.05,    21.54,    22.05
       20.0,      23.00,    23.54,    23.01,    22.46,    23.01
       21.0,      23.96,    24.54,    23.96,    23.36,    23.96
       22.0,      24.91,    25.54,    24.91,    24.27,    24.91
       23.0,      25.87,    26.56,    25.87,    25.17,    25.86
       24.0,      26.86,    27.63,    26.88,    26.10,    26.85
       25.0,      27.93,    28.79,    27.95,    27.09,    27.91
       26.0,      29.10,    30.06,    29.10,    28.16,    29.06
       27.0,      30.36,    31.42,    30.35,    29.33,    30.32
       28.0,      31.69,    32.87,    31.66,    30.58,    31.66
       29.0,      33.05,    34.32,    32.98,    31.88,    33.03
       30.0,      34.38,    35.73,    34.27,    33.15,    34.39
       31.0,      35.61,    37.01,    35.46,    34.34,    35.64
       32.0,      36.67,    38.10,    36.49,    35.38,    36.73
       33.0,      37.51,    38.95,    37.31,    36.20,    37.58
       34.0,      38.10,    39.53,    37.91,    36.78,    38.18
       35.0,      38.44,    39.85,    38.28,    37.10,    38.50
       36.0,      38.53,    39.93,    38.44,    37.19,    38.58
       37.0,      38.44,    39.81,    38.43,    37.06,    38.44
       38.0,      38.19,    39.56,    38.30,    36.78,    38.14
       39.0,      37.87,    39.23,    38.08,    36.40,    37.75
       40.0,      37.50,    38.87,    37.84,    35.98,    37.31
       41.0,      37.13,    38.51,    37.59,    35.55,    36.87
       42.0,      36.78,    38.18,    37.36,    35.14,    36.45
       43.0,      36.46,    37.86,    37.14,    34.76,    36.06
       44.0,      36.15,    37.57,    36.94,    34.40,    35.70
       45.0,      35.86,    37.28,    36.74,    34.06,    35.35
       46.0,      35.57,    37.00,    36.55,    33.73,    35.01
       47.0,      35.30,    36.73,    36.36,    33.41,    34.68
       48.0,      35.03,    36.47,    36.17,    33.10,    34.37
       49.0,      34.77,    36.22,    35.99,    32.80,    34.06
       50.0,      34.51,    35.97,    35.81,    32.51,    33.76
       51.0,      34.26,    35.72,    35.64,    32.23,    33.46
       52.0,      34.02,    35.49,    35.46,    31.95,    33.18
       53.0,      33.78,    35.26,    35.29,    31.68,    32.90
       54.0,      33.55,    35.03,    35.13,    31.42,    32.63
       55.0,      33.33,    34.81,    34.96,    31.16,    32.37
       56.0,      33.11,    34.60,    34.80,    30.91,    32.12
       57.0,      32.89,    34.39,    34.64,    30.67,    31.87
       58.0,      32.68,    34.19,    34.48,    30.43,    31.63
       59.0,      32.48,    33.99,    34.33,    30.20,    31.39
       60.0,      32.28,    33.80,    34.18,    29.98,    31.16
       61.0,      32.08,    33.61,    34.03,    29.76,    30.94
       62.0,      31.89,    33.42,    33.88,    29.54,    30.72
       63.0,      31.70,    33.24,    33.73,    29.33,    30.51
       64.0,      31.52,    33.07,    33.59,    29.13,    30.30
       65.0,      31.34,    32.89,    33.45,    28.93,    30.10
       66.0,      31.17,    32.72,    33.31,    28.73,    29.90
       67.0,      30.99,    32.56,    33.17,    28.54,    29.70
       68.0,      30.82,    32.40,    33.03,    28.36,    29.51
       69.0,      30.66,    32.24,    32.90,    28.17,    29.33
       70.0,      30.50,    32.08,    32.77,    28.00,    29.15
       71.0,      30.34,    31.93,    32.63,    27.82,    28.97
       72.0,      30.18,    31.78,    32.50,    27.65,    28.80
       73.0,      30.03,    31.63,    32.38,    27.48,    28.63
       74.0,      29.88,    31.49,    32.25,    27.32,    28.46
       75.0,      29.73,    31.34,    32.12,    27.16,    28.30
       76.0,      29.58,    31.20,    32.00,    27.00,    28.14
       77.0,      29.44,    31.07,    31.88,    26.84,    27.98
       78.0,      29.30,    30.93,    31.75,    26.69,    27.82
       79.0,      29.16,    30.80,    31.63,    26.54,    27.67
       80.0,      29.03,    30.67,    31.52,    26.40,    27.53
       81.0,      28.89,    30.54,    31.40,    26.25,    27.38
       82.0,      28.76,    30.42,    31.28,    26.11,    27.24
       83.0,      28.63,    30.29,    31.16,    25.97,    27.10
       84.0,      28.50,    30.17,    31.05,    25.84,    26.96
       85.0,      28.38,    30.05,    30.94,    25.70,    26.82
       86.0,      28.25,    29.93,    30.82,    25.57,    26.69
       87.0,      28.13,    29.82,    30.71,    25.44,    26.56
       88.0,      28.01,    29.70,    30.60,    25.31,    26.43
       89.0,      27.89,    29.59,    30.49,    25.19,    26.30
       90.0,      27.77,    29.48,    30.38,    25.06,    26.18
       91.0,      27.66,    29.37,    30.27,    24.94,    26.05
       92.0,      27.54,    29.26,    30.17,    24.82,    25.93
       93.0,      27.43,    29.15,    30.06,    24.70,    25.81
       94.0,      27.32,    29.04,    29.95,    24.58,    25.70
       95.0,      27.21,    28.94,    29.85,    24.47,    25.58
       96.0,      27.10,    28.84,    29.75,    24.35,    25.47
       97.0,      26.99,    28.73,    29.64,    24.24,    25.35
       98.0,      26.89,    28.63,    29.54,    24.13,    25.24
       99.0,      26.78,    28.53,    29.44,    24.02,    25.13
      100.0,      26.68,    28.43,    29.34,    23.91,    25.02
      101.0,      26.57,    28.34,    29.24,    23.81,    24.92
      102.0,      26.47,    28.24,    29.14,    23.70,    24.81
      103.0,      26.37,    28.14,    29.04,    23.60,    24.70
      104.0,      26.27,    28.05,    28.94,    23.49,    24.60
      105.0,      26.17,    27.95,    28.84,    23.39,    24.50
      106.0,      26.07,    27.86,    28.74,    23.29,    24.40
      107.0,      25.98,    27.77,    28.64,    23.19,    24.30
      108.0,      25.88,    27.68,    28.55,    23.09,    24.20
      109.0,      25.78,    27.59,    28.45,    22.99,    24.10
      110.0,      25.69,    27.50,    28.36,    22.90,    24.00
      111.0,      25.60,    27.41,    28.26,    22.80,    23.91
      112.0,      25.50,    27.32,    28.17,    22.71,    23.81
      113.0,      25.41,    27.23,    28.08,    22.61,    23.72
      114.0,      25.32,    27.15,    27.98,    22.52,    23.63
      115.0,      25.23,    27.06,    27.89,    22.43,    23.53
      116.0,      25.14,    26.98,    27.80,    22.34,    23.44
      117.0,      25.05,    26.89,    27.71,    22.25,    23.35
      118.0,      24.96,    26.81,    27.61,    22.16,    23.26
      119.0,      24.87,    26.72,    27.52,    22.07,    23.17
      120.0,      24.78,    26.64,    27.43,    21.98,    23.09
      121.0,      24.70,    26.56,    27.34,    21.89,    23.00
      122.0,      24.61,    26.48,    27.25,    21.81,    22.91
      123.0,      24.53,    26.40,    27.16,    21.72,    22.83
      124.0,      24.44,    26.31,    27.08,    21.64,    22.74
      125.0,      24.36,    26.23,    26.99,    21.55,    22.66
      126.0,      24.27,    26.15,    26.90,    21.47,    22.57
      127.0,      24.19,    26.08,    26.81,    21.38,    22.49
      128.0,      24.11,    26.00,    26.73,    21.30,    22.41
      129.0,      24.03,    25.92,    26.64,    21.22,    22.32
      130.0,      23.94,    25.84,    26.55,    21.14,    22.24
      131.0,      23.86,    25.76,    26.47,    21.06,    22.16
      132.0,      23.78,    25.69,    26.38,    20.98,    22.08
      133.0,      23.70,    25.61,    26.30,    20.90,    22.00
      134.0,      23.62,    25.54,    26.21,    20.82,    21.92
      135.0,      23.54,    25.46,    26.13,    20.74,    21.84
      136.0,      23.46,    25.39,    26.04,    20.66,    21.76
      137.0,      23.38,    25.31,    25.96,    20.58,    21.69
      138.0,      23.31,    25.24,    25.88,    20.51,    21.61
      139.0,      23.23,    25.16,    25.79,    20.43,    21.53
      140.0,      23.15,    25.09,    25.71,    20.35,    21.45
      141.0,      23.07,    25.02,    25.63,    20.28,    21.38
      142.0,      23.00,    24.94,    25.55,    20.20,    21.30
      143.0,      22.92,    24.87,    25.46,    20.13,    21.23
      144.0,      22.85,    24.80,    25.38,    20.05,    21.15
      145.0,      22.77,    24.73,    25.30,    19.98,    21.08
      146.0,      22.70,    24.65,    25.22,    19.90,    21.01
      147.0,      22.62,    24.58,    25.14,    19.83,    20.93
      148.0,      22.55,    24.51,    25.06,    19.76,    20.86
      149.0,      22.47,    24.44,    24.98,    19.68,    20.79
      150.0,      22.40,    24.37,    24.90,    19.61,    20.71
      151.0,      22.33,    24.30,    24.82,    19.54,    20.64
      152.0,      22.25,    24.23,    24.74,    19.47,    20.57
      153.0,      22.18,    24.16,    24.66,    19.40,    20.50
      154.0,      22.11,    24.09,    24.59,    19.33,    20.43
      155.0,      22.04,    24.03,    24.51,    19.26,    20.36
      156.0,      21.97,    23.96,    24.43,    19.19,    20.29
      157.0,      21.89,    23.89,    24.35,    19.12,    20.22
      158.0,      21.82,    23.82,    24.28,    19.05,    20.15
      159.0,      21.75,    23.75,    24.20,    18.98,    20.08
      160.0,      21.68,    23.69,    24.12,    18.91,    20.01
      161.0,      21.61,    23.62,    24.05,    18.84,    19.94
      162.0,      21.54,    23.55,    23.97,    18.77,    19.87
      163.0,      21.47,    23.49,    23.89,    18.71,    19.81
      164.0,      21.40,    23.42,    23.82,    18.64,    19.74
      165.0,      21.33,    23.35,    23.74,    18.57,    19.67
      166.0,      21.27,    23.29,    23.67,    18.51,    19.60
      167.0,      21.20,    23.22,    23.59,    18.44,    19.54
      168.0,      21.13,    23.16,    23.52,    18.37,    19.47
      169.0,      21.06,    23.09,    23.44,    18.31,    19.41
      170.0,      20.99,    23.03,    23.37,    18.24,    19.34
      171.0,      20.93,    22.96,    23.30,    18.18,    19.27
      172.0,      20.86,    22.90,    23.22,    18.11,    19.21
      173.0,      20.79,    22.83,    23.15,    18.05,    19.14
      174.0,      20.73,    22.77,    23.08,    17.98,    19.08
      175.0,      20.66,    22.70,    23.00,    17.92,    19.01
      176.0,      20.59,    22.64,    22.93,    17.86,    18.95
      177.0,      20.53,    22.58,    22.86,    17.79,    18.89
      178.0,      20.46,    22.51,    22.79,    17.73,    18.82
      179.0,      20.40,    22.45,    22.72,    17.67,    18.76
      180.0,      20.33,    22.39,    22.64,    17.60,    18.70
      181.0,      20.27,    22.33,    22.57,    17.54,    18.63
      182.0,      20.20,    22.26,    22.50,    17.48,    18.57
      183.0,      20.14,    22.20,    22.43,    17.42,    18.51
      184.0,      20.07,    22.14,    22.36,    17.35,    18.45
      185.0,      20.01,    22.08,    22.29,    17.29,    18.38
      186.0,      19.95,    22.02,    22.22,    17.23,    18.32
      187.0,      19.88,    21.95,    22.15,    17.17,    18.26
      188.0,      19.82,    21.89,    22.08,    17.11,    18.20
      189.0,      19.76,    21.83,    22.01,    17.05,    18.14
      190.0,      19.69,    21.77,    21.94,    16.99,    18.08
      191.0,      19.63,    21.71,    21.87,    16.93,    18.02
      192.0,      19.57,    21.65,    21.80,    16.87,    17.96
      193.0,      19.51,    21.59,    21.73,    16.81,    17.90
      194.0,      19.45,    21.53,    21.67,    16.75,    17.84
      195.0,      19.38,    21.47,    21.60,    16.69,    17.78
      196.0,      19.32,    21.41,    21.53,    16.63,    17.72
      197.0,      19.26,    21.35,    21.46,    16.57,    17.66
      198.0,      19.20,    21.29,    21.39,    16.51,    17.60
      199.0,      19.14,    21.23,    21.33,    16.46,    17.54
      200.0,      19.08,    21.17,    21.26,    16.40,    17.48
      201.0,      19.02,    21.11,    21.19,    16.34,    17.42
      202.0,      18.96,    21.06,    21.13,    16.28,    17.37
      203.0,      18.90,    21.00,    21.06,    16.23,    17.31
      204.0,      18.84,    20.94,    20.99,    16.17,    17.25
      205.0,      18.78,    20.88,    20.93,    16.11,    17.19
      206.0,      18.72,    20.82,    20.86,    16.05,    17.13
      207.0,      18.66,    20.77,    20.80,    16.00,    17.08
      208.0,      18.60,    20.71,    20.73,    15.94,    17.02
      209.0,      18.54,    20.65,    20.67,    15.89,    16.96
      210.0,      18.48,    20.59,    20.60,    15.83,    16.91
      211.0,      18.42,    20.54,    20.54,    15.77,    16.85
      212.0,      18.37,    20.48,    20.47,    15.72,    16.80
      213.0,      18.31,    20.42,    20.41,    15.66,    16.74
      214.0,      18.25,    20.37,    20.34,    15.61,    16.68
      215.0,      18.19,    20.31,    20.28,    15.55,    16.63
      216.0,      18.14,    20.25,    20.22,    15.50,    16.57
      217.0,      18.08,    20.20,    20.15,    15.44,    16.52
      218.0,      18.02,    20.14,    20.09,    15.39,    16.46
      219.0,      17.96,    20.09,    20.03,    15.34,    16.41
      220.0,      17.91,    20.03,    19.96,    15.28,    16.35
      221.0,      17.85,    19.97,    19.90,    15.23,    16.30
      222.0,      17.79,    19.92,    19.84,    15.18,    16.24
      223.0,      17.74,    19.86,    19.78,    15.12,    16.19
      224.0,      17.68,    19.81,    19.72,    15.07,    16.14
      225.0,      17.63,    19.75,    19.65,    15.02,    16.08
      226.0,      17.57,    19.70,    19.59,    14.96,    16.03
      227.0,      17.52,    19.64,    19.53,    14.91,    15.98
      228.0,      17.46,    19.59,    19.47,    14.86,    15.92
      229.0,      17.41,    19.54,    19.41,    14.81,    15.87
      230.0,      17.35,    19.48,    19.35,    14.75,    15.82
      231.0,      17.30,    19.43,    19.29,    14.70,    15.77
      232.0,      17.24,    19.37,    19.23,    14.65,    15.71
      233.0,      17.19,    19.32,    19.17,    14.60,    15.66
      234.0,      17.13,    19.27,    19.11,    14.55,    15.61
      235.0,      17.08,    19.21,    19.05,    14.50,    15.56
      236.0,      17.02,    19.16,    18.99,    14.45,    15.51
      237.0,      16.97,    19.11,    18.93,    14.40,    15.45
      238.0,      16.92,    19.06,    18.87,    14.35,    15.40
      239.0,      16.86,    19.00,    18.81,    14.30,    15.35
      240.0,      16.81,    18.95,    18.75,    14.25,    15.30
      241.0,      16.76,    18.90,    18.69,    14.20,    15.25
      242.0,      16.71,    18.85,    18.63,    14.15,    15.20
      243.0,      16.65,    18.79,    18.57,    14.10,    15.15
      244.0,      16.60,    18.74,    18.51,    14.05,    15.10
      245.0,      16.55,    18.69,    18.46,    14.00,    15.05
      246.0,      16.50,    18.64,    18.40,    13.95,    15.00
      247.0,      16.44,    18.59,    18.34,    13.90,    14.95
      248.0,      16.39,    18.54,    18.28,    13.85,    14.90
      249.0,      16.34,    18.48,    18.23,    13.80,    14.85
      250.0,      16.29,    18.43,    18.17,    13.75,    14.80
      251.0,      16.24,    18.38,    18.11,    13.71,    14.75
      252.0,      16.19,    18.33,    18.06,    13.66,    14.70
      253.0,      16.14,    18.28,    18.00,    13.61,    14.65
      254.0,      16.08,    18.23,    17.94,    13.56,    14.61
      255.0,      16.03,    18.18,    17.89,    13.51,    14.56
      256.0,      15.98,    18.13,    17.83,    13.47,    14.51
      257.0,      15.93,    18.08,    17.77,    13.42,    14.46
      258.0,      15.88,    18.03,    17.72,    13.37,    14.41
      259.0,      15.83,    17.98,    17.66,    13.33,    14.36
      260.0,      15.78,    17.93,    17.61,    13.28,    14.32
      261.0,      15.73,    17.88,    17.55,    13.23,    14.27
      262.0,      15.68,    17.83,    17.50,    13.19,    14.22
      263.0,      15.63,    17.78,    17.44,    13.14,    14.18
      264.0,      15.59,    17.73,    17.39,    13.09,    14.13
      265.0,      15.54,    17.68,    17.33,    13.05,    14.08
      266.0,      15.49,    17.63,    17.28,    13.00,    14.03
      267.0,      15.44,    17.59,    17.22,    12.96,    13.99
      268.0,      15.39,    17.54,    17.17,    12.91,    13.94
      269.0,      15.34,    17.49,    17.12,    12.87,    13.90
      270.0,      15.29,    17.44,    17.06,    12.82,    13.85
      271.0,      15.25,    17.39,    17.01,    12.78,    13.80
      272.0,      15.20,    17.34,    16.96,    12.73,    13.76
      273.0,      15.15,    17.30,    16.90,    12.69,    13.71
      274.0,      15.10,    17.25,    16.85,    12.64,    13.67
      275.0,      15.05,    17.20,    16.80,    12.60,    13.62
      276.0,      15.01,    17.15,    16.74,    12.55,    13.58
      277.0,      14.96,    17.11,    16.69,    12.51,    13.53
      278.0,      14.91,    17.06,    16.64,    12.47,    13.49
      279.0,      14.87,    17.01,    16.59,    12.42,    13.44
      280.0,      14.82,    16.97,    16.54,    12.38,    13.40
      281.0,      14.77,    16.92,    16.48,    12.34,    13.35
      282.0,      14.73,    16.87,    16.43,    12.29,    13.31
      283.0,      14.68,    16.83,    16.38,    12.25,    13.26
      284.0,      14.63,    16.78,    16.33,    12.21,    13.22
      285.0,      14.59,    16.73,    16.28,    12.16,    13.18
      286.0,      14.54,    16.69,    16.23,    12.12,    13.13
      287.0,      14.50,    16.64,    16.18,    12.08,    13.09
      288.0,      14.45,    16.59,    16.13,    12.04,    13.05
      289.0,      14.41,    16.55,    16.07,    12.00,    13.00
      290.0,      14.36,    16.50,    16.02,    11.95,    12.96
      291.0,      14.31,    16.46,    15.97,    11.91,    12.92
      292.0,      14.27,    16.41,    15.92,    11.87,    12.87
      293.0,      14.23,    16.37,    15.87,    11.83,    12.83
      294.0,      14.18,    16.32,    15.82,    11.79,    12.79
      295.0,      14.14,    16.28,    15.77,    11.75,    12.75
      296.0,      14.09,    16.23,    15.73,    11.70,    12.70
      297.0,      14.05,    16.19,    15.68,    11.66,    12.66
      298.0,      14.00,    16.14,    15.63,    11.62,    12.62
      299.0,      13.96,    16.10,    15.58,    11.58,    12.58
      300.0,      13.92,    16.05,    15.53,    11.54,    12.54
      301.0,      13.87,    16.01,    15.48,    11.50,    12.50
      302.0,      13.83,    15.96,    15.43,    11.46,    12.45
      303.0,      13.78,    15.92,    15.38,    11.42,    12.41
      304.0,      13.74,    15.88,    15.34,    11.38,    12.37
      305.0,      13.70,    15.83,    15.29,    11.34,    12.33
      306.0,      13.65,    15.79,    15.24,    11.30,    12.29
      307.0,      13.61,    15.74,    15.19,    11.26,    12.25
      308.0,      13.57,    15.70,    15.14,    11.22,    12.21
      309.0,      13.53,    15.66,    15.10,    11.18,    12.17
      310.0,      13.48,    15.61,    15.05,    11.14,    12.13
