Radius (km), Mean (m/s), NE (m/s), SE (m/s), SW (m/s), NW (m/s)
        0.0,       0.00,     0.00,     0.00,     0.00,     0.00
        1.0,       2.26,     2.23,     2.29,     2.28,     2.23
        2.0,       3.47,     3.52,     3.46,     3.37,     3.52
        3.0,       4.46,     4.59,     4.42,     4.23,     4.59
        4.0,       5.33,     5.55,     5.25,     4.98,     5.55
        5.0,       6.12,     6.42,     6.00,     5.65,     6.42
        6.0,       6.86,     7.24,     6.69,     6.26,     7.24
        7.0,       7.55,     8.02,     7.34,     6.83,     8.02
        8.0,       8.21,     8.75,     7.95,     7.37,     8.75
        9.0,       8.83,     9.46,     8.53,     7.87,     9.46
       10.0,       9.43,    10.14,     9.09,     8.35,    10.14
       11.0,      10.01,    10.79,     9.62,     8.82,    10.79
       12.0,      10.56,    11.43,    10.14,     9.26,    11.43
       13.0,      11.10,    12.05,    10.64,     9.69,    12.05
       14.0,      11.63,    12.65,    11.12,    10.10,    12.65
       15.0,      12.14,    13.24,    11.59,    10.50,    13.24
       16.0,      12.64,    13.81,    12.05,    10.89,    13.81
       17.0,      13.13,    14.37,    12.49,    11.27,    14.37
       18.0,      13.60,    14.92,    12.93,    11.64,    14.92
       19.0,      14.07,    15.46,    13.36,    12.00,    15.46
       20.0,      14.53,    15.99,    13.77,    12.35,    15.99
       21.0,      14.98,    16.52,    14.18,    12.70,    16.51
       22.0,      15.43,    17.05,    14.59,    13.04,    17.03
       23.0,      15.88,    17.60,    15.00,    13.38,    17.54
       24.0,      16.37,    18.20,    15.45,    13.75,    18.07
       25.0,      16.89,    18.86,    15.95,    14.14,    18.62
       26.0,      17.47,    19.59,    16.50,    14.57,    19.21
       27.0,      18.08,    20.36,    17.11,    15.03,    19.83
       28.0,      18.72,    21.15,    17.75,    15.51,    20.49
       29.0,      19.36,    21.92,    18.40,    15.99,    21.15
       30.0,      19.97,    22.63,    19.01,    16.44,    21.79
       31.0,      20.50,    23.24,    19.54,    16.85,    22.38
       32.0,      20.94,    23.72,    19.95,    17.18,    22.90
       33.0,      21.26,    24.05,    20.23,    17.42,    23.33
       34.0,      21.45,    24.22,    20.35,    17.57,    23.65
       35.0,      21.52,    24.26,    20.33,    17.62,    23.86
       36.0,      21.48,    24.17,    20.19,    17.59,    23.97
       37.0,      21.36,    24.00,    19.94,    17.50,    23.99
       38.0,      21.18,    23.77,    19.63,    17.36,    23.95
       39.0,      20.96,    23.51,    19.28,    17.19,    23.87
       40.0,      20.74,    23.25,    18.92,    17.02,    23.78
       41.0,      20.52,    22.99,    18.57,    16.86,    23.68
       42.0,      20.32,    22.75,    18.23,    16.70,    23.58
       43.0,      20.12,    22.52,    17.92,    16.55,    23.49
       44.0,      19.93,    22.29,    17.62,    16.41,    23.41
       45.0,      19.75,    22.07,    17.32,    16.28,    23.33
       46.0,      19.57,    21.86,    17.04,    16.15,    23.25
       47.0,      19.40,    21.65,    16.77,    16.02,    23.17
       48.0,      19.23,    21.45,    16.50,    15.90,    23.09
       49.0,      19.07,    21.25,    16.24,    15.78,    23.00
       50.0,      18.91,    21.06,    15.99,    15.67,    22.92
       51.0,      18.76,    20.87,    15.75,    15.56,    22.85
       52.0,      18.60,    20.68,    15.52,    15.45,    22.77
       53.0,      18.46,    20.50,    15.29,    15.35,    22.69
       54.0,      18.31,    20.33,    15.07,    15.25,    22.61
       55.0,      18.17,    20.16,    14.86,    15.15,    22.53
       56.0,      18.04,    19.99,    14.65,    15.06,    22.45
       57.0,      17.90,    19.83,    14.45,    14.97,    22.37
       58.0,      17.77,    19.67,    14.25,    14.88,    22.30
       59.0,      17.65,    19.52,    14.07,    14.79,    22.22
       60.0,      17.53,    19.37,    13.88,    14.71,    22.14
       61.0,      17.41,    19.22,    13.71,    14.63,    22.07
       62.0,      17.29,    19.08,    13.53,    14.55,    21.99
       63.0,      17.17,    18.94,    13.37,    14.47,    21.92
       64.0,      17.06,    18.80,    13.21,    14.40,    21.84
       65.0,      16.95,    18.67,    13.05,    14.33,    21.76
       66.0,      16.85,    18.54,    12.90,    14.26,    21.69
       67.0,      16.74,    18.41,    12.75,    14.19,    21.62
       68.0,      16.64,    18.29,    12.61,    14.12,    21.54
       69.0,      16.54,    18.17,    12.47,    14.06,    21.47
       70.0,      16.44,    18.05,    12.33,    13.99,    21.39
       71.0,      16.35,    17.94,    12.20,    13.93,    21.32
       72.0,      16.26,    17.82,    12.08,    13.87,    21.25
       73.0,      16.17,    17.71,    11.96,    13.82,    21.18
       74.0,      16.08,    17.61,    11.84,    13.76,    21.10
       75.0,      15.99,    17.50,    11.72,    13.71,    21.03
       76.0,      15.91,    17.40,    11.61,    13.65,    20.96
       77.0,      15.82,    17.30,    11.50,    13.60,    20.89
       78.0,      15.74,    17.20,    11.40,    13.55,    20.82
       79.0,      15.66,    17.11,    11.29,    13.50,    20.75
       80.0,      15.58,    17.02,    11.19,    13.45,    20.68
       81.0,      15.51,    16.93,    11.10,    13.40,    20.61
       82.0,      15.43,    16.84,    11.00,    13.36,    20.54
       83.0,      15.36,    16.75,    10.91,    13.31,    20.47
       84.0,      15.29,    16.67,    10.83,    13.27,    20.40
       85.0,      15.22,    16.58,    10.74,    13.22,    20.33
       86.0,      15.15,    16.50,    10.66,    13.18,    20.26
       87.0,      15.08,    16.42,    10.58,    13.14,    20.19
       88.0,      15.02,    16.35,    10.50,    13.10,    20.12
       89.0,      14.95,    16.27,    10.42,    13.06,    20.05
       90.0,      14.89,    16.20,    10.35,    13.02,    19.99
       91.0,      14.83,    16.13,    10.28,    12.98,    19.92
       92.0,      14.76,    16.05,    10.21,    12.94,    19.85
       93.0,      14.70,    15.99,    10.14,    12.91,    19.79
       94.0,      14.65,    15.92,    10.07,    12.87,    19.72
       95.0,      14.59,    15.85,    10.01,    12.84,    19.65
       96.0,      14.53,    15.79,     9.95,    12.80,    19.59
       97.0,      14.47,    15.72,     9.88,    12.77,    19.52
       98.0,      14.42,    15.66,     9.83,    12.73,    19.46
       99.0,      14.37,    15.60,     9.77,    12.70,    19.39
      100.0,      14.31,    15.54,     9.71,    12.67,    19.33
      101.0,      14.26,    15.48,     9.66,    12.63,    19.26
      102.0,      14.21,    15.43,     9.61,    12.60,    19.20
      103.0,      14.16,    15.37,     9.55,    12.57,    19.13
      104.0,      14.11,    15.32,     9.50,    12.54,    19.07
      105.0,      14.06,    15.26,     9.46,    12.51,    19.01
      106.0,      14.01,    15.21,     9.41,    12.48,    18.94
      107.0,      13.96,    15.16,     9.36,    12.45,    18.88
      108.0,      13.92,    15.11,     9.32,    12.42,    18.82
      109.0,      13.87,    15.06,     9.27,    12.39,    18.76
      110.0,      13.83,    15.01,     9.23,    12.37,    18.69
      111.0,      13.78,    14.96,     9.19,    12.34,    18.63
      112.0,      13.74,    14.92,     9.15,    12.31,    18.57
      113.0,      13.69,    14.87,     9.11,    12.28,    18.51
      114.0,      13.65,    14.83,     9.07,    12.26,    18.45
      115.0,      13.61,    14.78,     9.04,    12.23,    18.39
      116.0,      13.57,    14.74,     9.00,    12.20,    18.33
      117.0,      13.53,    14.70,     8.96,    12.18,    18.26
      118.0,      13.49,    14.66,     8.93,    12.15,    18.20
      119.0,      13.45,    14.62,     8.90,    12.13,    18.14
      120.0,      13.41,    14.58,     8.86,    12.10,    18.09
      121.0,      13.37,    14.54,     8.83,    12.08,    18.03
      122.0,      13.33,    14.50,     8.80,    12.05,    17.97
      123.0,      13.29,    14.46,     8.77,    12.03,    17.91
      124.0,      13.25,    14.42,     8.74,    12.00,    17.85
      125.0,      13.22,    14.39,     8.71,    11.98,    17.79
      126.0,      13.18,    14.35,     8.68,    11.96,    17.73
      127.0,      13.14,    14.32,     8.65,    11.93,    17.67
      128.0,      13.11,    14.28,     8.63,    11.91,    17.62
      129.0,      13.07,    14.25,     8.60,    11.89,    17.56
      130.0,      13.04,    14.21,     8.57,    11.86,    17.50
      131.0,      13.00,    14.18,     8.55,    11.84,    17.44
      132.0,      12.97,    14.15,     8.52,    11.82,    17.39
      133.0,      12.94,    14.12,     8.50,    11.80,    17.33
      134.0,      12.90,    14.08,     8.48,    11.77,    17.27
      135.0,      12.87,    14.05,     8.45,    11.75,    17.22
      136.0,      12.84,    14.02,     8.43,    11.73,    17.16
      137.0,      12.80,    13.99,     8.41,    11.71,    17.11
      138.0,      12.77,    13.96,     8.39,    11.69,    17.05
      139.0,      12.74,    13.94,     8.37,    11.66,    17.00
      140.0,      12.71,    13.91,     8.34,    11.64,    16.94
      141.0,      12.68,    13.88,     8.32,    11.62,    16.89
      142.0,      12.65,    13.85,     8.30,    11.60,    16.83
      143.0,      12.62,    13.82,     8.28,    11.58,    16.78
      144.0,      12.59,    13.80,     8.27,    11.56,    16.72
      145.0,      12.56,    13.77,     8.25,    11.54,    16.67
      146.0,      12.53,    13.74,     8.23,    11.52,    16.61
      147.0,      12.50,    13.72,     8.21,    11.50,    16.56
      148.0,      12.47,    13.69,     8.19,    11.48,    16.51
      149.0,      12.44,    13.67,     8.17,    11.46,    16.45
      150.0,      12.41,    13.64,     8.16,    11.44,    16.40
      151.0,      12.38,    13.62,     8.14,    11.42,    16.35
      152.0,      12.35,    13.59,     8.12,    11.40,    16.30
      153.0,      12.32,    13.57,     8.11,    11.38,    16.24
      154.0,      12.30,    13.55,     8.09,    11.36,    16.19
      155.0,      12.27,    13.52,     8.08,    11.34,    16.14
      156.0,      12.24,    13.50,     8.06,    11.32,    16.09
      157.0,      12.21,    13.48,     8.04,    11.30,    16.04
      158.0,      12.19,    13.46,     8.03,    11.28,    15.99
      159.0,      12.16,    13.43,     8.02,    11.26,    15.94
      160.0,      12.13,    13.41,     8.00,    11.24,    15.88
      161.0,      12.11,    13.39,     7.99,    11.22,    15.83
      162.0,      12.08,    13.37,     7.97,    11.20,    15.78
      163.0,      12.05,    13.35,     7.96,    11.18,    15.73
      164.0,      12.03,    13.33,     7.94,    11.16,    15.68
      165.0,      12.00,    13.31,     7.93,    11.14,    15.63
      166.0,      11.98,    13.28,     7.92,    11.12,    15.58
      167.0,      11.95,    13.26,     7.90,    11.10,    15.53
      168.0,      11.93,    13.24,     7.89,    11.09,    15.48
      169.0,      11.90,    13.22,     7.88,    11.07,    15.44
      170.0,      11.88,    13.20,     7.87,    11.05,    15.39
      171.0,      11.85,    13.19,     7.85,    11.03,    15.34
      172.0,      11.83,    13.17,     7.84,    11.01,    15.29
      173.0,      11.80,    13.15,     7.83,    10.99,    15.24
      174.0,      11.78,    13.13,     7.82,    10.97,    15.19
      175.0,      11.75,    13.11,     7.81,    10.96,    15.15
      176.0,      11.73,    13.09,     7.79,    10.94,    15.10
      177.0,      11.71,    13.07,     7.78,    10.92,    15.05
      178.0,      11.68,    13.05,     7.77,    10.90,    15.00
      179.0,      11.66,    13.04,     7.76,    10.88,    14.96
      180.0,      11.64,    13.02,     7.75,    10.86,    14.91
      181.0,      11.61,    13.00,     7.74,    10.85,    14.86
      182.0,      11.59,    12.98,     7.73,    10.83,    14.82
      183.0,      11.57,    12.97,     7.72,    10.81,    14.77
      184.0,      11.54,    12.95,     7.71,    10.79,    14.72
      185.0,      11.52,    12.93,     7.69,    10.77,    14.68
      186.0,      11.50,    12.91,     7.68,    10.76,    14.63
      187.0,      11.47,    12.90,     7.67,    10.74,    14.58
      188.0,      11.45,    12.88,     7.66,    10.72,    14.54
      189.0,      11.43,    12.86,     7.65,    10.70,    14.49
      190.0,      11.41,    12.85,     7.64,    10.69,    14.45
      191.0,      11.38,    12.83,     7.63,    10.67,    14.40
      192.0,      11.36,    12.81,     7.62,    10.65,    14.36
      193.0,      11.34,    12.80,     7.61,    10.63,    14.31
      194.0,      11.32,    12.78,     7.60,    10.61,    14.27
      195.0,      11.30,    12.77,     7.59,    10.60,    14.23
      196.0,      11.27,    12.75,     7.58,    10.58,    14.18
      197.0,      11.25,    12.73,     7.57,    10.56,    14.14
      198.0,      11.23,    12.72,     7.57,    10.54,    14.09
      199.0,      11.21,    12.70,     7.56,    10.53,    14.05
      200.0,      11.19,    12.69,     7.55,    10.51,    14.01
      201.0,      11.17,    12.67,     7.54,    10.49,    13.96
      202.0,      11.14,    12.66,     7.53,    10.48,    13.92
      203.0,      11.12,    12.64,     7.52,    10.46,    13.88
      204.0,      11.10,    12.63,     7.51,    10.44,    13.83
      205.0,      11.08,    12.61,     7.50,    10.42,    13.79
      206.0,      11.06,    12.60,     7.49,    10.41,    13.75
      207.0,      11.04,    12.58,     7.48,    10.39,    13.71
      208.0,      11.02,    12.57,     7.47,    10.37,    13.66
      209.0,      11.00,    12.55,     7.47,    10.36,    13.62
      210.0,      10.98,    12.54,     7.46,    10.34,    13.58
      211.0,      10.96,    12.52,     7.45,    10.32,    13.54
      212.0,      10.94,    12.51,     7.44,    10.30,    13.50
      213.0,      10.92,    12.49,     7.43,    10.29,    13.46
      214.0,      10.90,    12.48,     7.42,    10.27,    13.41
      215.0,      10.88,    12.46,     7.41,    10.25,    13.37
      216.0,      10.86,    12.45,     7.41,    10.24,    13.33
      217.0,      10.84,    12.44,     7.40,    10.22,    13.29
      218.0,      10.82,    12.42,     7.39,    10.20,    13.25
      219.0,      10.80,    12.41,     7.38,    10.19,    13.21
      220.0,      10.78,    12.39,     7.37,    10.17,    13.17
      221.0,      10.76,    12.38,     7.36,    10.15,    13.13
      222.0,      10.74,    12.37,     7.36,    10.14,    13.09
      223.0,      10.72,    12.35,     7.35,    10.12,    13.05
      224.0,      10.70,    12.34,     7.34,    10.10,    13.01
      225.0,      10.68,    12.32,     7.33,    10.09,    12.97
      226.0,      10.66,    12.31,     7.32,    10.07,    12.93
      227.0,      10.64,    12.30,     7.31,    10.05,    12.89
      228.0,      10.62,    12.28,     7.31,    10.04,    12.85
      229.0,      10.60,    12.27,     7.30,    10.02,    12.81
      230.0,      10.58,    12.26,     7.29,    10.01,    12.78
      231.0,      10.56,    12.24,     7.28,     9.99,    12.74
      232.0,      10.54,    12.23,     7.27,     9.97,    12.70
      233.0,      10.52,    12.22,     7.27,     9.96,    12.66
      234.0,      10.51,    12.20,     7.26,     9.94,    12.62
      235.0,      10.49,    12.19,     7.25,     9.92,    12.58
      236.0,      10.47,    12.18,     7.24,     9.91,    12.55
      237.0,      10.45,    12.16,     7.24,     9.89,    12.51
      238.0,      10.43,    12.15,     7.23,     9.88,    12.47
      239.0,      10.41,    12.14,     7.22,     9.86,    12.43
      240.0,      10.39,    12.12,     7.21,     9.84,    12.40
      241.0,      10.38,    12.11,     7.20,     9.83,    12.36
      242.0,      10.36,    12.10,     7.20,     9.81,    12.32
      243.0,      10.34,    12.08,     7.19,     9.80,    12.28
      244.0,      10.32,    12.07,     7.18,     9.78,    12.25
      245.0,      10.30,    12.06,     7.17,     9.76,    12.21
      246.0,      10.28,    12.05,     7.17,     9.75,    12.17
      247.0,      10.27,    12.03,     7.16,     9.73,    12.14
      248.0,      10.25,    12.02,     7.15,     9.72,    12.10
      249.0,      10.23,    12.01,     7.14,     9.70,    12.07
      250.0,      10.21,    11.99,     7.14,     9.68,    12.03
      251.0,      10.19,    11.98,     7.13,     9.67,    11.99
      252.0,      10.18,    11.97,     7.12,     9.65,    11.96
      253.0,      10.16,    11.96,     7.11,     9.64,    11.92
      254.0,      10.14,    11.94,     7.11,     9.62,    11.89
      255.0,      10.12,    11.93,     7.10,     9.61,    11.85
      256.0,      10.10,    11.92,     7.09,     9.59,    11.82
      257.0,      10.09,    11.91,     7.08,     9.57,    11.78
      258.0,      10.07,    11.89,     7.08,     9.56,    11.75
      259.0,      10.05,    11.88,     7.07,     9.54,    11.71
      260.0,      10.03,    11.87,     7.06,     9.53,    11.68
      261.0,      10.02,    11.86,     7.06,     9.51,    11.64
      262.0,      10.00,    11.84,     7.05,     9.50,    11.61
      263.0,       9.98,    11.83,     7.04,     9.48,    11.57
      264.0,       9.96,    11.82,     7.03,     9.47,    11.54
      265.0,       9.95,    11.81,     7.03,     9.45,    11.51
      266.0,       9.93,    11.79,     7.02,     9.44,    11.47
      267.0,       9.91,    11.78,     7.01,     9.42,    11.44
      268.0,       9.90,    11.77,     7.00,     9.40,    11.40
      269.0,       9.88,    11.76,     7.00,     9.39,    11.37
      270.0,       9.86,    11.75,     6.99,     9.37,    11.34
      271.0,       9.84,    11.73,     6.98,     9.36,    11.30
      272.0,       9.83,    11.72,     6.98,     9.34,    11.27
      273.0,       9.81,    11.71,     6.97,     9.33,    11.24
      274.0,       9.79,    11.70,     6.96,     9.31,    11.20
      275.0,       9.78,    11.69,     6.95,     9.30,    11.17
      276.0,       9.76,    11.67,     6.95,     9.28,    11.14
      277.0,       9.74,    11.66,     6.94,     9.27,    11.11
      278.0,       9.73,    11.65,     6.93,     9.25,    11.07
      279.0,       9.71,    11.64,     6.93,     9.24,    11.04
      280.0,       9.69,    11.63,     6.92,     9.22,    11.01
      281.0,       9.68,    11.61,     6.91,     9.21,    10.98
      282.0,       9.66,    11.60,     6.91,     9.19,    10.94
      283.0,       9.64,    11.59,     6.90,     9.18,    10.91
      284.0,       9.63,    11.58,     6.89,     9.16,    10.88
      285.0,       9.61,    11.57,     6.88,     9.15,    10.85
      286.0,       9.60,    11.55,     6.88,     9.13,    10.82
      287.0,       9.58,    11.54,     6.87,     9.12,    10.79
      288.0,       9.56,    11.53,     6.86,     9.10,    10.75
      289.0,       9.55,    11.52,     6.86,     9.09,    10.72
      290.0,       9.53,    11.51,     6.85,     9.07,    10.69
      291.0,       9.51,    11.50,     6.84,     9.06,    10.66
      292.0,       9.50,    11.48,     6.84,     9.04,    10.63
      293.0,       9.48,    11.47,     6.83,     9.03,    10.60
      294.0,       9.47,    11.46,     6.82,     9.01,    10.57
      295.0,       9.45,    11.45,     6.81,     9.00,    10.54
      296.0,       9.43,    11.44,     6.81,     8.99,    10.51
      297.0,       9.42,    11.43,     6.80,     8.97,    10.48
      298.0,       9.40,    11.41,     6.79,     8.96,    10.45
      299.0,       9.39,    11.40,     6.79,     8.94,    10.42
      300.0,       9.37,    11.39,     6.78,     8.93,    10.39
      301.0,       9.36,    11.38,     6.77,     8.91,    10.36
      302.0,       9.34,    11.37,     6.77,     8.90,    10.33
      303.0,       9.32,    11.36,     6.76,     8.88,    10.30
      304.0,       9.31,    11.34,     6.75,     8.87,    10.27
      305.0,       9.29,    11.33,     6.75,     8.85,    10.24
      306.0,       9.28,    11.32,     6.74,     8.84,    10.21
      307.0,       9.26,    11.31,     6.73,     8.83,    10.18
      308.0,       9.25,    11.30,     6.73,     8.81,    10.15
      309.0,       9.23,    11.29,     6.72,     8.80,    10.12
      310.0,       9.22,    11.28,     6.71,     8.78,    10.09
