Radius (km), Mean (m/s), NE (m/s), SE (m/s), SW (m/s), NW (m/s)
        0.0,       0.00,     0.00,     0.00,     0.00,     0.00
        1.0,       1.63,     1.38,     1.64,     1.70,     1.78
        2.0,       3.33,     2.99,     3.35,     3.43,     3.54
        3.0,       5.06,     4.70,     5.09,     5.17,     5.28
        4.0,       6.81,     6.48,     6.85,     6.92,     7.01
        5.0,       8.58,     8.32,     8.62,     8.67,     8.73
        6.0,      10.37,    10.19,    10.40,    10.43,    10.45
        7.0,      12.17,    12.11,    12.19,    12.19,    12.17
        8.0,      13.97,    14.06,    13.99,    13.95,    13.88
        9.0,      15.79,    16.03,    15.79,    15.72,    15.59
       10.0,      17.61,    18.04,    17.60,    17.49,    17.30
       11.0,      19.44,    20.07,    19.42,    19.26,    19.01
       12.0,      21.29,    22.15,    21.25,    21.04,    20.72
       13.0,      23.20,    24.37,    23.13,    22.82,    22.47
       14.0,      25.22,    26.80,    25.13,    24.62,    24.31
       15.0,      27.41,    29.52,    27.30,    26.51,    26.31
       16.0,      29.82,    32.57,    29.68,    28.53,    28.49
       17.0,      32.45,    35.91,    32.29,    30.73,    30.88
       18.0,      35.26,    39.45,    35.06,    33.12,    33.42
       19.0,      38.16,    43.04,    37.92,    35.67,    36.03
       20.0,      41.03,    46.50,    40.72,    38.30,    38.61
       21.0,      43.73,    49.66,    43.35,    40.88,    41.02
       22.0,      46.11,    52.34,    45.67,    43.29,    43.14
       23.0,      48.07,    54.44,    47.58,    45.39,    44.89
       24.0,      49.55,    55.90,    49.01,    47.08,    46.19
       25.0,      50.51,    56.74,    49.95,    48.30,    47.05
       26.0,      50.99,    57.01,    50.44,    49.03,    47.47
       27.0,      51.05,    56.83,    50.55,    49.29,    47.55
       28.0,      50.81,    56.34,    50.37,    49.17,    47.35
       29.0,      50.35,    55.66,    50.01,    48.75,    46.98
       30.0,      49.78,    54.90,    49.55,    48.16,    46.52
       31.0,      49.18,    54.13,    49.08,    47.48,    46.04
       32.0,      48.59,    53.39,    48.61,    46.79,    45.57
       33.0,      48.03,    52.69,    48.17,    46.14,    45.12
       34.0,      47.50,    52.01,    47.75,    45.54,    44.70
       35.0,      46.98,    51.34,    47.33,    44.97,    44.28
       36.0,      46.48,    50.68,    46.92,    44.43,    43.87
       37.0,      45.98,    50.04,    46.52,    43.89,    43.47
       38.0,      45.49,    49.41,    46.11,    43.37,    43.07
       39.0,      45.01,    48.79,    45.72,    42.85,    42.67
       40.0,      44.53,    48.18,    45.32,    42.35,    42.28
       41.0,      44.07,    47.58,    44.93,    41.85,    41.90
       42.0,      43.61,    47.00,    44.55,    41.37,    41.52
       43.0,      43.16,    46.42,    44.17,    40.89,    41.15
       44.0,      42.71,    45.86,    43.79,    40.42,    40.78
       45.0,      42.27,    45.30,    43.42,    39.96,    40.41
       46.0,      41.84,    44.76,    43.05,    39.51,    40.05
       47.0,      41.42,    44.23,    42.68,    39.07,    39.70
       48.0,      41.00,    43.70,    42.32,    38.63,    39.35
       49.0,      40.59,    43.19,    41.96,    38.20,    39.00
       50.0,      40.19,    42.69,    41.61,    37.78,    38.66
       51.0,      39.79,    42.19,    41.26,    37.37,    38.32
       52.0,      39.39,    41.71,    40.92,    36.96,    37.99
       53.0,      39.01,    41.23,    40.57,    36.57,    37.66
       54.0,      38.63,    40.77,    40.23,    36.18,    37.34
       55.0,      38.25,    40.31,    39.90,    35.79,    37.02
       56.0,      37.88,    39.86,    39.57,    35.41,    36.70
       57.0,      37.52,    39.42,    39.24,    35.04,    36.39
       58.0,      37.16,    38.98,    38.91,    34.68,    36.08
       59.0,      36.81,    38.56,    38.59,    34.32,    35.78
       60.0,      36.46,    38.14,    38.27,    33.97,    35.48
       61.0,      36.12,    37.73,    37.96,    33.62,    35.18
       62.0,      35.79,    37.33,    37.65,    33.28,    34.89
       63.0,      35.45,    36.93,    37.34,    32.94,    34.60
       64.0,      35.13,    36.55,    37.04,    32.61,    34.31
       65.0,      34.81,    36.17,    36.73,    32.29,    34.03
       66.0,      34.49,    35.79,    36.44,    31.97,    33.75
       67.0,      34.18,    35.43,    36.14,    31.66,    33.48
       68.0,      33.87,    35.07,    35.85,    31.35,    33.21
       69.0,      33.57,    34.71,    35.56,    31.05,    32.94
       70.0,      33.27,    34.37,    35.27,    30.75,    32.68
       71.0,      32.97,    34.03,    34.99,    30.46,    32.42
       72.0,      32.68,    33.69,    34.71,    30.17,    32.16
       73.0,      32.40,    33.37,    34.43,    29.89,    31.91
       74.0,      32.12,    33.05,    34.16,    29.61,    31.65
       75.0,      31.84,    32.73,    33.89,    29.33,    31.41
       76.0,      31.57,    32.42,    33.62,    29.06,    31.16
       77.0,      31.30,    32.11,    33.35,    28.80,    30.92
       78.0,      31.03,    31.82,    33.09,    28.53,    30.68
       79.0,      30.77,    31.52,    32.83,    28.28,    30.45
       80.0,      30.51,    31.23,    32.57,    28.02,    30.21
       81.0,      30.26,    30.95,    32.32,    27.77,    29.99
       82.0,      30.01,    30.67,    32.07,    27.53,    29.76
       83.0,      29.76,    30.40,    31.82,    27.28,    29.54
       84.0,      29.52,    30.13,    31.57,    27.05,    29.31
       85.0,      29.28,    29.87,    31.33,    26.81,    29.10
       86.0,      29.04,    29.61,    31.08,    26.58,    28.88
       87.0,      28.81,    29.36,    30.85,    26.35,    28.67
       88.0,      28.58,    29.11,    30.61,    26.13,    28.46
       89.0,      28.35,    28.87,    30.38,    25.91,    28.25
       90.0,      28.13,    28.63,    30.14,    25.69,    28.05
       91.0,      27.91,    28.39,    29.91,    25.47,    27.84
       92.0,      27.69,    28.16,    29.69,    25.26,    27.64
       93.0,      27.47,    27.93,    29.46,    25.05,    27.45
       94.0,      27.26,    27.71,    29.24,    24.85,    27.25
       95.0,      27.05,    27.49,    29.02,    24.64,    27.06
       96.0,      26.85,    27.28,    28.80,    24.44,    26.87
       97.0,      26.65,    27.06,    28.59,    24.25,    26.68
       98.0,      26.45,    26.86,    28.37,    24.05,    26.50
       99.0,      26.25,    26.65,    28.16,    23.86,    26.31
      100.0,      26.05,    26.45,    27.96,    23.67,    26.13
      101.0,      25.86,    26.26,    27.75,    23.49,    25.95
      102.0,      25.67,    26.06,    27.54,    23.30,    25.78
      103.0,      25.48,    25.87,    27.34,    23.12,    25.60
      104.0,      25.30,    25.69,    27.14,    22.94,    25.43
      105.0,      25.12,    25.50,    26.94,    22.77,    25.26
      106.0,      24.94,    25.32,    26.75,    22.59,    25.09
      107.0,      24.76,    25.15,    26.55,    22.42,    24.93
      108.0,      24.59,    24.97,    26.36,    22.25,    24.76
      109.0,      24.41,    24.80,    26.17,    22.08,    24.60
      110.0,      24.24,    24.63,    25.98,    21.92,    24.44
      111.0,      24.08,    24.47,    25.80,    21.76,    24.28
      112.0,      23.91,    24.31,    25.61,    21.59,    24.13
      113.0,      23.75,    24.15,    25.43,    21.44,    23.97
      114.0,      23.59,    23.99,    25.25,    21.28,    23.82
      115.0,      23.43,    23.84,    25.07,    21.12,    23.67
      116.0,      23.27,    23.69,    24.90,    20.97,    23.52
      117.0,      23.11,    23.54,    24.72,    20.82,    23.37
      118.0,      22.96,    23.39,    24.55,    20.67,    23.23
      119.0,      22.81,    23.25,    24.38,    20.52,    23.08
      120.0,      22.66,    23.11,    24.21,    20.38,    22.94
      121.0,      22.51,    22.97,    24.04,    20.23,    22.80
      122.0,      22.37,    22.84,    23.88,    20.09,    22.66
      123.0,      22.22,    22.70,    23.71,    19.95,    22.53
      124.0,      22.08,    22.57,    23.55,    19.81,    22.39
      125.0,      21.94,    22.44,    23.39,    19.68,    22.26
      126.0,      21.80,    22.31,    23.23,    19.54,    22.13
      127.0,      21.67,    22.19,    23.07,    19.41,    22.00
      128.0,      21.53,    22.07,    22.92,    19.27,    21.87
      129.0,      21.40,    21.95,    22.76,    19.14,    21.74
      130.0,      21.27,    21.83,    22.61,    19.01,    21.61
      131.0,      21.14,    21.71,    22.46,    18.89,    21.49
      132.0,      21.01,    21.60,    22.31,    18.76,    21.37
      133.0,      20.88,    21.48,    22.16,    18.63,    21.25
      134.0,      20.76,    21.37,    22.01,    18.51,    21.13
      135.0,      20.63,    21.26,    21.87,    18.39,    21.01
      136.0,      20.51,    21.16,    21.72,    18.27,    20.89
      137.0,      20.39,    21.05,    21.58,    18.15,    20.77
      138.0,      20.27,    20.95,    21.44,    18.03,    20.66
      139.0,      20.15,    20.85,    21.30,    17.91,    20.55
      140.0,      20.03,    20.74,    21.16,    17.80,    20.43
      141.0,      19.92,    20.65,    21.03,    17.68,    20.32
      142.0,      19.81,    20.55,    20.89,    17.57,    20.21
      143.0,      19.69,    20.45,    20.76,    17.46,    20.11
      144.0,      19.58,    20.36,    20.63,    17.35,    20.00
      145.0,      19.47,    20.27,    20.50,    17.24,    19.89
      146.0,      19.36,    20.18,    20.37,    17.13,    19.79
      147.0,      19.26,    20.09,    20.24,    17.02,    19.69
      148.0,      19.15,    20.00,    20.11,    16.91,    19.58
      149.0,      19.05,    19.91,    19.98,    16.81,    19.48
      150.0,      18.94,    19.83,    19.86,    16.70,    19.38
      151.0,      18.84,    19.74,    19.74,    16.60,    19.28
      152.0,      18.74,    19.66,    19.61,    16.50,    19.19
      153.0,      18.64,    19.58,    19.49,    16.39,    19.09
      154.0,      18.54,    19.50,    19.37,    16.29,    18.99
      155.0,      18.44,    19.42,    19.26,    16.19,    18.90
      156.0,      18.35,    19.34,    19.14,    16.10,    18.81
      157.0,      18.25,    19.26,    19.02,    16.00,    18.71
      158.0,      18.16,    19.19,    18.91,    15.90,    18.62
      159.0,      18.06,    19.11,    18.80,    15.81,    18.53
      160.0,      17.97,    19.04,    18.68,    15.71,    18.44
      161.0,      17.88,    18.97,    18.57,    15.62,    18.36
      162.0,      17.79,    18.90,    18.46,    15.52,    18.27
      163.0,      17.70,    18.83,    18.35,    15.43,    18.18
      164.0,      17.61,    18.76,    18.24,    15.34,    18.10
      165.0,      17.52,    18.69,    18.14,    15.25,    18.01
      166.0,      17.44,    18.63,    18.03,    15.16,    17.93
      167.0,      17.35,    18.56,    17.93,    15.07,    17.85
      168.0,      17.27,    18.50,    17.82,    14.98,    17.76
      169.0,      17.18,    18.43,    17.72,    14.89,    17.68
      170.0,      17.10,    18.37,    17.62,    14.81,    17.60
      171.0,      17.02,    18.31,    17.52,    14.72,    17.52
      172.0,      16.94,    18.25,    17.42,    14.64,    17.45
      173.0,      16.86,    18.19,    17.32,    14.55,    17.37
      174.0,      16.78,    18.13,    17.22,    14.47,    17.29
      175.0,      16.70,    18.07,    17.12,    14.38,    17.22
      176.0,      16.62,    18.01,    17.03,    14.30,    17.14
      177.0,      16.54,    17.96,    16.93,    14.22,    17.07
      178.0,      16.47,    17.90,    16.84,    14.14,    16.99
      179.0,      16.39,    17.84,    16.75,    14.06,    16.92
      180.0,      16.32,    17.79,    16.66,    13.98,    16.85
      181.0,      16.24,    17.74,    16.56,    13.90,    16.78
      182.0,      16.17,    17.68,    16.47,    13.82,    16.71
      183.0,      16.10,    17.63,    16.38,    13.74,    16.64
      184.0,      16.03,    17.58,    16.30,    13.67,    16.57
      185.0,      15.96,    17.53,    16.21,    13.59,    16.50
      186.0,      15.89,    17.48,    16.12,    13.51,    16.43
      187.0,      15.82,    17.43,    16.04,    13.44,    16.37
      188.0,      15.75,    17.38,    15.95,    13.36,    16.30
      189.0,      15.68,    17.33,    15.87,    13.29,    16.24
      190.0,      15.61,    17.29,    15.78,    13.21,    16.17
      191.0,      15.55,    17.24,    15.70,    13.14,    16.11
      192.0,      15.48,    17.19,    15.62,    13.07,    16.04
      193.0,      15.42,    17.15,    15.54,    13.00,    15.98
      194.0,      15.35,    17.10,    15.46,    12.93,    15.92
      195.0,      15.29,    17.06,    15.38,    12.85,    15.86
      196.0,      15.22,    17.02,    15.30,    12.78,    15.80
      197.0,      15.16,    16.97,    15.22,    12.71,    15.74
      198.0,      15.10,    16.93,    15.15,    12.64,    15.68
      199.0,      15.04,    16.89,    15.07,    12.58,    15.62
      200.0,      14.98,    16.85,    14.99,    12.51,    15.56
      201.0,      14.92,    16.80,    14.92,    12.44,    15.50
      202.0,      14.86,    16.76,    14.84,    12.37,    15.44
      203.0,      14.80,    16.72,    14.77,    12.31,    15.39
      204.0,      14.74,    16.68,    14.70,    12.24,    15.33
      205.0,      14.68,    16.65,    14.63,    12.17,    15.27
      206.0,      14.62,    16.61,    14.56,    12.11,    15.22
      207.0,      14.56,    16.57,    14.48,    12.04,    15.16
      208.0,      14.51,    16.53,    14.41,    11.98,    15.11
      209.0,      14.45,    16.49,    14.35,    11.91,    15.06
      210.0,      14.40,    16.46,    14.28,    11.85,    15.00
      211.0,      14.34,    16.42,    14.21,    11.79,    14.95
      212.0,      14.29,    16.38,    14.14,    11.72,    14.90
      213.0,      14.23,    16.35,    14.08,    11.66,    14.85
      214.0,      14.18,    16.31,    14.01,    11.60,    14.79
      215.0,      14.13,    16.28,    13.94,    11.54,    14.74
      216.0,      14.07,    16.25,    13.88,    11.48,    14.69
      217.0,      14.02,    16.21,    13.81,    11.42,    14.64
      218.0,      13.97,    16.18,    13.75,    11.36,    14.59
      219.0,      13.92,    16.14,    13.69,    11.30,    14.55
      220.0,      13.87,    16.11,    13.63,    11.24,    14.50
      221.0,      13.82,    16.08,    13.56,    11.18,    14.45
      222.0,      13.77,    16.05,    13.50,    11.12,    14.40
      223.0,      13.72,    16.02,    13.44,    11.06,    14.35
      224.0,      13.67,    15.98,    13.38,    11.00,    14.31
      225.0,      13.62,    15.95,    13.32,    10.94,    14.26
      226.0,      13.57,    15.92,    13.26,    10.89,    14.22
      227.0,      13.52,    15.89,    13.21,    10.83,    14.17
      228.0,      13.48,    15.86,    13.15,    10.77,    14.12
      229.0,      13.43,    15.83,    13.09,    10.72,    14.08
      230.0,      13.38,    15.80,    13.03,    10.66,    14.04
      231.0,      13.34,    15.77,    12.98,    10.61,    13.99
      232.0,      13.29,    15.74,    12.92,    10.55,    13.95
      233.0,      13.25,    15.71,    12.87,    10.50,    13.91
      234.0,      13.20,    15.69,    12.81,    10.44,    13.86
      235.0,      13.16,    15.66,    12.76,    10.39,    13.82
      236.0,      13.11,    15.63,    12.71,    10.33,    13.78
      237.0,      13.07,    15.60,    12.65,    10.28,    13.74
      238.0,      13.02,    15.58,    12.60,    10.23,    13.70
      239.0,      12.98,    15.55,    12.55,    10.17,    13.65
      240.0,      12.94,    15.52,    12.50,    10.12,    13.61
      241.0,      12.90,    15.49,    12.44,    10.07,    13.57
      242.0,      12.85,    15.47,    12.39,    10.02,    13.53
      243.0,      12.81,    15.44,    12.34,     9.97,    13.49
      244.0,      12.77,    15.42,    12.29,     9.92,    13.45
      245.0,      12.73,    15.39,    12.25,     9.86,    13.42
      246.0,      12.69,    15.37,    12.20,     9.81,    13.38
      247.0,      12.65,    15.34,    12.15,     9.76,    13.34
      248.0,      12.61,    15.31,    12.10,     9.71,    13.30
      249.0,      12.57,    15.29,    12.05,     9.66,    13.26
      250.0,      12.53,    15.27,    12.01,     9.61,    13.23
      251.0,      12.49,    15.24,    11.96,     9.57,    13.19
      252.0,      12.45,    15.22,    11.91,     9.52,    13.15
      253.0,      12.41,    15.19,    11.87,     9.47,    13.12
      254.0,      12.37,    15.17,    11.82,     9.42,    13.08
      255.0,      12.33,    15.15,    11.78,     9.37,    13.04
      256.0,      12.30,    15.12,    11.73,     9.32,    13.01
      257.0,      12.26,    15.10,    11.69,     9.28,    12.97
      258.0,      12.22,    15.08,    11.64,     9.23,    12.94
      259.0,      12.18,    15.05,    11.60,     9.18,    12.90
      260.0,      12.15,    15.03,    11.56,     9.14,    12.87
      261.0,      12.11,    15.01,    11.51,     9.09,    12.83
      262.0,      12.08,    14.99,    11.47,     9.04,    12.80
      263.0,      12.04,    14.96,    11.43,     9.00,    12.77
      264.0,      12.00,    14.94,    11.39,     8.95,    12.73
      265.0,      11.97,    14.92,    11.35,     8.91,    12.70
      266.0,      11.93,    14.90,    11.31,     8.86,    12.67
      267.0,      11.90,    14.88,    11.27,     8.82,    12.63
      268.0,      11.86,    14.85,    11.23,     8.77,    12.60
      269.0,      11.83,    14.83,    11.19,     8.73,    12.57
      270.0,      11.80,    14.81,    11.15,     8.69,    12.54
      271.0,      11.76,    14.79,    11.11,     8.64,    12.50
      272.0,      11.73,    14.77,    11.07,     8.60,    12.47
      273.0,      11.69,    14.75,    11.03,     8.55,    12.44
      274.0,      11.66,    14.73,    10.99,     8.51,    12.41
      275.0,      11.63,    14.71,    10.96,     8.47,    12.38
      276.0,      11.60,    14.69,    10.92,     8.43,    12.35
      277.0,      11.56,    14.67,    10.88,     8.38,    12.32
      278.0,      11.53,    14.65,    10.85,     8.34,    12.29
      279.0,      11.50,    14.63,    10.81,     8.30,    12.26
      280.0,      11.47,    14.61,    10.77,     8.26,    12.23
      281.0,      11.44,    14.59,    10.74,     8.22,    12.20
      282.0,      11.40,    14.57,    10.70,     8.18,    12.17
      283.0,      11.37,    14.55,    10.67,     8.13,    12.14
      284.0,      11.34,    14.53,    10.63,     8.09,    12.11
      285.0,      11.31,    14.51,    10.60,     8.05,    12.08
      286.0,      11.28,    14.49,    10.56,     8.01,    12.05
      287.0,      11.25,    14.47,    10.53,     7.97,    12.02
      288.0,      11.22,    14.45,    10.50,     7.93,    12.00
      289.0,      11.19,    14.44,    10.46,     7.89,    11.97
      290.0,      11.16,    14.42,    10.43,     7.85,    11.94
      291.0,      11.13,    14.40,    10.40,     7.82,    11.91
      292.0,      11.10,    14.38,    10.36,     7.78,    11.88
      293.0,      11.07,    14.36,    10.33,     7.74,    11.86
      294.0,      11.04,    14.34,    10.30,     7.70,    11.83
      295.0,      11.01,    14.32,    10.27,     7.66,    11.80
      296.0,      10.99,    14.31,    10.24,     7.62,    11.78
      297.0,      10.96,    14.29,    10.20,     7.58,    11.75
      298.0,      10.93,    14.27,    10.17,     7.55,    11.72
      299.0,      10.90,    14.25,    10.14,     7.51,    11.70
      300.0,      10.87,    14.23,    10.11,     7.47,    11.67
      301.0,      10.84,    14.22,    10.08,     7.43,    11.64
      302.0,      10.82,    14.20,    10.05,     7.40,    11.62
      303.0,      10.79,    14.18,    10.02,     7.36,    11.59
      304.0,      10.76,    14.16,     9.99,     7.32,    11.57
      305.0,      10.74,    14.15,     9.96,     7.29,    11.54
      306.0,      10.71,    14.13,     9.94,     7.25,    11.52
      307.0,      10.68,    14.11,     9.91,     7.22,    11.49
      308.0,      10.66,    14.10,     9.88,     7.18,    11.47
      309.0,      10.63,    14.08,     9.85,     7.14,    11.44
      310.0,      10.60,    14.06,     9.82,     7.11,    11.42
