Radius (km), Mean (m/s), NE (m/s), SE (m/s), SW (m/s), NW (m/s)
        0.0,       0.00,     0.00,     0.00,     0.00,     0.00
        1.0,       2.00,     1.86,     1.86,     2.43,     1.86
        2.0,       3.74,     3.60,     3.60,     4.15,     3.60
        3.0,       5.40,     5.30,     5.30,     5.69,     5.30
        4.0,       7.01,     6.98,     6.98,     7.11,     6.98
        5.0,       8.59,     8.63,     8.63,     8.45,     8.63
        6.0,      10.14,    10.28,    10.28,     9.73,    10.28
        7.0,      11.67,    11.91,    11.91,    10.97,    11.91
        8.0,      13.18,    13.52,    13.52,    12.17,    13.52
        9.0,      14.68,    15.13,    15.13,    13.33,    15.13
       10.0,      16.17,    16.74,    16.74,    14.46,    16.74
       11.0,      17.64,    18.33,    18.33,    15.57,    18.33
       12.0,      19.11,    19.92,    19.93,    16.66,    19.92
       13.0,      20.59,    21.52,    21.56,    17.75,    21.54
       14.0,      22.15,    23.18,    23.30,    18.89,    23.24
       15.0,      23.84,    24.94,    25.22,    20.12,    25.09
       16.0,      25.72,    26.87,    27.37,    21.49,    27.14
       17.0,      27.79,    28.97,    29.75,    23.02,    29.41
       18.0,      30.02,    31.23,    32.32,    24.66,    31.85
       19.0,      32.33,    33.59,    34.97,    26.37,    34.39
       20.0,      34.61,    35.94,    37.57,    28.04,    36.89
       21.0,      36.74,    38.18,    39.96,    29.59,    39.24
       22.0,      38.59,    40.18,    42.01,    30.90,    41.28
       23.0,      40.07,    41.86,    43.61,    31.90,    42.92
       24.0,      41.11,    43.14,    44.68,    32.54,    44.08
       25.0,      41.69,    43.99,    45.22,    32.81,    44.75
       26.0,      41.85,    44.43,    45.26,    32.74,    44.95
       27.0,      41.64,    44.52,    44.89,    32.38,    44.75
       28.0,      41.15,    44.32,    44.22,    31.80,    44.26
       29.0,      40.49,    43.94,    43.36,    31.09,    43.56
       30.0,      39.74,    43.46,    42.41,    30.31,    42.77
       31.0,      38.98,    42.94,    41.46,    29.54,    41.96
       32.0,      38.24,    42.44,    40.55,    28.79,    41.18
       33.0,      37.54,    41.96,    39.69,    28.09,    40.43
       34.0,      36.89,    41.52,    38.87,    27.43,    39.73
       35.0,      36.26,    41.10,    38.08,    26.80,    39.04
       36.0,      35.65,    40.68,    37.32,    26.20,    38.38
       37.0,      35.05,    40.28,    36.58,    25.62,    37.73
       38.0,      34.48,    39.89,    35.87,    25.06,    37.10
       39.0,      33.92,    39.50,    35.18,    24.52,    36.49
       40.0,      33.38,    39.12,    34.52,    24.00,    35.89
       41.0,      32.86,    38.76,    33.87,    23.50,    35.30
       42.0,      32.35,    38.40,    33.25,    23.02,    34.73
       43.0,      31.86,    38.05,    32.64,    22.56,    34.18
       44.0,      31.38,    37.70,    32.06,    22.12,    33.64
       45.0,      30.91,    37.36,    31.49,    21.69,    33.11
       46.0,      30.46,    37.04,    30.94,    21.28,    32.60
       47.0,      30.03,    36.71,    30.41,    20.89,    32.10
       48.0,      29.60,    36.40,    29.90,    20.51,    31.61
       49.0,      29.19,    36.09,    29.40,    20.14,    31.13
       50.0,      28.79,    35.79,    28.92,    19.79,    30.67
       51.0,      28.40,    35.49,    28.46,    19.45,    30.22
       52.0,      28.03,    35.20,    28.01,    19.12,    29.78
       53.0,      27.66,    34.92,    27.57,    18.81,    29.35
       54.0,      27.31,    34.64,    27.15,    18.51,    28.93
       55.0,      26.96,    34.37,    26.74,    18.21,    28.52
       56.0,      26.62,    34.10,    26.34,    17.93,    28.12
       57.0,      26.30,    33.84,    25.96,    17.66,    27.73
       58.0,      25.98,    33.59,    25.59,    17.40,    27.35
       59.0,      25.67,    33.34,    25.23,    17.15,    26.98
       60.0,      25.38,    33.09,    24.88,    16.91,    26.62
       61.0,      25.09,    32.85,    24.54,    16.68,    26.27
       62.0,      24.80,    32.61,    24.21,    16.45,    25.93
       63.0,      24.53,    32.38,    23.90,    16.24,    25.60
       64.0,      24.26,    32.15,    23.59,    16.03,    25.27
       65.0,      24.00,    31.93,    23.29,    15.83,    24.95
       66.0,      23.75,    31.71,    23.00,    15.64,    24.64
       67.0,      23.50,    31.50,    22.72,    15.45,    24.34
       68.0,      23.26,    31.29,    22.45,    15.27,    24.05
       69.0,      23.03,    31.08,    22.19,    15.10,    23.76
       70.0,      22.81,    30.87,    21.94,    14.93,    23.48
       71.0,      22.59,    30.67,    21.69,    14.77,    23.20
       72.0,      22.37,    30.48,    21.45,    14.62,    22.94
       73.0,      22.16,    30.28,    21.22,    14.47,    22.68
       74.0,      21.96,    30.10,    21.00,    14.32,    22.42
       75.0,      21.76,    29.91,    20.78,    14.18,    22.18
       76.0,      21.57,    29.73,    20.57,    14.05,    21.93
       77.0,      21.38,    29.55,    20.36,    13.92,    21.70
       78.0,      21.20,    29.37,    20.16,    13.79,    21.47
       79.0,      21.02,    29.19,    19.97,    13.67,    21.24
       80.0,      20.85,    29.02,    19.78,    13.56,    21.02
       81.0,      20.68,    28.85,    19.60,    13.44,    20.81
       82.0,      20.51,    28.69,    19.43,    13.33,    20.60
       83.0,      20.35,    28.52,    19.26,    13.23,    20.40
       84.0,      20.19,    28.36,    19.09,    13.13,    20.20
       85.0,      20.04,    28.20,    18.93,    13.03,    20.00
       86.0,      19.89,    28.05,    18.77,    12.93,    19.81
       87.0,      19.75,    27.89,    18.62,    12.84,    19.63
       88.0,      19.60,    27.74,    18.47,    12.75,    19.45
       89.0,      19.47,    27.59,    18.33,    12.67,    19.27
       90.0,      19.33,    27.45,    18.19,    12.59,    19.10
       91.0,      19.20,    27.30,    18.06,    12.50,    18.93
       92.0,      19.07,    27.16,    17.93,    12.43,    18.76
       93.0,      18.94,    27.02,    17.80,    12.35,    18.60
       94.0,      18.82,    26.88,    17.67,    12.28,    18.45
       95.0,      18.70,    26.74,    17.55,    12.21,    18.29
       96.0,      18.58,    26.61,    17.44,    12.14,    18.14
       97.0,      18.47,    26.47,    17.32,    12.07,    18.00
       98.0,      18.35,    26.34,    17.21,    12.01,    17.85
       99.0,      18.24,    26.21,    17.10,    11.95,    17.71
      100.0,      18.14,    26.08,    17.00,    11.89,    17.58
      101.0,      18.03,    25.96,    16.90,    11.83,    17.44
      102.0,      17.93,    25.83,    16.80,    11.77,    17.31
      103.0,      17.83,    25.71,    16.70,    11.72,    17.19
      104.0,      17.73,    25.58,    16.61,    11.66,    17.06
      105.0,      17.63,    25.46,    16.52,    11.61,    16.94
      106.0,      17.54,    25.34,    16.43,    11.56,    16.82
      107.0,      17.45,    25.23,    16.34,    11.51,    16.70
      108.0,      17.35,    25.11,    16.26,    11.46,    16.59
      109.0,      17.27,    25.00,    16.17,    11.42,    16.48
      110.0,      17.18,    24.88,    16.09,    11.37,    16.37
      111.0,      17.09,    24.77,    16.02,    11.33,    16.26
      112.0,      17.01,    24.66,    15.94,    11.28,    16.16
      113.0,      16.93,    24.55,    15.87,    11.24,    16.06
      114.0,      16.85,    24.44,    15.79,    11.20,    15.96
      115.0,      16.77,    24.33,    15.72,    11.16,    15.86
      116.0,      16.69,    24.22,    15.65,    11.12,    15.77
      117.0,      16.62,    24.12,    15.59,    11.09,    15.67
      118.0,      16.54,    24.01,    15.52,    11.05,    15.58
      119.0,      16.47,    23.91,    15.46,    11.01,    15.49
      120.0,      16.40,    23.81,    15.39,    10.98,    15.40
      121.0,      16.32,    23.71,    15.33,    10.94,    15.32
      122.0,      16.26,    23.61,    15.27,    10.91,    15.23
      123.0,      16.19,    23.51,    15.21,    10.88,    15.15
      124.0,      16.12,    23.41,    15.16,    10.85,    15.07
      125.0,      16.05,    23.31,    15.10,    10.81,    14.99
      126.0,      15.99,    23.21,    15.04,    10.78,    14.91
      127.0,      15.93,    23.12,    14.99,    10.75,    14.84
      128.0,      15.86,    23.02,    14.94,    10.73,    14.76
      129.0,      15.80,    22.93,    14.89,    10.70,    14.69
      130.0,      15.74,    22.84,    14.84,    10.67,    14.62
      131.0,      15.68,    22.74,    14.79,    10.64,    14.55
      132.0,      15.62,    22.65,    14.74,    10.61,    14.48
      133.0,      15.56,    22.56,    14.69,    10.59,    14.41
      134.0,      15.51,    22.47,    14.65,    10.56,    14.35
      135.0,      15.45,    22.38,    14.60,    10.54,    14.28
      136.0,      15.40,    22.29,    14.56,    10.51,    14.22
      137.0,      15.34,    22.20,    14.51,    10.49,    14.16
      138.0,      15.29,    22.12,    14.47,    10.46,    14.10
      139.0,      15.23,    22.03,    14.43,    10.44,    14.04
      140.0,      15.18,    21.94,    14.39,    10.42,    13.98
      141.0,      15.13,    21.86,    14.35,    10.39,    13.92
      142.0,      15.08,    21.77,    14.31,    10.37,    13.86
      143.0,      15.03,    21.69,    14.27,    10.35,    13.81
      144.0,      14.98,    21.60,    14.23,    10.33,    13.75
      145.0,      14.93,    21.52,    14.19,    10.31,    13.70
      146.0,      14.88,    21.44,    14.16,    10.28,    13.65
      147.0,      14.83,    21.36,    14.12,    10.26,    13.60
      148.0,      14.79,    21.28,    14.08,    10.24,    13.55
      149.0,      14.74,    21.20,    14.05,    10.22,    13.50
      150.0,      14.69,    21.12,    14.01,    10.20,    13.45
      151.0,      14.65,    21.04,    13.98,    10.18,    13.40
      152.0,      14.60,    20.96,    13.94,    10.16,    13.35
      153.0,      14.56,    20.88,    13.91,    10.14,    13.31
      154.0,      14.52,    20.80,    13.88,    10.13,    13.26
      155.0,      14.47,    20.72,    13.85,    10.11,    13.21
      156.0,      14.43,    20.65,    13.82,    10.09,    13.17
      157.0,      14.39,    20.57,    13.78,    10.07,    13.13
      158.0,      14.35,    20.49,    13.75,    10.05,    13.08
      159.0,      14.30,    20.42,    13.72,    10.03,    13.04
      160.0,      14.26,    20.34,    13.69,    10.02,    13.00
      161.0,      14.22,    20.27,    13.66,    10.00,    12.96
      162.0,      14.18,    20.19,    13.63,     9.98,    12.92
      163.0,      14.14,    20.12,    13.61,     9.96,    12.88
      164.0,      14.10,    20.05,    13.58,     9.95,    12.84
      165.0,      14.06,    19.97,    13.55,     9.93,    12.80
      166.0,      14.02,    19.90,    13.52,     9.91,    12.76
      167.0,      13.99,    19.83,    13.49,     9.90,    12.73
      168.0,      13.95,    19.76,    13.47,     9.88,    12.69
      169.0,      13.91,    19.68,    13.44,     9.86,    12.65
      170.0,      13.87,    19.61,    13.41,     9.85,    12.62
      171.0,      13.84,    19.54,    13.39,     9.83,    12.58
      172.0,      13.80,    19.47,    13.36,     9.82,    12.55
      173.0,      13.76,    19.40,    13.33,     9.80,    12.51
      174.0,      13.73,    19.33,    13.31,     9.78,    12.48
      175.0,      13.69,    19.26,    13.28,     9.77,    12.45
      176.0,      13.65,    19.19,    13.26,     9.75,    12.41
      177.0,      13.62,    19.13,    13.23,     9.74,    12.38
      178.0,      13.58,    19.06,    13.21,     9.72,    12.35
      179.0,      13.55,    18.99,    13.19,     9.71,    12.32
      180.0,      13.52,    18.92,    13.16,     9.69,    12.29
      181.0,      13.48,    18.86,    13.14,     9.68,    12.26
      182.0,      13.45,    18.79,    13.11,     9.66,    12.22
      183.0,      13.41,    18.72,    13.09,     9.65,    12.19
      184.0,      13.38,    18.66,    13.07,     9.63,    12.16
      185.0,      13.35,    18.59,    13.04,     9.62,    12.14
      186.0,      13.31,    18.53,    13.02,     9.60,    12.11
      187.0,      13.28,    18.46,    13.00,     9.59,    12.08
      188.0,      13.25,    18.40,    12.98,     9.57,    12.05
      189.0,      13.22,    18.33,    12.95,     9.56,    12.02
      190.0,      13.18,    18.27,    12.93,     9.54,    11.99
      191.0,      13.15,    18.20,    12.91,     9.53,    11.97
      192.0,      13.12,    18.14,    12.89,     9.52,    11.94
      193.0,      13.09,    18.08,    12.87,     9.50,    11.91
      194.0,      13.06,    18.01,    12.84,     9.49,    11.89
      195.0,      13.03,    17.95,    12.82,     9.47,    11.86
      196.0,      13.00,    17.89,    12.80,     9.46,    11.83
      197.0,      12.96,    17.83,    12.78,     9.45,    11.81
      198.0,      12.93,    17.76,    12.76,     9.43,    11.78
      199.0,      12.90,    17.70,    12.74,     9.42,    11.76
      200.0,      12.87,    17.64,    12.72,     9.40,    11.73
      201.0,      12.84,    17.58,    12.70,     9.39,    11.71
      202.0,      12.81,    17.52,    12.68,     9.38,    11.68
      203.0,      12.78,    17.46,    12.65,     9.36,    11.66
      204.0,      12.75,    17.40,    12.63,     9.35,    11.63
      205.0,      12.72,    17.34,    12.61,     9.34,    11.61
      206.0,      12.70,    17.28,    12.59,     9.32,    11.59
      207.0,      12.67,    17.22,    12.57,     9.31,    11.56
      208.0,      12.64,    17.16,    12.55,     9.30,    11.54
      209.0,      12.61,    17.10,    12.53,     9.28,    11.52
      210.0,      12.58,    17.04,    12.51,     9.27,    11.49
      211.0,      12.55,    16.98,    12.49,     9.26,    11.47
      212.0,      12.52,    16.92,    12.48,     9.24,    11.45
      213.0,      12.49,    16.87,    12.46,     9.23,    11.43
      214.0,      12.47,    16.81,    12.44,     9.22,    11.40
      215.0,      12.44,    16.75,    12.42,     9.20,    11.38
      216.0,      12.41,    16.69,    12.40,     9.19,    11.36
      217.0,      12.38,    16.64,    12.38,     9.18,    11.34
      218.0,      12.36,    16.58,    12.36,     9.17,    11.32
      219.0,      12.33,    16.52,    12.34,     9.15,    11.30
      220.0,      12.30,    16.46,    12.32,     9.14,    11.28
      221.0,      12.27,    16.41,    12.30,     9.13,    11.25
      222.0,      12.25,    16.35,    12.28,     9.11,    11.23
      223.0,      12.22,    16.30,    12.27,     9.10,    11.21
      224.0,      12.19,    16.24,    12.25,     9.09,    11.19
      225.0,      12.17,    16.19,    12.23,     9.08,    11.17
      226.0,      12.14,    16.13,    12.21,     9.06,    11.15
      227.0,      12.11,    16.08,    12.19,     9.05,    11.13
      228.0,      12.09,    16.02,    12.17,     9.04,    11.11
      229.0,      12.06,    15.97,    12.15,     9.02,    11.09
      230.0,      12.03,    15.91,    12.14,     9.01,    11.07
      231.0,      12.01,    15.86,    12.12,     9.00,    11.05
      232.0,      11.98,    15.80,    12.10,     8.99,    11.03
      233.0,      11.95,    15.75,    12.08,     8.97,    11.01
      234.0,      11.93,    15.70,    12.06,     8.96,    10.99
      235.0,      11.90,    15.64,    12.05,     8.95,    10.98
      236.0,      11.88,    15.59,    12.03,     8.94,    10.96
      237.0,      11.85,    15.54,    12.01,     8.92,    10.94
      238.0,      11.83,    15.48,    11.99,     8.91,    10.92
      239.0,      11.80,    15.43,    11.97,     8.90,    10.90
      240.0,      11.78,    15.38,    11.96,     8.89,    10.88
      241.0,      11.75,    15.33,    11.94,     8.87,    10.86
      242.0,      11.73,    15.27,    11.92,     8.86,    10.84
      243.0,      11.70,    15.22,    11.90,     8.85,    10.83
      244.0,      11.68,    15.17,    11.89,     8.84,    10.81
      245.0,      11.65,    15.12,    11.87,     8.83,    10.79
      246.0,      11.63,    15.07,    11.85,     8.81,    10.77
      247.0,      11.60,    15.02,    11.83,     8.80,    10.75
      248.0,      11.58,    14.97,    11.82,     8.79,    10.73
      249.0,      11.55,    14.92,    11.80,     8.78,    10.72
      250.0,      11.53,    14.87,    11.78,     8.76,    10.70
      251.0,      11.50,    14.82,    11.76,     8.75,    10.68
      252.0,      11.48,    14.76,    11.75,     8.74,    10.66
      253.0,      11.45,    14.72,    11.73,     8.73,    10.65
      254.0,      11.43,    14.67,    11.71,     8.72,    10.63
      255.0,      11.41,    14.62,    11.70,     8.70,    10.61
      256.0,      11.38,    14.57,    11.68,     8.69,    10.59
      257.0,      11.36,    14.52,    11.66,     8.68,    10.58
      258.0,      11.33,    14.47,    11.64,     8.67,    10.56
      259.0,      11.31,    14.42,    11.63,     8.66,    10.54
      260.0,      11.29,    14.37,    11.61,     8.64,    10.53
      261.0,      11.26,    14.32,    11.59,     8.63,    10.51
      262.0,      11.24,    14.27,    11.58,     8.62,    10.49
      263.0,      11.22,    14.23,    11.56,     8.61,    10.47
      264.0,      11.19,    14.18,    11.54,     8.60,    10.46
      265.0,      11.17,    14.13,    11.53,     8.58,    10.44
      266.0,      11.15,    14.08,    11.51,     8.57,    10.42
      267.0,      11.12,    14.03,    11.49,     8.56,    10.41
      268.0,      11.10,    13.99,    11.48,     8.55,    10.39
      269.0,      11.08,    13.94,    11.46,     8.54,    10.37
      270.0,      11.06,    13.89,    11.44,     8.53,    10.36
      271.0,      11.03,    13.85,    11.43,     8.51,    10.34
      272.0,      11.01,    13.80,    11.41,     8.50,    10.33
      273.0,      10.99,    13.75,    11.39,     8.49,    10.31
      274.0,      10.96,    13.71,    11.38,     8.48,    10.29
      275.0,      10.94,    13.66,    11.36,     8.47,    10.28
      276.0,      10.92,    13.61,    11.35,     8.46,    10.26
      277.0,      10.90,    13.57,    11.33,     8.44,    10.24
      278.0,      10.87,    13.52,    11.31,     8.43,    10.23
      279.0,      10.85,    13.48,    11.30,     8.42,    10.21
      280.0,      10.83,    13.43,    11.28,     8.41,    10.20
      281.0,      10.81,    13.39,    11.26,     8.40,    10.18
      282.0,      10.78,    13.34,    11.25,     8.39,    10.17
      283.0,      10.76,    13.30,    11.23,     8.37,    10.15
      284.0,      10.74,    13.25,    11.22,     8.36,    10.13
      285.0,      10.72,    13.21,    11.20,     8.35,    10.12
      286.0,      10.70,    13.16,    11.18,     8.34,    10.10
      287.0,      10.67,    13.12,    11.17,     8.33,    10.09
      288.0,      10.65,    13.07,    11.15,     8.32,    10.07
      289.0,      10.63,    13.03,    11.13,     8.31,    10.06
      290.0,      10.61,    12.99,    11.12,     8.29,    10.04
      291.0,      10.59,    12.94,    11.10,     8.28,    10.02
      292.0,      10.57,    12.90,    11.09,     8.27,    10.01
      293.0,      10.55,    12.86,    11.07,     8.26,     9.99
      294.0,      10.52,    12.81,    11.06,     8.25,     9.98
      295.0,      10.50,    12.77,    11.04,     8.24,     9.96
      296.0,      10.48,    12.73,    11.02,     8.23,     9.95
      297.0,      10.46,    12.68,    11.01,     8.21,     9.93
      298.0,      10.44,    12.64,    10.99,     8.20,     9.92
      299.0,      10.42,    12.60,    10.98,     8.19,     9.90
      300.0,      10.40,    12.56,    10.96,     8.18,     9.89
      301.0,      10.38,    12.51,    10.94,     8.17,     9.87
      302.0,      10.35,    12.47,    10.93,     8.16,     9.86
      303.0,      10.33,    12.43,    10.91,     8.15,     9.84
      304.0,      10.31,    12.39,    10.90,     8.14,     9.83
      305.0,      10.29,    12.35,    10.88,     8.12,     9.81
      306.0,      10.27,    12.30,    10.87,     8.11,     9.80
      307.0,      10.25,    12.26,    10.85,     8.10,     9.78
      308.0,      10.23,    12.22,    10.84,     8.09,     9.77
      309.0,      10.21,    12.18,    10.82,     8.08,     9.75
      310.0,      10.19,    12.14,    10.80,     8.07,     9.74
