Radius (km), Mean (m/s), NE (m/s), SE (m/s), SW (m/s), NW (m/s)
        0.0,       0.00,     0.00,     0.00,     0.00,     0.00
        1.0,       2.56,     2.55,     2.56,     2.56,     2.57
        2.0,       4.35,     4.34,     4.35,     4.35,     4.36
        3.0,       5.92,     5.92,     5.92,     5.92,     5.93
        4.0,       7.38,     7.38,     7.38,     7.38,     7.38
        5.0,       8.75,     8.76,     8.75,     8.75,     8.74
        6.0,      10.06,    10.07,    10.06,    10.06,    10.04
        7.0,      11.32,    11.34,    11.32,    11.32,    11.29
        8.0,      12.53,    12.56,    12.54,    12.54,    12.49
        9.0,      13.71,    13.75,    13.72,    13.72,    13.66
       10.0,      14.86,    14.90,    14.87,    14.87,    14.80
       11.0,      15.98,    16.03,    15.99,    15.99,    15.92
       12.0,      17.08,    17.14,    17.09,    17.09,    17.00
       13.0,      18.16,    18.23,    18.17,    18.17,    18.07
       14.0,      19.23,    19.30,    19.24,    19.23,    19.15
       15.0,      20.31,    20.38,    20.31,    20.29,    20.26
       16.0,      21.43,    21.50,    21.41,    21.38,    21.44
       17.0,      22.63,    22.69,    22.58,    22.52,    22.72
       18.0,      23.91,    23.95,    23.83,    23.74,    24.10
       19.0,      25.26,    25.30,    25.15,    25.04,    25.56
       20.0,      26.67,    26.69,    26.53,    26.40,    27.06
       21.0,      28.08,    28.10,    27.92,    27.78,    28.53
       22.0,      29.43,    29.45,    29.26,    29.13,    29.90
       23.0,      30.67,    30.69,    30.49,    30.38,    31.11
       24.0,      31.73,    31.76,    31.57,    31.49,    32.11
       25.0,      32.58,    32.63,    32.45,    32.40,    32.86
       26.0,      33.21,    33.28,    33.10,    33.08,    33.36
       27.0,      33.60,    33.71,    33.54,    33.54,    33.62
       28.0,      33.79,    33.94,    33.77,    33.78,    33.68
       29.0,      33.82,    34.01,    33.84,    33.85,    33.58
       30.0,      33.73,    33.97,    33.79,    33.78,    33.39
       31.0,      33.57,    33.85,    33.67,    33.63,    33.14
       32.0,      33.38,    33.70,    33.52,    33.43,    32.87
       33.0,      33.18,    33.55,    33.36,    33.22,    32.61
       34.0,      33.00,    33.41,    33.20,    33.03,    32.35
       35.0,      32.82,    33.27,    33.06,    32.84,    32.11
       36.0,      32.65,    33.14,    32.93,    32.67,    31.88
       37.0,      32.49,    33.02,    32.79,    32.50,    31.65
       38.0,      32.32,    32.89,    32.66,    32.33,    31.42
       39.0,      32.16,    32.76,    32.53,    32.16,    31.20
       40.0,      32.00,    32.64,    32.40,    32.00,    30.98
       41.0,      31.84,    32.51,    32.27,    31.83,    30.77
       42.0,      31.69,    32.39,    32.14,    31.67,    30.56
       43.0,      31.53,    32.27,    32.01,    31.51,    30.35
       44.0,      31.38,    32.14,    31.88,    31.35,    30.14
       45.0,      31.23,    32.02,    31.75,    31.19,    29.94
       46.0,      31.08,    31.90,    31.63,    31.03,    29.75
       47.0,      30.93,    31.78,    31.50,    30.87,    29.55
       48.0,      30.78,    31.66,    31.37,    30.72,    29.36
       49.0,      30.63,    31.54,    31.25,    30.56,    29.18
       50.0,      30.49,    31.43,    31.13,    30.41,    28.99
       51.0,      30.34,    31.31,    31.00,    30.26,    28.81
       52.0,      30.20,    31.19,    30.88,    30.10,    28.64
       53.0,      30.06,    31.07,    30.76,    29.96,    28.46
       54.0,      29.92,    30.96,    30.64,    29.81,    28.29
       55.0,      29.79,    30.84,    30.52,    29.66,    28.12
       56.0,      29.65,    30.73,    30.40,    29.51,    27.96
       57.0,      29.51,    30.62,    30.28,    29.37,    27.79
       58.0,      29.38,    30.50,    30.16,    29.22,    27.63
       59.0,      29.25,    30.39,    30.04,    29.08,    27.48
       60.0,      29.12,    30.28,    29.92,    28.94,    27.32
       61.0,      28.99,    30.17,    29.81,    28.80,    27.17
       62.0,      28.86,    30.06,    29.69,    28.66,    27.02
       63.0,      28.73,    29.94,    29.57,    28.52,    26.87
       64.0,      28.60,    29.84,    29.46,    28.38,    26.73
       65.0,      28.48,    29.73,    29.35,    28.25,    26.58
       66.0,      28.35,    29.62,    29.23,    28.11,    26.44
       67.0,      28.23,    29.51,    29.12,    27.98,    26.31
       68.0,      28.11,    29.40,    29.01,    27.84,    26.17
       69.0,      27.99,    29.30,    28.90,    27.71,    26.04
       70.0,      27.87,    29.19,    28.78,    27.58,    25.91
       71.0,      27.75,    29.08,    28.67,    27.45,    25.78
       72.0,      27.63,    28.98,    28.56,    27.32,    25.65
       73.0,      27.51,    28.87,    28.46,    27.19,    25.52
       74.0,      27.40,    28.77,    28.35,    27.07,    25.40
       75.0,      27.28,    28.67,    28.24,    26.94,    25.28
       76.0,      27.17,    28.56,    28.13,    26.81,    25.16
       77.0,      27.05,    28.46,    28.02,    26.69,    25.04
       78.0,      26.94,    28.36,    27.92,    26.56,    24.93
       79.0,      26.83,    28.26,    27.81,    26.44,    24.81
       80.0,      26.72,    28.16,    27.71,    26.32,    24.70
       81.0,      26.61,    28.06,    27.60,    26.20,    24.59
       82.0,      26.50,    27.96,    27.50,    26.08,    24.48
       83.0,      26.40,    27.86,    27.39,    25.96,    24.38
       84.0,      26.29,    27.76,    27.29,    25.84,    24.27
       85.0,      26.19,    27.66,    27.19,    25.72,    24.17
       86.0,      26.08,    27.56,    27.09,    25.61,    24.07
       87.0,      25.98,    27.47,    26.99,    25.49,    23.97
       88.0,      25.87,    27.37,    26.89,    25.37,    23.87
       89.0,      25.77,    27.27,    26.78,    25.26,    23.77
       90.0,      25.67,    27.18,    26.69,    25.15,    23.67
       91.0,      25.57,    27.08,    26.59,    25.03,    23.58
       92.0,      25.47,    26.99,    26.49,    24.92,    23.48
       93.0,      25.37,    26.90,    26.39,    24.81,    23.39
       94.0,      25.27,    26.80,    26.29,    24.70,    23.30
       95.0,      25.18,    26.71,    26.19,    24.59,    23.21
       96.0,      25.08,    26.62,    26.10,    24.48,    23.12
       97.0,      24.98,    26.52,    26.00,    24.37,    23.04
       98.0,      24.89,    26.43,    25.91,    24.27,    22.95
       99.0,      24.79,    26.34,    25.81,    24.16,    22.87
      100.0,      24.70,    26.25,    25.72,    24.05,    22.79
      101.0,      24.61,    26.16,    25.62,    23.95,    22.70
      102.0,      24.52,    26.07,    25.53,    23.84,    22.62
      103.0,      24.42,    25.98,    25.43,    23.74,    22.54
      104.0,      24.33,    25.89,    25.34,    23.64,    22.46
      105.0,      24.24,    25.80,    25.25,    23.54,    22.39
      106.0,      24.15,    25.71,    25.16,    23.43,    22.31
      107.0,      24.07,    25.63,    25.07,    23.33,    22.24
      108.0,      23.98,    25.54,    24.98,    23.23,    22.16
      109.0,      23.89,    25.45,    24.89,    23.13,    22.09
      110.0,      23.80,    25.36,    24.80,    23.03,    22.02
      111.0,      23.72,    25.28,    24.71,    22.94,    21.94
      112.0,      23.63,    25.19,    24.62,    22.84,    21.87
      113.0,      23.55,    25.11,    24.53,    22.74,    21.80
      114.0,      23.46,    25.02,    24.44,    22.65,    21.74
      115.0,      23.38,    24.94,    24.35,    22.55,    21.67
      116.0,      23.29,    24.85,    24.27,    22.46,    21.60
      117.0,      23.21,    24.77,    24.18,    22.36,    21.54
      118.0,      23.13,    24.69,    24.09,    22.27,    21.47
      119.0,      23.05,    24.61,    24.01,    22.17,    21.41
      120.0,      22.97,    24.52,    23.92,    22.08,    21.34
      121.0,      22.89,    24.44,    23.84,    21.99,    21.28
      122.0,      22.81,    24.36,    23.75,    21.90,    21.22
      123.0,      22.73,    24.28,    23.67,    21.81,    21.16
      124.0,      22.65,    24.20,    23.58,    21.72,    21.10
      125.0,      22.57,    24.12,    23.50,    21.63,    21.04
      126.0,      22.49,    24.04,    23.42,    21.54,    20.98
      127.0,      22.42,    23.96,    23.34,    21.45,    20.92
      128.0,      22.34,    23.88,    23.25,    21.36,    20.86
      129.0,      22.26,    23.80,    23.17,    21.28,    20.80
      130.0,      22.19,    23.72,    23.09,    21.19,    20.75
      131.0,      22.11,    23.64,    23.01,    21.10,    20.69
      132.0,      22.04,    23.56,    22.93,    21.02,    20.64
      133.0,      21.96,    23.49,    22.85,    20.93,    20.58
      134.0,      21.89,    23.41,    22.77,    20.85,    20.53
      135.0,      21.82,    23.33,    22.69,    20.76,    20.48
      136.0,      21.74,    23.26,    22.61,    20.68,    20.42
      137.0,      21.67,    23.18,    22.53,    20.60,    20.37
      138.0,      21.60,    23.11,    22.45,    20.51,    20.32
      139.0,      21.53,    23.03,    22.38,    20.43,    20.27
      140.0,      21.46,    22.96,    22.30,    20.35,    20.22
      141.0,      21.39,    22.88,    22.22,    20.27,    20.17
      142.0,      21.32,    22.81,    22.15,    20.19,    20.12
      143.0,      21.25,    22.73,    22.07,    20.11,    20.07
      144.0,      21.18,    22.66,    21.99,    20.03,    20.02
      145.0,      21.11,    22.59,    21.92,    19.95,    19.98
      146.0,      21.04,    22.51,    21.84,    19.87,    19.93
      147.0,      20.97,    22.44,    21.77,    19.79,    19.88
      148.0,      20.90,    22.37,    21.69,    19.72,    19.84
      149.0,      20.84,    22.30,    21.62,    19.64,    19.79
      150.0,      20.77,    22.23,    21.55,    19.56,    19.75
      151.0,      20.70,    22.15,    21.47,    19.49,    19.70
      152.0,      20.64,    22.08,    21.40,    19.41,    19.66
      153.0,      20.57,    22.01,    21.33,    19.33,    19.61
      154.0,      20.51,    21.94,    21.25,    19.26,    19.57
      155.0,      20.44,    21.87,    21.18,    19.19,    19.53
      156.0,      20.38,    21.80,    21.11,    19.11,    19.48
      157.0,      20.31,    21.73,    21.04,    19.04,    19.44
      158.0,      20.25,    21.67,    20.97,    18.96,    19.40
      159.0,      20.19,    21.60,    20.90,    18.89,    19.36
      160.0,      20.12,    21.53,    20.83,    18.82,    19.32
      161.0,      20.06,    21.46,    20.76,    18.75,    19.28
      162.0,      20.00,    21.39,    20.69,    18.68,    19.24
      163.0,      19.94,    21.33,    20.62,    18.61,    19.20
      164.0,      19.88,    21.26,    20.55,    18.53,    19.16
      165.0,      19.81,    21.19,    20.48,    18.46,    19.12
      166.0,      19.75,    21.12,    20.41,    18.39,    19.08
      167.0,      19.69,    21.06,    20.35,    18.32,    19.04
      168.0,      19.63,    20.99,    20.28,    18.26,    19.00
      169.0,      19.57,    20.93,    20.21,    18.19,    18.96
      170.0,      19.51,    20.86,    20.14,    18.12,    18.93
      171.0,      19.45,    20.80,    20.08,    18.05,    18.89
      172.0,      19.39,    20.73,    20.01,    17.98,    18.85
      173.0,      19.34,    20.67,    19.94,    17.92,    18.82
      174.0,      19.28,    20.60,    19.88,    17.85,    18.78
      175.0,      19.22,    20.54,    19.81,    17.78,    18.74
      176.0,      19.16,    20.48,    19.75,    17.72,    18.71
      177.0,      19.10,    20.41,    19.68,    17.65,    18.67
      178.0,      19.05,    20.35,    19.62,    17.59,    18.64
      179.0,      18.99,    20.29,    19.55,    17.52,    18.60
      180.0,      18.93,    20.22,    19.49,    17.46,    18.57
      181.0,      18.88,    20.16,    19.43,    17.39,    18.53
      182.0,      18.82,    20.10,    19.36,    17.33,    18.50
      183.0,      18.77,    20.04,    19.30,    17.27,    18.46
      184.0,      18.71,    19.98,    19.24,    17.20,    18.43
      185.0,      18.66,    19.92,    19.17,    17.14,    18.40
      186.0,      18.60,    19.85,    19.11,    17.08,    18.36
      187.0,      18.55,    19.79,    19.05,    17.01,    18.33
      188.0,      18.49,    19.73,    18.99,    16.95,    18.30
      189.0,      18.44,    19.67,    18.93,    16.89,    18.26
      190.0,      18.38,    19.61,    18.86,    16.83,    18.23
      191.0,      18.33,    19.55,    18.80,    16.77,    18.20
      192.0,      18.28,    19.49,    18.74,    16.71,    18.17
      193.0,      18.23,    19.43,    18.68,    16.65,    18.14
      194.0,      18.17,    19.38,    18.62,    16.59,    18.10
      195.0,      18.12,    19.32,    18.56,    16.53,    18.07
      196.0,      18.07,    19.26,    18.50,    16.47,    18.04
      197.0,      18.02,    19.20,    18.44,    16.41,    18.01
      198.0,      17.96,    19.14,    18.38,    16.35,    17.98
      199.0,      17.91,    19.09,    18.33,    16.29,    17.95
      200.0,      17.86,    19.03,    18.27,    16.24,    17.92
      201.0,      17.81,    18.97,    18.21,    16.18,    17.89
      202.0,      17.76,    18.91,    18.15,    16.12,    17.86
      203.0,      17.71,    18.86,    18.09,    16.06,    17.83
      204.0,      17.66,    18.80,    18.03,    16.01,    17.80
      205.0,      17.61,    18.74,    17.98,    15.95,    17.77
      206.0,      17.56,    18.69,    17.92,    15.89,    17.74
      207.0,      17.51,    18.63,    17.86,    15.84,    17.71
      208.0,      17.46,    18.58,    17.81,    15.78,    17.68
      209.0,      17.41,    18.52,    17.75,    15.73,    17.65
      210.0,      17.36,    18.47,    17.69,    15.67,    17.62
      211.0,      17.32,    18.41,    17.64,    15.62,    17.60
      212.0,      17.27,    18.36,    17.58,    15.56,    17.57
      213.0,      17.22,    18.30,    17.53,    15.51,    17.54
      214.0,      17.17,    18.25,    17.47,    15.45,    17.51
      215.0,      17.12,    18.19,    17.42,    15.40,    17.48
      216.0,      17.08,    18.14,    17.36,    15.35,    17.46
      217.0,      17.03,    18.09,    17.31,    15.29,    17.43
      218.0,      16.98,    18.03,    17.26,    15.24,    17.40
      219.0,      16.94,    17.98,    17.20,    15.19,    17.37
      220.0,      16.89,    17.93,    17.15,    15.13,    17.35
      221.0,      16.84,    17.87,    17.09,    15.08,    17.32
      222.0,      16.80,    17.82,    17.04,    15.03,    17.29
      223.0,      16.75,    17.77,    16.99,    14.98,    17.26
      224.0,      16.70,    17.72,    16.94,    14.93,    17.24
      225.0,      16.66,    17.67,    16.88,    14.88,    17.21
      226.0,      16.61,    17.61,    16.83,    14.82,    17.18
      227.0,      16.57,    17.56,    16.78,    14.77,    17.16
      228.0,      16.52,    17.51,    16.73,    14.72,    17.13
      229.0,      16.48,    17.46,    16.67,    14.67,    17.11
      230.0,      16.43,    17.41,    16.62,    14.62,    17.08
      231.0,      16.39,    17.36,    16.57,    14.57,    17.05
      232.0,      16.35,    17.31,    16.52,    14.52,    17.03
      233.0,      16.30,    17.26,    16.47,    14.47,    17.00
      234.0,      16.26,    17.21,    16.42,    14.43,    16.98
      235.0,      16.21,    17.16,    16.37,    14.38,    16.95
      236.0,      16.17,    17.11,    16.32,    14.33,    16.93
      237.0,      16.13,    17.06,    16.27,    14.28,    16.90
      238.0,      16.08,    17.01,    16.22,    14.23,    16.88
      239.0,      16.04,    16.96,    16.17,    14.18,    16.85
      240.0,      16.00,    16.91,    16.12,    14.14,    16.83
      241.0,      15.96,    16.86,    16.07,    14.09,    16.80
      242.0,      15.91,    16.81,    16.02,    14.04,    16.78
      243.0,      15.87,    16.77,    15.97,    13.99,    16.75
      244.0,      15.83,    16.72,    15.92,    13.95,    16.73
      245.0,      15.79,    16.67,    15.88,    13.90,    16.70
      246.0,      15.75,    16.62,    15.83,    13.85,    16.68
      247.0,      15.70,    16.57,    15.78,    13.81,    16.65
      248.0,      15.66,    16.53,    15.73,    13.76,    16.63
      249.0,      15.62,    16.48,    15.68,    13.72,    16.60
      250.0,      15.58,    16.43,    15.64,    13.67,    16.58
      251.0,      15.54,    16.39,    15.59,    13.62,    16.56
      252.0,      15.50,    16.34,    15.54,    13.58,    16.53
      253.0,      15.46,    16.29,    15.50,    13.53,    16.51
      254.0,      15.42,    16.25,    15.45,    13.49,    16.49
      255.0,      15.38,    16.20,    15.40,    13.44,    16.46
      256.0,      15.34,    16.15,    15.36,    13.40,    16.44
      257.0,      15.30,    16.11,    15.31,    13.36,    16.41
      258.0,      15.26,    16.06,    15.27,    13.31,    16.39
      259.0,      15.22,    16.02,    15.22,    13.27,    16.37
      260.0,      15.18,    15.97,    15.17,    13.22,    16.34
      261.0,      15.14,    15.93,    15.13,    13.18,    16.32
      262.0,      15.10,    15.88,    15.08,    13.14,    16.30
      263.0,      15.06,    15.84,    15.04,    13.10,    16.27
      264.0,      15.02,    15.79,    14.99,    13.05,    16.25
      265.0,      14.98,    15.75,    14.95,    13.01,    16.23
      266.0,      14.95,    15.70,    14.90,    12.97,    16.21
      267.0,      14.91,    15.66,    14.86,    12.92,    16.18
      268.0,      14.87,    15.62,    14.82,    12.88,    16.16
      269.0,      14.83,    15.57,    14.77,    12.84,    16.14
      270.0,      14.79,    15.53,    14.73,    12.80,    16.12
      271.0,      14.75,    15.48,    14.68,    12.76,    16.09
      272.0,      14.72,    15.44,    14.64,    12.72,    16.07
      273.0,      14.68,    15.40,    14.60,    12.67,    16.05
      274.0,      14.64,    15.36,    14.56,    12.63,    16.03
      275.0,      14.61,    15.31,    14.51,    12.59,    16.00
      276.0,      14.57,    15.27,    14.47,    12.55,    15.98
      277.0,      14.53,    15.23,    14.43,    12.51,    15.96
      278.0,      14.49,    15.18,    14.38,    12.47,    15.94
      279.0,      14.46,    15.14,    14.34,    12.43,    15.91
      280.0,      14.42,    15.10,    14.30,    12.39,    15.89
      281.0,      14.38,    15.06,    14.26,    12.35,    15.87
      282.0,      14.35,    15.02,    14.22,    12.31,    15.85
      283.0,      14.31,    14.97,    14.18,    12.27,    15.83
      284.0,      14.28,    14.93,    14.13,    12.23,    15.81
      285.0,      14.24,    14.89,    14.09,    12.19,    15.78
      286.0,      14.20,    14.85,    14.05,    12.15,    15.76
      287.0,      14.17,    14.81,    14.01,    12.12,    15.74
      288.0,      14.13,    14.77,    13.97,    12.08,    15.72
      289.0,      14.10,    14.73,    13.93,    12.04,    15.70
      290.0,      14.06,    14.69,    13.89,    12.00,    15.68
      291.0,      14.03,    14.65,    13.85,    11.96,    15.65
      292.0,      13.99,    14.61,    13.81,    11.92,    15.63
      293.0,      13.96,    14.57,    13.77,    11.89,    15.61
      294.0,      13.92,    14.53,    13.73,    11.85,    15.59
      295.0,      13.89,    14.49,    13.69,    11.81,    15.57
      296.0,      13.85,    14.45,    13.65,    11.77,    15.55
      297.0,      13.82,    14.41,    13.61,    11.73,    15.53
      298.0,      13.79,    14.37,    13.57,    11.70,    15.51
      299.0,      13.75,    14.33,    13.53,    11.66,    15.48
      300.0,      13.72,    14.29,    13.49,    11.62,    15.46
      301.0,      13.68,    14.25,    13.45,    11.59,    15.44
      302.0,      13.65,    14.21,    13.41,    11.55,    15.42
      303.0,      13.62,    14.17,    13.38,    11.51,    15.40
      304.0,      13.58,    14.13,    13.34,    11.48,    15.38
      305.0,      13.55,    14.10,    13.30,    11.44,    15.36
      306.0,      13.52,    14.06,    13.26,    11.41,    15.34
      307.0,      13.48,    14.02,    13.22,    11.37,    15.32
      308.0,      13.45,    13.98,    13.18,    11.33,    15.30
      309.0,      13.42,    13.94,    13.15,    11.30,    15.28
      310.0,      13.38,    13.90,    13.11,    11.26,    15.26
