Radius (km), Mean (m/s), NE (m/s), SE (m/s), SW (m/s), NW (m/s)
        0.0,       0.00,     0.00,     0.00,     0.00,     0.00
        1.0,       3.42,     3.37,     3.42,     3.46,     3.42
        2.0,       5.70,     5.73,     5.70,     5.66,     5.71
        3.0,       7.72,     7.86,     7.70,     7.56,     7.75
        4.0,       9.65,     9.94,     9.59,     9.33,     9.73
        5.0,      11.59,    12.06,    11.48,    11.07,    11.73
        6.0,      13.59,    14.27,    13.43,    12.85,    13.82
        7.0,      15.69,    16.57,    15.48,    14.72,    15.99
        8.0,      17.86,    18.93,    17.61,    16.65,    18.22
        9.0,      20.03,    21.28,    19.78,    18.63,    20.44
       10.0,      22.14,    23.52,    21.90,    20.59,    22.57
       11.0,      24.10,    25.57,    23.89,    22.43,    24.50
       12.0,      25.80,    27.34,    25.65,    24.07,    26.16
       13.0,      27.21,    28.78,    27.10,    25.45,    27.50
       14.0,      28.26,    29.84,    28.21,    26.50,    28.47
       15.0,      28.95,    30.55,    28.95,    27.22,    29.10
       16.0,      29.32,    30.94,    29.35,    27.61,    29.40
       17.0,      29.42,    31.06,    29.44,    27.71,    29.45
       18.0,      29.30,    30.99,    29.31,    27.58,    29.30
       19.0,      29.04,    30.80,    29.02,    27.30,    29.04
       20.0,      28.71,    30.55,    28.65,    26.92,    28.72
       21.0,      28.36,    30.28,    28.25,    26.52,    28.38
       22.0,      28.01,    30.02,    27.85,    26.11,    28.04
       23.0,      27.67,    29.76,    27.48,    25.73,    27.73
       24.0,      27.36,    29.52,    27.13,    25.37,    27.42
       25.0,      27.06,    29.28,    26.79,    25.03,    27.12
       26.0,      26.76,    29.04,    26.47,    24.71,    26.83
       27.0,      26.47,    28.81,    26.15,    24.39,    26.54
       28.0,      26.19,    28.58,    25.85,    24.09,    26.26
       29.0,      25.92,    28.35,    25.55,    23.79,    25.98
       30.0,      25.65,    28.13,    25.27,    23.51,    25.71
       31.0,      25.40,    27.91,    24.99,    23.24,    25.45
       32.0,      25.14,    27.69,    24.73,    22.97,    25.19
       33.0,      24.90,    27.48,    24.47,    22.71,    24.93
       34.0,      24.66,    27.26,    24.22,    22.47,    24.68
       35.0,      24.42,    27.06,    23.98,    22.23,    24.44
       36.0,      24.20,    26.85,    23.74,    21.99,    24.20
       37.0,      23.97,    26.65,    23.51,    21.77,    23.96
       38.0,      23.76,    26.45,    23.29,    21.55,    23.74
       39.0,      23.55,    26.26,    23.08,    21.34,    23.51
       40.0,      23.34,    26.06,    22.87,    21.14,    23.29
       41.0,      23.14,    25.87,    22.67,    20.94,    23.07
       42.0,      22.94,    25.69,    22.48,    20.75,    22.86
       43.0,      22.75,    25.50,    22.29,    20.56,    22.65
       44.0,      22.56,    25.32,    22.11,    20.38,    22.45
       45.0,      22.38,    25.14,    21.93,    20.21,    22.25
       46.0,      22.20,    24.96,    21.75,    20.04,    22.06
       47.0,      22.03,    24.79,    21.59,    19.88,    21.87
       48.0,      21.86,    24.62,    21.42,    19.72,    21.68
       49.0,      21.69,    24.45,    21.27,    19.56,    21.49
       50.0,      21.53,    24.28,    21.11,    19.41,    21.31
       51.0,      21.37,    24.12,    20.96,    19.27,    21.14
       52.0,      21.22,    23.95,    20.82,    19.13,    20.96
       53.0,      21.06,    23.79,    20.67,    18.99,    20.80
       54.0,      20.91,    23.64,    20.54,    18.86,    20.63
       55.0,      20.77,    23.48,    20.40,    18.73,    20.47
       56.0,      20.63,    23.33,    20.27,    18.60,    20.31
       57.0,      20.49,    23.18,    20.15,    18.48,    20.15
       58.0,      20.35,    23.03,    20.02,    18.36,    20.00
       59.0,      20.22,    22.88,    19.90,    18.24,    19.85
       60.0,      20.09,    22.74,    19.79,    18.13,    19.70
       61.0,      19.96,    22.59,    19.67,    18.02,    19.55
       62.0,      19.83,    22.45,    19.56,    17.91,    19.41
       63.0,      19.71,    22.32,    19.45,    17.81,    19.27
       64.0,      19.59,    22.18,    19.35,    17.70,    19.14
       65.0,      19.47,    22.05,    19.24,    17.61,    19.00
       66.0,      19.36,    21.91,    19.14,    17.51,    18.87
       67.0,      19.25,    21.78,    19.04,    17.41,    18.74
       68.0,      19.13,    21.65,    18.95,    17.32,    18.62
       69.0,      19.03,    21.53,    18.85,    17.23,    18.49
       70.0,      18.92,    21.40,    18.76,    17.14,    18.37
       71.0,      18.81,    21.28,    18.67,    17.06,    18.25
       72.0,      18.71,    21.15,    18.58,    16.97,    18.13
       73.0,      18.61,    21.03,    18.50,    16.89,    18.02
       74.0,      18.51,    20.92,    18.41,    16.81,    17.91
       75.0,      18.41,    20.80,    18.33,    16.73,    17.80
       76.0,      18.32,    20.68,    18.25,    16.65,    17.69
       77.0,      18.23,    20.57,    18.17,    16.58,    17.58
       78.0,      18.13,    20.46,    18.10,    16.50,    17.48
       79.0,      18.04,    20.35,    18.02,    16.43,    17.38
       80.0,      17.95,    20.24,    17.95,    16.36,    17.28
       81.0,      17.87,    20.13,    17.87,    16.29,    17.18
       82.0,      17.78,    20.03,    17.80,    16.22,    17.08
       83.0,      17.70,    19.92,    17.73,    16.15,    16.99
       84.0,      17.62,    19.82,    17.66,    16.09,    16.89
       85.0,      17.53,    19.72,    17.60,    16.02,    16.80
       86.0,      17.45,    19.62,    17.53,    15.96,    16.71
       87.0,      17.38,    19.52,    17.47,    15.89,    16.62
       88.0,      17.30,    19.42,    17.40,    15.83,    16.54
       89.0,      17.22,    19.32,    17.34,    15.77,    16.45
       90.0,      17.15,    19.23,    17.28,    15.71,    16.37
       91.0,      17.07,    19.13,    17.22,    15.65,    16.29
       92.0,      17.00,    19.04,    17.16,    15.60,    16.21
       93.0,      16.93,    18.95,    17.10,    15.54,    16.13
       94.0,      16.86,    18.86,    17.04,    15.48,    16.05
       95.0,      16.79,    18.77,    16.98,    15.43,    15.98
       96.0,      16.72,    18.68,    16.93,    15.37,    15.90
       97.0,      16.65,    18.60,    16.87,    15.32,    15.83
       98.0,      16.59,    18.51,    16.82,    15.27,    15.76
       99.0,      16.52,    18.43,    16.76,    15.21,    15.69
      100.0,      16.46,    18.34,    16.71,    15.16,    15.62
      101.0,      16.40,    18.26,    16.66,    15.11,    15.55
      102.0,      16.33,    18.18,    16.61,    15.06,    15.48
      103.0,      16.27,    18.10,    16.56,    15.01,    15.41
      104.0,      16.21,    18.02,    16.51,    14.96,    15.35
      105.0,      16.15,    17.94,    16.46,    14.91,    15.29
      106.0,      16.09,    17.87,    16.41,    14.87,    15.22
      107.0,      16.03,    17.79,    16.36,    14.82,    15.16
      108.0,      15.98,    17.72,    16.31,    14.77,    15.10
      109.0,      15.92,    17.64,    16.26,    14.73,    15.04
      110.0,      15.86,    17.57,    16.22,    14.68,    14.98
      111.0,      15.81,    17.50,    16.17,    14.64,    14.93
      112.0,      15.75,    17.43,    16.13,    14.59,    14.87
      113.0,      15.70,    17.36,    16.08,    14.55,    14.81
      114.0,      15.65,    17.29,    16.04,    14.50,    14.76
      115.0,      15.59,    17.22,    15.99,    14.46,    14.71
      116.0,      15.54,    17.15,    15.95,    14.42,    14.65
      117.0,      15.49,    17.09,    15.90,    14.37,    14.60
      118.0,      15.44,    17.02,    15.86,    14.33,    14.55
      119.0,      15.39,    16.96,    15.82,    14.29,    14.50
      120.0,      15.34,    16.89,    15.78,    14.25,    14.45
      121.0,      15.29,    16.83,    15.73,    14.20,    14.40
      122.0,      15.24,    16.77,    15.69,    14.16,    14.35
      123.0,      15.20,    16.70,    15.65,    14.12,    14.31
      124.0,      15.15,    16.64,    15.61,    14.08,    14.26
      125.0,      15.10,    16.58,    15.57,    14.04,    14.22
      126.0,      15.06,    16.52,    15.53,    14.00,    14.17
      127.0,      15.01,    16.46,    15.49,    13.96,    14.13
      128.0,      14.97,    16.41,    15.45,    13.92,    14.08
      129.0,      14.92,    16.35,    15.41,    13.89,    14.04
      130.0,      14.88,    16.29,    15.37,    13.85,    14.00
      131.0,      14.83,    16.24,    15.33,    13.81,    13.96
      132.0,      14.79,    16.18,    15.29,    13.77,    13.92
      133.0,      14.75,    16.13,    15.26,    13.73,    13.88
      134.0,      14.71,    16.07,    15.22,    13.69,    13.84
      135.0,      14.66,    16.02,    15.18,    13.66,    13.80
      136.0,      14.62,    15.97,    15.14,    13.62,    13.76
      137.0,      14.58,    15.92,    15.11,    13.58,    13.72
      138.0,      14.54,    15.86,    15.07,    13.55,    13.68
      139.0,      14.50,    15.81,    15.03,    13.51,    13.65
      140.0,      14.46,    15.76,    15.00,    13.47,    13.61
      141.0,      14.42,    15.71,    14.96,    13.44,    13.57
      142.0,      14.38,    15.66,    14.92,    13.40,    13.54
      143.0,      14.34,    15.62,    14.89,    13.36,    13.50
      144.0,      14.30,    15.57,    14.85,    13.33,    13.47
      145.0,      14.27,    15.52,    14.82,    13.29,    13.44
      146.0,      14.23,    15.47,    14.78,    13.26,    13.40
      147.0,      14.19,    15.43,    14.75,    13.22,    13.37
      148.0,      14.15,    15.38,    14.71,    13.19,    13.34
      149.0,      14.12,    15.34,    14.68,    13.15,    13.31
      150.0,      14.08,    15.29,    14.64,    13.12,    13.27
      151.0,      14.05,    15.25,    14.61,    13.08,    13.24
      152.0,      14.01,    15.20,    14.57,    13.05,    13.21
      153.0,      13.97,    15.16,    14.54,    13.02,    13.18
      154.0,      13.94,    15.12,    14.51,    12.98,    13.15
      155.0,      13.90,    15.08,    14.47,    12.95,    13.12
      156.0,      13.87,    15.03,    14.44,    12.92,    13.09
      157.0,      13.84,    14.99,    14.40,    12.88,    13.06
      158.0,      13.80,    14.95,    14.37,    12.85,    13.04
      159.0,      13.77,    14.91,    14.34,    12.81,    13.01
      160.0,      13.73,    14.87,    14.30,    12.78,    12.98
      161.0,      13.70,    14.83,    14.27,    12.75,    12.95
      162.0,      13.67,    14.79,    14.24,    12.72,    12.93
      163.0,      13.64,    14.75,    14.21,    12.68,    12.90
      164.0,      13.60,    14.72,    14.17,    12.65,    12.87
      165.0,      13.57,    14.68,    14.14,    12.62,    12.85
      166.0,      13.54,    14.64,    14.11,    12.59,    12.82
      167.0,      13.51,    14.60,    14.08,    12.55,    12.80
      168.0,      13.48,    14.57,    14.04,    12.52,    12.77
      169.0,      13.44,    14.53,    14.01,    12.49,    12.75
      170.0,      13.41,    14.49,    13.98,    12.46,    12.72
      171.0,      13.38,    14.46,    13.95,    12.43,    12.70
      172.0,      13.35,    14.42,    13.92,    12.39,    12.67
      173.0,      13.32,    14.39,    13.89,    12.36,    12.65
      174.0,      13.29,    14.35,    13.85,    12.33,    12.62
      175.0,      13.26,    14.32,    13.82,    12.30,    12.60
      176.0,      13.23,    14.29,    13.79,    12.27,    12.58
      177.0,      13.20,    14.25,    13.76,    12.24,    12.56
      178.0,      13.17,    14.22,    13.73,    12.21,    12.53
      179.0,      13.14,    14.19,    13.70,    12.17,    12.51
      180.0,      13.11,    14.15,    13.67,    12.14,    12.49
      181.0,      13.08,    14.12,    13.64,    12.11,    12.47
      182.0,      13.06,    14.09,    13.61,    12.08,    12.45
      183.0,      13.03,    14.06,    13.58,    12.05,    12.42
      184.0,      13.00,    14.03,    13.55,    12.02,    12.40
      185.0,      12.97,    14.00,    13.52,    11.99,    12.38
      186.0,      12.94,    13.97,    13.48,    11.96,    12.36
      187.0,      12.92,    13.94,    13.45,    11.93,    12.34
      188.0,      12.89,    13.91,    13.42,    11.90,    12.32
      189.0,      12.86,    13.88,    13.39,    11.87,    12.30
      190.0,      12.83,    13.85,    13.36,    11.84,    12.28
      191.0,      12.81,    13.82,    13.33,    11.81,    12.26
      192.0,      12.78,    13.79,    13.31,    11.78,    12.24
      193.0,      12.75,    13.76,    13.28,    11.75,    12.22
      194.0,      12.73,    13.73,    13.25,    11.72,    12.20
      195.0,      12.70,    13.70,    13.22,    11.69,    12.18
      196.0,      12.67,    13.68,    13.19,    11.66,    12.16
      197.0,      12.65,    13.65,    13.16,    11.63,    12.15
      198.0,      12.62,    13.62,    13.13,    11.60,    12.13
      199.0,      12.59,    13.59,    13.10,    11.58,    12.11
      200.0,      12.57,    13.57,    13.07,    11.55,    12.09
      201.0,      12.54,    13.54,    13.04,    11.52,    12.07
      202.0,      12.52,    13.51,    13.01,    11.49,    12.05
      203.0,      12.49,    13.49,    12.98,    11.46,    12.04
      204.0,      12.47,    13.46,    12.95,    11.43,    12.02
      205.0,      12.44,    13.44,    12.93,    11.40,    12.00
      206.0,      12.42,    13.41,    12.90,    11.37,    11.98
      207.0,      12.39,    13.38,    12.87,    11.34,    11.97
      208.0,      12.37,    13.36,    12.84,    11.32,    11.95
      209.0,      12.34,    13.33,    12.81,    11.29,    11.93
      210.0,      12.32,    13.31,    12.78,    11.26,    11.91
      211.0,      12.29,    13.28,    12.76,    11.23,    11.90
      212.0,      12.27,    13.26,    12.73,    11.20,    11.88
      213.0,      12.24,    13.24,    12.70,    11.18,    11.86
      214.0,      12.22,    13.21,    12.67,    11.15,    11.85
      215.0,      12.20,    13.19,    12.64,    11.12,    11.83
      216.0,      12.17,    13.17,    12.62,    11.09,    11.82
      217.0,      12.15,    13.14,    12.59,    11.06,    11.80
      218.0,      12.12,    13.12,    12.56,    11.04,    11.78
      219.0,      12.10,    13.10,    12.53,    11.01,    11.77
      220.0,      12.08,    13.07,    12.50,    10.98,    11.75
      221.0,      12.05,    13.05,    12.48,    10.95,    11.74
      222.0,      12.03,    13.03,    12.45,    10.93,    11.72
      223.0,      12.01,    13.01,    12.42,    10.90,    11.71
      224.0,      11.99,    12.98,    12.39,    10.87,    11.69
      225.0,      11.96,    12.96,    12.37,    10.84,    11.67
      226.0,      11.94,    12.94,    12.34,    10.82,    11.66
      227.0,      11.92,    12.92,    12.31,    10.79,    11.64
      228.0,      11.89,    12.90,    12.29,    10.76,    11.63
      229.0,      11.87,    12.88,    12.26,    10.74,    11.61
      230.0,      11.85,    12.85,    12.23,    10.71,    11.60
      231.0,      11.83,    12.83,    12.20,    10.68,    11.58
      232.0,      11.80,    12.81,    12.18,    10.66,    11.57
      233.0,      11.78,    12.79,    12.15,    10.63,    11.56
      234.0,      11.76,    12.77,    12.12,    10.60,    11.54
      235.0,      11.74,    12.75,    12.10,    10.58,    11.53
      236.0,      11.72,    12.73,    12.07,    10.55,    11.51
      237.0,      11.69,    12.71,    12.04,    10.52,    11.50
      238.0,      11.67,    12.69,    12.02,    10.50,    11.48
      239.0,      11.65,    12.67,    11.99,    10.47,    11.47
      240.0,      11.63,    12.65,    11.97,    10.45,    11.46
      241.0,      11.61,    12.63,    11.94,    10.42,    11.44
      242.0,      11.59,    12.61,    11.91,    10.39,    11.43
      243.0,      11.57,    12.59,    11.89,    10.37,    11.41
      244.0,      11.54,    12.57,    11.86,    10.34,    11.40
      245.0,      11.52,    12.55,    11.83,    10.32,    11.39
      246.0,      11.50,    12.53,    11.81,    10.29,    11.37
      247.0,      11.48,    12.52,    11.78,    10.27,    11.36
      248.0,      11.46,    12.50,    11.76,    10.24,    11.35
      249.0,      11.44,    12.48,    11.73,    10.21,    11.33
      250.0,      11.42,    12.46,    11.70,    10.19,    11.32
      251.0,      11.40,    12.44,    11.68,    10.16,    11.31
      252.0,      11.38,    12.42,    11.65,    10.14,    11.29
      253.0,      11.36,    12.40,    11.63,    10.11,    11.28
      254.0,      11.34,    12.39,    11.60,    10.09,    11.27
      255.0,      11.32,    12.37,    11.58,    10.06,    11.25
      256.0,      11.29,    12.35,    11.55,    10.04,    11.24
      257.0,      11.27,    12.33,    11.53,    10.01,    11.23
      258.0,      11.25,    12.32,    11.50,     9.99,    11.21
      259.0,      11.23,    12.30,    11.48,     9.96,    11.20
      260.0,      11.21,    12.28,    11.45,     9.94,    11.19
      261.0,      11.19,    12.26,    11.43,     9.91,    11.17
      262.0,      11.17,    12.25,    11.40,     9.89,    11.16
      263.0,      11.15,    12.23,    11.38,     9.86,    11.15
      264.0,      11.13,    12.21,    11.35,     9.84,    11.14
      265.0,      11.11,    12.19,    11.33,     9.81,    11.12
      266.0,      11.09,    12.18,    11.30,     9.79,    11.11
      267.0,      11.08,    12.16,    11.28,     9.77,    11.10
      268.0,      11.06,    12.14,    11.25,     9.74,    11.09
      269.0,      11.04,    12.13,    11.23,     9.72,    11.07
      270.0,      11.02,    12.11,    11.20,     9.69,    11.06
      271.0,      11.00,    12.09,    11.18,     9.67,    11.05
      272.0,      10.98,    12.08,    11.15,     9.64,    11.04
      273.0,      10.96,    12.06,    11.13,     9.62,    11.02
      274.0,      10.94,    12.05,    11.10,     9.60,    11.01
      275.0,      10.92,    12.03,    11.08,     9.57,    11.00
      276.0,      10.90,    12.01,    11.05,     9.55,    10.99
      277.0,      10.88,    12.00,    11.03,     9.53,    10.98
      278.0,      10.86,    11.98,    11.01,     9.50,    10.96
      279.0,      10.84,    11.97,    10.98,     9.48,    10.95
      280.0,      10.83,    11.95,    10.96,     9.45,    10.94
      281.0,      10.81,    11.93,    10.93,     9.43,    10.93
      282.0,      10.79,    11.92,    10.91,     9.41,    10.91
      283.0,      10.77,    11.90,    10.89,     9.38,    10.90
      284.0,      10.75,    11.89,    10.86,     9.36,    10.89
      285.0,      10.73,    11.87,    10.84,     9.34,    10.88
      286.0,      10.71,    11.86,    10.81,     9.31,    10.87
      287.0,      10.69,    11.84,    10.79,     9.29,    10.86
      288.0,      10.68,    11.83,    10.77,     9.27,    10.84
      289.0,      10.66,    11.81,    10.74,     9.24,    10.83
      290.0,      10.64,    11.80,    10.72,     9.22,    10.82
      291.0,      10.62,    11.78,    10.70,     9.20,    10.81
      292.0,      10.60,    11.77,    10.67,     9.18,    10.80
      293.0,      10.59,    11.75,    10.65,     9.15,    10.79
      294.0,      10.57,    11.74,    10.63,     9.13,    10.77
      295.0,      10.55,    11.72,    10.60,     9.11,    10.76
      296.0,      10.53,    11.71,    10.58,     9.08,    10.75
      297.0,      10.51,    11.69,    10.56,     9.06,    10.74
      298.0,      10.49,    11.68,    10.53,     9.04,    10.73
      299.0,      10.48,    11.66,    10.51,     9.02,    10.72
      300.0,      10.46,    11.65,    10.49,     8.99,    10.70
      301.0,      10.44,    11.64,    10.46,     8.97,    10.69
      302.0,      10.42,    11.62,    10.44,     8.95,    10.68
      303.0,      10.41,    11.61,    10.42,     8.93,    10.67
      304.0,      10.39,    11.59,    10.40,     8.91,    10.66
      305.0,      10.37,    11.58,    10.37,     8.88,    10.65
      306.0,      10.35,    11.56,    10.35,     8.86,    10.64
      307.0,      10.34,    11.55,    10.33,     8.84,    10.63
      308.0,      10.32,    11.54,    10.31,     8.82,    10.61
      309.0,      10.30,    11.52,    10.28,     8.79,    10.60
      310.0,      10.28,    11.51,    10.26,     8.77,    10.59
