Radius (km), Mean (m/s), NE (m/s), SE (m/s), SW (m/s), NW (m/s)
        0.0,       0.00,     0.00,     0.00,     0.00,     0.00
        1.0,       2.36,     2.34,     2.41,     2.39,     2.32
        2.0,       3.66,     3.72,     3.65,     3.54,     3.72
        3.0,       4.73,     4.88,     4.67,     4.46,     4.90
        4.0,       5.67,     5.92,     5.55,     5.25,     5.96
        5.0,       6.53,     6.88,     6.35,     5.96,     6.94
        6.0,       7.33,     7.78,     7.09,     6.60,     7.86
        7.0,       8.08,     8.62,     7.77,     7.21,     8.73
        8.0,       8.80,     9.43,     8.43,     7.77,     9.56
        9.0,       9.48,    10.21,     9.05,     8.31,    10.36
       10.0,      10.14,    10.95,     9.64,     8.82,    11.13
       11.0,      10.77,    11.68,    10.21,     9.31,    11.88
       12.0,      11.38,    12.38,    10.76,     9.78,    12.60
       13.0,      11.97,    13.06,    11.29,    10.23,    13.31
       14.0,      12.55,    13.73,    11.81,    10.67,    14.00
       15.0,      13.11,    14.38,    12.31,    11.10,    14.67
       16.0,      13.66,    15.02,    12.80,    11.51,    15.33
       17.0,      14.20,    15.64,    13.27,    11.91,    15.98
       18.0,      14.73,    16.25,    13.74,    12.31,    16.61
       19.0,      15.25,    16.87,    14.20,    12.69,    17.24
       20.0,      15.79,    17.52,    14.67,    13.08,    17.87
       21.0,      16.35,    18.23,    15.18,    13.47,    18.51
       22.0,      16.95,    18.99,    15.73,    13.89,    19.19
       23.0,      17.60,    19.83,    16.34,    14.33,    19.92
       24.0,      18.30,    20.71,    17.00,    14.79,    20.68
       25.0,      19.01,    21.61,    17.68,    15.26,    21.48
       26.0,      19.71,    22.49,    18.36,    15.73,    22.28
       27.0,      20.38,    23.29,    18.99,    16.18,    23.05
       28.0,      20.97,    23.97,    19.54,    16.58,    23.76
       29.0,      21.45,    24.51,    19.98,    16.93,    24.38
       30.0,      21.81,    24.88,    20.27,    17.21,    24.87
       31.0,      22.04,    25.08,    20.42,    17.41,    25.24
       32.0,      22.14,    25.12,    20.44,    17.55,    25.47
       33.0,      22.14,    25.04,    20.33,    17.61,    25.58
       34.0,      22.06,    24.86,    20.13,    17.63,    25.60
       35.0,      21.91,    24.63,    19.86,    17.61,    25.55
       36.0,      21.74,    24.37,    19.57,    17.57,    25.45
       37.0,      21.56,    24.10,    19.27,    17.52,    25.33
       38.0,      21.38,    23.84,    18.97,    17.48,    25.21
       39.0,      21.20,    23.60,    18.68,    17.43,    25.10
       40.0,      21.04,    23.36,    18.41,    17.39,    25.00
       41.0,      20.88,    23.13,    18.15,    17.35,    24.90
       42.0,      20.73,    22.90,    17.90,    17.31,    24.80
       43.0,      20.58,    22.69,    17.65,    17.27,    24.71
       44.0,      20.43,    22.47,    17.41,    17.23,    24.61
       45.0,      20.29,    22.26,    17.17,    17.19,    24.51
       46.0,      20.14,    22.06,    16.94,    17.16,    24.42
       47.0,      20.00,    21.86,    16.72,    17.12,    24.32
       48.0,      19.87,    21.67,    16.50,    17.08,    24.23
       49.0,      19.73,    21.48,    16.29,    17.04,    24.13
       50.0,      19.60,    21.29,    16.08,    17.00,    24.04
       51.0,      19.47,    21.11,    15.88,    16.96,    23.95
       52.0,      19.35,    20.93,    15.68,    16.92,    23.85
       53.0,      19.22,    20.76,    15.49,    16.89,    23.76
       54.0,      19.10,    20.59,    15.30,    16.85,    23.67
       55.0,      18.98,    20.43,    15.12,    16.81,    23.58
       56.0,      18.87,    20.27,    14.94,    16.77,    23.49
       57.0,      18.75,    20.11,    14.77,    16.73,    23.40
       58.0,      18.64,    19.96,    14.60,    16.70,    23.31
       59.0,      18.53,    19.81,    14.43,    16.66,    23.22
       60.0,      18.42,    19.66,    14.27,    16.62,    23.13
       61.0,      18.31,    19.52,    14.11,    16.58,    23.04
       62.0,      18.21,    19.38,    13.96,    16.55,    22.95
       63.0,      18.11,    19.24,    13.81,    16.51,    22.86
       64.0,      18.00,    19.11,    13.66,    16.47,    22.78
       65.0,      17.90,    18.98,    13.52,    16.44,    22.69
       66.0,      17.81,    18.85,    13.38,    16.40,    22.60
       67.0,      17.71,    18.72,    13.24,    16.36,    22.52
       68.0,      17.62,    18.60,    13.11,    16.33,    22.43
       69.0,      17.52,    18.48,    12.98,    16.29,    22.34
       70.0,      17.43,    18.37,    12.85,    16.25,    22.26
       71.0,      17.34,    18.25,    12.73,    16.22,    22.18
       72.0,      17.26,    18.14,    12.61,    16.18,    22.09
       73.0,      17.17,    18.03,    12.49,    16.14,    22.01
       74.0,      17.08,    17.93,    12.38,    16.11,    21.92
       75.0,      17.00,    17.82,    12.27,    16.07,    21.84
       76.0,      16.92,    17.72,    12.16,    16.03,    21.76
       77.0,      16.84,    17.62,    12.05,    16.00,    21.68
       78.0,      16.76,    17.52,    11.95,    15.96,    21.60
       79.0,      16.68,    17.43,    11.85,    15.93,    21.51
       80.0,      16.60,    17.34,    11.75,    15.89,    21.43
       81.0,      16.53,    17.25,    11.65,    15.85,    21.35
       82.0,      16.45,    17.16,    11.56,    15.82,    21.27
       83.0,      16.38,    17.07,    11.46,    15.78,    21.19
       84.0,      16.30,    16.98,    11.37,    15.75,    21.11
       85.0,      16.23,    16.90,    11.29,    15.71,    21.04
       86.0,      16.16,    16.82,    11.20,    15.68,    20.96
       87.0,      16.09,    16.74,    11.12,    15.64,    20.88
       88.0,      16.03,    16.66,    11.03,    15.61,    20.80
       89.0,      15.96,    16.58,    10.95,    15.57,    20.72
       90.0,      15.89,    16.51,    10.88,    15.54,    20.65
       91.0,      15.83,    16.43,    10.80,    15.50,    20.57
       92.0,      15.76,    16.36,    10.73,    15.47,    20.49
       93.0,      15.70,    16.29,    10.65,    15.43,    20.42
       94.0,      15.64,    16.22,    10.58,    15.40,    20.34
       95.0,      15.57,    16.15,    10.51,    15.36,    20.27
       96.0,      15.51,    16.09,    10.44,    15.33,    20.19
       97.0,      15.45,    16.02,    10.38,    15.30,    20.12
       98.0,      15.39,    15.96,    10.31,    15.26,    20.04
       99.0,      15.34,    15.90,    10.25,    15.23,    19.97
      100.0,      15.28,    15.83,    10.19,    15.19,    19.90
      101.0,      15.22,    15.77,    10.13,    15.16,    19.82
      102.0,      15.16,    15.71,    10.07,    15.13,    19.75
      103.0,      15.11,    15.66,    10.01,    15.09,    19.68
      104.0,      15.05,    15.60,     9.95,    15.06,    19.61
      105.0,      15.00,    15.54,     9.90,    15.02,    19.53
      106.0,      14.95,    15.49,     9.85,    14.99,    19.46
      107.0,      14.89,    15.44,     9.79,    14.96,    19.39
      108.0,      14.84,    15.38,     9.74,    14.92,    19.32
      109.0,      14.79,    15.33,     9.69,    14.89,    19.25
      110.0,      14.74,    15.28,     9.64,    14.86,    19.18
      111.0,      14.69,    15.23,     9.59,    14.82,    19.11
      112.0,      14.64,    15.18,     9.54,    14.79,    19.04
      113.0,      14.59,    15.13,     9.50,    14.76,    18.97
      114.0,      14.54,    15.09,     9.45,    14.73,    18.90
      115.0,      14.49,    15.04,     9.41,    14.69,    18.84
      116.0,      14.45,    15.00,     9.37,    14.66,    18.77
      117.0,      14.40,    14.95,     9.32,    14.63,    18.70
      118.0,      14.35,    14.91,     9.28,    14.59,    18.63
      119.0,      14.31,    14.86,     9.24,    14.56,    18.57
      120.0,      14.26,    14.82,     9.20,    14.53,    18.50
      121.0,      14.22,    14.78,     9.16,    14.50,    18.43
      122.0,      14.17,    14.74,     9.12,    14.46,    18.37
      123.0,      14.13,    14.70,     9.09,    14.43,    18.30
      124.0,      14.09,    14.66,     9.05,    14.40,    18.23
      125.0,      14.04,    14.62,     9.01,    14.37,    18.17
      126.0,      14.00,    14.58,     8.98,    14.34,    18.10
      127.0,      13.96,    14.54,     8.94,    14.30,    18.04
      128.0,      13.92,    14.51,     8.91,    14.27,    17.98
      129.0,      13.88,    14.47,     8.88,    14.24,    17.91
      130.0,      13.83,    14.43,     8.85,    14.21,    17.85
      131.0,      13.79,    14.40,     8.81,    14.18,    17.78
      132.0,      13.75,    14.36,     8.78,    14.15,    17.72
      133.0,      13.71,    14.33,     8.75,    14.11,    17.66
      134.0,      13.67,    14.30,     8.72,    14.08,    17.60
      135.0,      13.64,    14.26,     8.69,    14.05,    17.53
      136.0,      13.60,    14.23,     8.66,    14.02,    17.47
      137.0,      13.56,    14.20,     8.64,    13.99,    17.41
      138.0,      13.52,    14.17,     8.61,    13.96,    17.35
      139.0,      13.48,    14.14,     8.58,    13.93,    17.29
      140.0,      13.45,    14.10,     8.55,    13.90,    17.23
      141.0,      13.41,    14.07,     8.53,    13.87,    17.17
      142.0,      13.37,    14.04,     8.50,    13.84,    17.11
      143.0,      13.34,    14.01,     8.48,    13.80,    17.05
      144.0,      13.30,    13.99,     8.45,    13.77,    16.99
      145.0,      13.26,    13.96,     8.43,    13.74,    16.93
      146.0,      13.23,    13.93,     8.40,    13.71,    16.87
      147.0,      13.19,    13.90,     8.38,    13.68,    16.81
      148.0,      13.16,    13.87,     8.36,    13.65,    16.75
      149.0,      13.12,    13.84,     8.33,    13.62,    16.69
      150.0,      13.09,    13.82,     8.31,    13.59,    16.63
      151.0,      13.05,    13.79,     8.29,    13.56,    16.58
      152.0,      13.02,    13.76,     8.27,    13.53,    16.52
      153.0,      12.99,    13.74,     8.25,    13.50,    16.46
      154.0,      12.95,    13.71,     8.23,    13.47,    16.40
      155.0,      12.92,    13.69,     8.21,    13.44,    16.35
      156.0,      12.89,    13.66,     8.19,    13.41,    16.29
      157.0,      12.85,    13.64,     8.17,    13.38,    16.23
      158.0,      12.82,    13.61,     8.15,    13.35,    16.18
      159.0,      12.79,    13.59,     8.13,    13.32,    16.12
      160.0,      12.76,    13.56,     8.11,    13.29,    16.07
      161.0,      12.73,    13.54,     8.09,    13.26,    16.01
      162.0,      12.69,    13.52,     8.07,    13.23,    15.96
      163.0,      12.66,    13.49,     8.05,    13.21,    15.90
      164.0,      12.63,    13.47,     8.04,    13.18,    15.85
      165.0,      12.60,    13.45,     8.02,    13.15,    15.79
      166.0,      12.57,    13.43,     8.00,    13.12,    15.74
      167.0,      12.54,    13.40,     7.98,    13.09,    15.68
      168.0,      12.51,    13.38,     7.97,    13.06,    15.63
      169.0,      12.48,    13.36,     7.95,    13.03,    15.58
      170.0,      12.45,    13.34,     7.93,    13.00,    15.52
      171.0,      12.42,    13.32,     7.92,    12.97,    15.47
      172.0,      12.39,    13.30,     7.90,    12.94,    15.42
      173.0,      12.36,    13.28,     7.89,    12.92,    15.37
      174.0,      12.33,    13.25,     7.87,    12.89,    15.31
      175.0,      12.30,    13.23,     7.86,    12.86,    15.26
      176.0,      12.27,    13.21,     7.84,    12.83,    15.21
      177.0,      12.25,    13.19,     7.83,    12.80,    15.16
      178.0,      12.22,    13.17,     7.81,    12.77,    15.11
      179.0,      12.19,    13.15,     7.80,    12.75,    15.06
      180.0,      12.16,    13.13,     7.78,    12.72,    15.01
      181.0,      12.13,    13.11,     7.77,    12.69,    14.96
      182.0,      12.10,    13.09,     7.76,    12.66,    14.91
      183.0,      12.08,    13.08,     7.74,    12.63,    14.86
      184.0,      12.05,    13.06,     7.73,    12.61,    14.81
      185.0,      12.02,    13.04,     7.72,    12.58,    14.76
      186.0,      11.99,    13.02,     7.70,    12.55,    14.71
      187.0,      11.97,    13.00,     7.69,    12.52,    14.66
      188.0,      11.94,    12.98,     7.68,    12.50,    14.61
      189.0,      11.91,    12.96,     7.66,    12.47,    14.56
      190.0,      11.89,    12.94,     7.65,    12.44,    14.51
      191.0,      11.86,    12.93,     7.64,    12.41,    14.46
      192.0,      11.83,    12.91,     7.63,    12.39,    14.41
      193.0,      11.81,    12.89,     7.62,    12.36,    14.37
      194.0,      11.78,    12.87,     7.60,    12.33,    14.32
      195.0,      11.76,    12.86,     7.59,    12.30,    14.27
      196.0,      11.73,    12.84,     7.58,    12.28,    14.22
      197.0,      11.70,    12.82,     7.57,    12.25,    14.18
      198.0,      11.68,    12.80,     7.56,    12.22,    14.13
      199.0,      11.65,    12.79,     7.54,    12.20,    14.08
      200.0,      11.63,    12.77,     7.53,    12.17,    14.04
      201.0,      11.60,    12.75,     7.52,    12.14,    13.99
      202.0,      11.58,    12.73,     7.51,    12.12,    13.94
      203.0,      11.55,    12.72,     7.50,    12.09,    13.90
      204.0,      11.53,    12.70,     7.49,    12.06,    13.85
      205.0,      11.50,    12.68,     7.48,    12.04,    13.81
      206.0,      11.48,    12.67,     7.47,    12.01,    13.76
      207.0,      11.45,    12.65,     7.46,    11.98,    13.72
      208.0,      11.43,    12.64,     7.45,    11.96,    13.67
      209.0,      11.40,    12.62,     7.44,    11.93,    13.63
      210.0,      11.38,    12.60,     7.43,    11.90,    13.58
      211.0,      11.35,    12.59,     7.42,    11.88,    13.54
      212.0,      11.33,    12.57,     7.41,    11.85,    13.49
      213.0,      11.31,    12.56,     7.40,    11.83,    13.45
      214.0,      11.28,    12.54,     7.39,    11.80,    13.40
      215.0,      11.26,    12.52,     7.38,    11.77,    13.36
      216.0,      11.23,    12.51,     7.37,    11.75,    13.32
      217.0,      11.21,    12.49,     7.36,    11.72,    13.27
      218.0,      11.19,    12.48,     7.35,    11.70,    13.23
      219.0,      11.16,    12.46,     7.34,    11.67,    13.19
      220.0,      11.14,    12.45,     7.33,    11.65,    13.15
      221.0,      11.12,    12.43,     7.32,    11.62,    13.10
      222.0,      11.09,    12.42,     7.31,    11.59,    13.06
      223.0,      11.07,    12.40,     7.30,    11.57,    13.02
      224.0,      11.05,    12.39,     7.29,    11.54,    12.98
      225.0,      11.03,    12.37,     7.28,    11.52,    12.93
      226.0,      11.00,    12.36,     7.27,    11.49,    12.89
      227.0,      10.98,    12.34,     7.26,    11.47,    12.85
      228.0,      10.96,    12.33,     7.25,    11.44,    12.81
      229.0,      10.94,    12.31,     7.24,    11.42,    12.77
      230.0,      10.91,    12.30,     7.23,    11.39,    12.73
      231.0,      10.89,    12.28,     7.23,    11.37,    12.69
      232.0,      10.87,    12.27,     7.22,    11.34,    12.65
      233.0,      10.85,    12.25,     7.21,    11.32,    12.61
      234.0,      10.82,    12.24,     7.20,    11.29,    12.57
      235.0,      10.80,    12.22,     7.19,    11.27,    12.53
      236.0,      10.78,    12.21,     7.18,    11.24,    12.49
      237.0,      10.76,    12.19,     7.17,    11.22,    12.45
      238.0,      10.74,    12.18,     7.17,    11.19,    12.41
      239.0,      10.71,    12.17,     7.16,    11.17,    12.37
      240.0,      10.69,    12.15,     7.15,    11.15,    12.33
      241.0,      10.67,    12.14,     7.14,    11.12,    12.29
      242.0,      10.65,    12.12,     7.13,    11.10,    12.25
      243.0,      10.63,    12.11,     7.12,    11.07,    12.21
      244.0,      10.61,    12.09,     7.11,    11.05,    12.17
      245.0,      10.59,    12.08,     7.11,    11.02,    12.13
      246.0,      10.56,    12.07,     7.10,    11.00,    12.10
      247.0,      10.54,    12.05,     7.09,    10.98,    12.06
      248.0,      10.52,    12.04,     7.08,    10.95,    12.02
      249.0,      10.50,    12.02,     7.07,    10.93,    11.98
      250.0,      10.48,    12.01,     7.07,    10.90,    11.94
      251.0,      10.46,    12.00,     7.06,    10.88,    11.91
      252.0,      10.44,    11.98,     7.05,    10.86,    11.87
      253.0,      10.42,    11.97,     7.04,    10.83,    11.83
      254.0,      10.40,    11.96,     7.03,    10.81,    11.79
      255.0,      10.38,    11.94,     7.03,    10.79,    11.76
      256.0,      10.36,    11.93,     7.02,    10.76,    11.72
      257.0,      10.34,    11.91,     7.01,    10.74,    11.68
      258.0,      10.32,    11.90,     7.00,    10.71,    11.65
      259.0,      10.30,    11.89,     6.99,    10.69,    11.61
      260.0,      10.28,    11.87,     6.99,    10.67,    11.58
      261.0,      10.26,    11.86,     6.98,    10.64,    11.54
      262.0,      10.24,    11.85,     6.97,    10.62,    11.50
      263.0,      10.22,    11.83,     6.96,    10.60,    11.47
      264.0,      10.20,    11.82,     6.96,    10.58,    11.43
      265.0,      10.18,    11.81,     6.95,    10.55,    11.40
      266.0,      10.16,    11.79,     6.94,    10.53,    11.36
      267.0,      10.14,    11.78,     6.93,    10.51,    11.33
      268.0,      10.12,    11.77,     6.93,    10.48,    11.29
      269.0,      10.10,    11.75,     6.92,    10.46,    11.26
      270.0,      10.08,    11.74,     6.91,    10.44,    11.22
      271.0,      10.06,    11.73,     6.90,    10.41,    11.19
      272.0,      10.04,    11.71,     6.90,    10.39,    11.15
      273.0,      10.02,    11.70,     6.89,    10.37,    11.12
      274.0,      10.00,    11.69,     6.88,    10.35,    11.08
      275.0,       9.98,    11.67,     6.87,    10.32,    11.05
      276.0,       9.96,    11.66,     6.87,    10.30,    11.02
      277.0,       9.94,    11.65,     6.86,    10.28,    10.98
      278.0,       9.92,    11.64,     6.85,    10.26,    10.95
      279.0,       9.90,    11.62,     6.84,    10.23,    10.92
      280.0,       9.89,    11.61,     6.84,    10.21,    10.88
      281.0,       9.87,    11.60,     6.83,    10.19,    10.85
      282.0,       9.85,    11.58,     6.82,    10.17,    10.82
      283.0,       9.83,    11.57,     6.81,    10.15,    10.78
      284.0,       9.81,    11.56,     6.81,    10.12,    10.75
      285.0,       9.79,    11.55,     6.80,    10.10,    10.72
      286.0,       9.77,    11.53,     6.79,    10.08,    10.68
      287.0,       9.75,    11.52,     6.79,    10.06,    10.65
      288.0,       9.74,    11.51,     6.78,    10.04,    10.62
      289.0,       9.72,    11.49,     6.77,    10.01,    10.59
      290.0,       9.70,    11.48,     6.76,     9.99,    10.56
      291.0,       9.68,    11.47,     6.76,     9.97,    10.52
      292.0,       9.66,    11.46,     6.75,     9.95,    10.49
      293.0,       9.64,    11.44,     6.74,     9.93,    10.46
      294.0,       9.63,    11.43,     6.74,     9.91,    10.43
      295.0,       9.61,    11.42,     6.73,     9.88,    10.40
      296.0,       9.59,    11.41,     6.72,     9.86,    10.37
      297.0,       9.57,    11.39,     6.71,     9.84,    10.33
      298.0,       9.55,    11.38,     6.71,     9.82,    10.30
      299.0,       9.53,    11.37,     6.70,     9.80,    10.27
      300.0,       9.52,    11.36,     6.69,     9.78,    10.24
      301.0,       9.50,    11.34,     6.69,     9.76,    10.21
      302.0,       9.48,    11.33,     6.68,     9.73,    10.18
      303.0,       9.46,    11.32,     6.67,     9.71,    10.15
      304.0,       9.45,    11.31,     6.67,     9.69,    10.12
      305.0,       9.43,    11.29,     6.66,     9.67,    10.09
      306.0,       9.41,    11.28,     6.65,     9.65,    10.06
      307.0,       9.39,    11.27,     6.65,     9.63,    10.03
      308.0,       9.38,    11.26,     6.64,     9.61,    10.00
      309.0,       9.36,    11.24,     6.63,     9.59,     9.97
      310.0,       9.34,    11.23,     6.62,     9.57,     9.94
