Radius (km), Mean (m/s), NE (m/s), SE (m/s), SW (m/s), NW (m/s)
        0.0,       0.00,     0.00,     0.00,     0.00,     0.00
        1.0,       3.47,     3.46,     3.47,     3.48,     3.47
        2.0,       5.67,     5.70,     5.66,     5.63,     5.67
        3.0,       7.59,     7.71,     7.56,     7.49,     7.60
        4.0,       9.42,     9.66,     9.34,     9.22,     9.46
        5.0,      11.27,    11.66,    11.13,    10.94,    11.34
        6.0,      13.18,    13.75,    12.97,    12.71,    13.31
        7.0,      15.18,    15.92,    14.88,    14.55,    15.37
        8.0,      17.23,    18.14,    16.87,    16.45,    17.48
        9.0,      19.28,    20.32,    18.86,    18.36,    19.59
       10.0,      21.24,    22.38,    20.79,    20.21,    21.60
       11.0,      23.03,    24.21,    22.58,    21.93,    23.41
       12.0,      24.57,    25.74,    24.14,    23.43,    24.94
       13.0,      25.79,    26.93,    25.42,    24.66,    26.14
       14.0,      26.67,    27.75,    26.36,    25.57,    26.98
       15.0,      27.21,    28.21,    26.98,    26.17,    27.46
       16.0,      27.44,    28.36,    27.29,    26.47,    27.62
       17.0,      27.41,    28.27,    27.33,    26.52,    27.52
       18.0,      27.20,    28.01,    27.18,    26.38,    27.24
       19.0,      26.87,    27.65,    26.89,    26.11,    26.84
       20.0,      26.49,    27.25,    26.54,    25.77,    26.39
       21.0,      26.09,    26.85,    26.17,    25.40,    25.93
       22.0,      25.70,    26.46,    25.81,    25.05,    25.49
       23.0,      25.33,    26.09,    25.46,    24.71,    25.08
       24.0,      24.99,    25.74,    25.13,    24.38,    24.68
       25.0,      24.65,    25.41,    24.82,    24.07,    24.30
       26.0,      24.32,    25.08,    24.51,    23.76,    23.94
       27.0,      24.01,    24.77,    24.22,    23.46,    23.59
       28.0,      23.71,    24.47,    23.93,    23.17,    23.25
       29.0,      23.41,    24.18,    23.66,    22.89,    22.92
       30.0,      23.13,    23.90,    23.39,    22.61,    22.61
       31.0,      22.85,    23.63,    23.13,    22.34,    22.31
       32.0,      22.58,    23.38,    22.87,    22.07,    22.01
       33.0,      22.33,    23.13,    22.63,    21.82,    21.73
       34.0,      22.08,    22.89,    22.39,    21.57,    21.46
       35.0,      21.83,    22.65,    22.16,    21.32,    21.20
       36.0,      21.60,    22.43,    21.94,    21.08,    20.95
       37.0,      21.37,    22.22,    21.72,    20.85,    20.71
       38.0,      21.15,    22.01,    21.51,    20.62,    20.48
       39.0,      20.94,    21.81,    21.31,    20.40,    20.25
       40.0,      20.74,    21.62,    21.11,    20.18,    20.04
       41.0,      20.54,    21.43,    20.91,    19.97,    19.83
       42.0,      20.34,    21.25,    20.73,    19.77,    19.63
       43.0,      20.16,    21.08,    20.55,    19.56,    19.43
       44.0,      19.97,    20.91,    20.37,    19.37,    19.25
       45.0,      19.80,    20.75,    20.20,    19.18,    19.07
       46.0,      19.63,    20.60,    20.03,    18.99,    18.89
       47.0,      19.46,    20.45,    19.87,    18.81,    18.73
       48.0,      19.30,    20.30,    19.71,    18.63,    18.56
       49.0,      19.15,    20.16,    19.56,    18.45,    18.41
       50.0,      19.00,    20.03,    19.41,    18.28,    18.26
       51.0,      18.85,    19.90,    19.27,    18.12,    18.11
       52.0,      18.71,    19.77,    19.13,    17.96,    17.97
       53.0,      18.57,    19.65,    18.99,    17.80,    17.84
       54.0,      18.44,    19.53,    18.86,    17.64,    17.71
       55.0,      18.31,    19.42,    18.73,    17.49,    17.58
       56.0,      18.18,    19.31,    18.61,    17.34,    17.46
       57.0,      18.06,    19.20,    18.49,    17.20,    17.34
       58.0,      17.94,    19.10,    18.37,    17.06,    17.23
       59.0,      17.82,    19.00,    18.25,    16.92,    17.12
       60.0,      17.71,    18.91,    18.14,    16.79,    17.01
       61.0,      17.60,    18.81,    18.03,    16.66,    16.91
       62.0,      17.50,    18.72,    17.92,    16.53,    16.81
       63.0,      17.39,    18.64,    17.82,    16.40,    16.71
       64.0,      17.29,    18.55,    17.72,    16.28,    16.62
       65.0,      17.19,    18.47,    17.62,    16.16,    16.53
       66.0,      17.10,    18.39,    17.52,    16.05,    16.44
       67.0,      17.01,    18.31,    17.43,    15.93,    16.36
       68.0,      16.92,    18.24,    17.34,    15.82,    16.27
       69.0,      16.83,    18.17,    17.25,    15.71,    16.19
       70.0,      16.74,    18.10,    17.16,    15.60,    16.12
       71.0,      16.66,    18.03,    17.08,    15.50,    16.04
       72.0,      16.58,    17.96,    16.99,    15.40,    15.97
       73.0,      16.50,    17.90,    16.91,    15.30,    15.90
       74.0,      16.43,    17.84,    16.83,    15.20,    15.83
       75.0,      16.35,    17.78,    16.76,    15.10,    15.77
       76.0,      16.28,    17.72,    16.68,    15.01,    15.70
       77.0,      16.21,    17.66,    16.61,    14.92,    15.64
       78.0,      16.14,    17.61,    16.54,    14.83,    15.58
       79.0,      16.07,    17.55,    16.46,    14.74,    15.52
       80.0,      16.00,    17.50,    16.40,    14.66,    15.46
       81.0,      15.94,    17.45,    16.33,    14.57,    15.41
       82.0,      15.88,    17.40,    16.26,    14.49,    15.35
       83.0,      15.82,    17.35,    16.20,    14.41,    15.30
       84.0,      15.76,    17.30,    16.13,    14.33,    15.25
       85.0,      15.70,    17.26,    16.07,    14.26,    15.20
       86.0,      15.64,    17.21,    16.01,    14.18,    15.15
       87.0,      15.58,    17.17,    15.95,    14.11,    15.11
       88.0,      15.53,    17.13,    15.89,    14.03,    15.06
       89.0,      15.48,    17.09,    15.84,    13.96,    15.02
       90.0,      15.42,    17.05,    15.78,    13.89,    14.97
       91.0,      15.37,    17.01,    15.73,    13.83,    14.93
       92.0,      15.32,    16.97,    15.67,    13.76,    14.89
       93.0,      15.27,    16.93,    15.62,    13.69,    14.85
       94.0,      15.22,    16.89,    15.57,    13.63,    14.81
       95.0,      15.18,    16.86,    15.52,    13.57,    14.77
       96.0,      15.13,    16.82,    15.47,    13.51,    14.73
       97.0,      15.09,    16.79,    15.42,    13.45,    14.69
       98.0,      15.04,    16.75,    15.37,    13.39,    14.66
       99.0,      15.00,    16.72,    15.32,    13.33,    14.62
      100.0,      14.96,    16.69,    15.28,    13.27,    14.59
      101.0,      14.91,    16.65,    15.23,    13.22,    14.55
      102.0,      14.87,    16.62,    15.19,    13.16,    14.52
      103.0,      14.83,    16.59,    15.14,    13.11,    14.49
      104.0,      14.79,    16.56,    15.10,    13.05,    14.46
      105.0,      14.75,    16.53,    15.05,    13.00,    14.43
      106.0,      14.72,    16.50,    15.01,    12.95,    14.40
      107.0,      14.68,    16.47,    14.97,    12.90,    14.37
      108.0,      14.64,    16.45,    14.93,    12.85,    14.34
      109.0,      14.60,    16.42,    14.89,    12.80,    14.31
      110.0,      14.57,    16.39,    14.85,    12.76,    14.28
      111.0,      14.53,    16.36,    14.81,    12.71,    14.25
      112.0,      14.50,    16.34,    14.77,    12.67,    14.22
      113.0,      14.47,    16.31,    14.73,    12.62,    14.20
      114.0,      14.43,    16.29,    14.69,    12.58,    14.17
      115.0,      14.40,    16.26,    14.66,    12.53,    14.14
      116.0,      14.37,    16.24,    14.62,    12.49,    14.12
      117.0,      14.33,    16.21,    14.58,    12.45,    14.09
      118.0,      14.30,    16.19,    14.55,    12.41,    14.07
      119.0,      14.27,    16.16,    14.51,    12.37,    14.04
      120.0,      14.24,    16.14,    14.48,    12.33,    14.02
      121.0,      14.21,    16.12,    14.44,    12.29,    13.99
      122.0,      14.18,    16.09,    14.41,    12.25,    13.97
      123.0,      14.15,    16.07,    14.38,    12.21,    13.95
      124.0,      14.12,    16.05,    14.34,    12.18,    13.92
      125.0,      14.09,    16.03,    14.31,    12.14,    13.90
      126.0,      14.07,    16.01,    14.28,    12.10,    13.88
      127.0,      14.04,    15.98,    14.24,    12.07,    13.86
      128.0,      14.01,    15.96,    14.21,    12.03,    13.84
      129.0,      13.98,    15.94,    14.18,    12.00,    13.81
      130.0,      13.96,    15.92,    14.15,    11.96,    13.79
      131.0,      13.93,    15.90,    14.12,    11.93,    13.77
      132.0,      13.90,    15.88,    14.09,    11.90,    13.75
      133.0,      13.88,    15.86,    14.06,    11.86,    13.73
      134.0,      13.85,    15.84,    14.03,    11.83,    13.71
      135.0,      13.83,    15.82,    14.00,    11.80,    13.69
      136.0,      13.80,    15.80,    13.97,    11.77,    13.67
      137.0,      13.78,    15.78,    13.94,    11.74,    13.65
      138.0,      13.75,    15.76,    13.91,    11.71,    13.63
      139.0,      13.73,    15.74,    13.88,    11.68,    13.61
      140.0,      13.70,    15.72,    13.85,    11.65,    13.59
      141.0,      13.68,    15.70,    13.82,    11.62,    13.57
      142.0,      13.65,    15.68,    13.79,    11.59,    13.55
      143.0,      13.63,    15.66,    13.76,    11.56,    13.53
      144.0,      13.61,    15.64,    13.74,    11.53,    13.51
      145.0,      13.58,    15.63,    13.71,    11.51,    13.49
      146.0,      13.56,    15.61,    13.68,    11.48,    13.48
      147.0,      13.54,    15.59,    13.65,    11.45,    13.46
      148.0,      13.52,    15.57,    13.63,    11.42,    13.44
      149.0,      13.49,    15.55,    13.60,    11.40,    13.42
      150.0,      13.47,    15.54,    13.57,    11.37,    13.40
      151.0,      13.45,    15.52,    13.55,    11.35,    13.39
      152.0,      13.43,    15.50,    13.52,    11.32,    13.37
      153.0,      13.41,    15.48,    13.49,    11.30,    13.35
      154.0,      13.38,    15.46,    13.47,    11.27,    13.33
      155.0,      13.36,    15.45,    13.44,    11.25,    13.31
      156.0,      13.34,    15.43,    13.42,    11.22,    13.30
      157.0,      13.32,    15.41,    13.39,    11.20,    13.28
      158.0,      13.30,    15.39,    13.36,    11.17,    13.26
      159.0,      13.28,    15.38,    13.34,    11.15,    13.25
      160.0,      13.26,    15.36,    13.31,    11.13,    13.23
      161.0,      13.24,    15.34,    13.29,    11.10,    13.21
      162.0,      13.22,    15.33,    13.26,    11.08,    13.19
      163.0,      13.20,    15.31,    13.24,    11.06,    13.18
      164.0,      13.18,    15.29,    13.21,    11.04,    13.16
      165.0,      13.16,    15.27,    13.19,    11.01,    13.14
      166.0,      13.14,    15.26,    13.16,    10.99,    13.13
      167.0,      13.12,    15.24,    13.14,    10.97,    13.11
      168.0,      13.10,    15.22,    13.12,    10.95,    13.09
      169.0,      13.08,    15.21,    13.09,    10.93,    13.08
      170.0,      13.06,    15.19,    13.07,    10.91,    13.06
      171.0,      13.04,    15.18,    13.04,    10.88,    13.05
      172.0,      13.02,    15.16,    13.02,    10.86,    13.03
      173.0,      13.00,    15.14,    13.00,    10.84,    13.01
      174.0,      12.98,    15.13,    12.97,    10.82,    13.00
      175.0,      12.96,    15.11,    12.95,    10.80,    12.98
      176.0,      12.94,    15.09,    12.93,    10.78,    12.96
      177.0,      12.92,    15.08,    12.90,    10.76,    12.95
      178.0,      12.90,    15.06,    12.88,    10.74,    12.93
      179.0,      12.88,    15.05,    12.86,    10.72,    12.92
      180.0,      12.87,    15.03,    12.83,    10.70,    12.90
      181.0,      12.85,    15.01,    12.81,    10.68,    12.89
      182.0,      12.83,    15.00,    12.79,    10.66,    12.87
      183.0,      12.81,    14.98,    12.76,    10.64,    12.85
      184.0,      12.79,    14.97,    12.74,    10.63,    12.84
      185.0,      12.77,    14.95,    12.72,    10.61,    12.82
      186.0,      12.76,    14.93,    12.70,    10.59,    12.81
      187.0,      12.74,    14.92,    12.67,    10.57,    12.79
      188.0,      12.72,    14.90,    12.65,    10.55,    12.78
      189.0,      12.70,    14.89,    12.63,    10.53,    12.76
      190.0,      12.68,    14.87,    12.61,    10.51,    12.75
      191.0,      12.67,    14.85,    12.58,    10.50,    12.73
      192.0,      12.65,    14.84,    12.56,    10.48,    12.72
      193.0,      12.63,    14.82,    12.54,    10.46,    12.70
      194.0,      12.61,    14.81,    12.52,    10.44,    12.68
      195.0,      12.60,    14.79,    12.49,    10.42,    12.67
      196.0,      12.58,    14.78,    12.47,    10.41,    12.65
      197.0,      12.56,    14.76,    12.45,    10.39,    12.64
      198.0,      12.54,    14.75,    12.43,    10.37,    12.62
      199.0,      12.53,    14.73,    12.41,    10.35,    12.61
      200.0,      12.51,    14.72,    12.38,    10.34,    12.59
      201.0,      12.49,    14.70,    12.36,    10.32,    12.58
      202.0,      12.47,    14.68,    12.34,    10.30,    12.56
      203.0,      12.46,    14.67,    12.32,    10.29,    12.55
      204.0,      12.44,    14.65,    12.30,    10.27,    12.53
      205.0,      12.42,    14.64,    12.28,    10.25,    12.52
      206.0,      12.40,    14.62,    12.26,    10.24,    12.50
      207.0,      12.39,    14.61,    12.23,    10.22,    12.49
      208.0,      12.37,    14.59,    12.21,    10.20,    12.47
      209.0,      12.35,    14.58,    12.19,    10.19,    12.46
      210.0,      12.34,    14.56,    12.17,    10.17,    12.44
      211.0,      12.32,    14.55,    12.15,    10.15,    12.43
      212.0,      12.30,    14.53,    12.13,    10.14,    12.42
      213.0,      12.29,    14.52,    12.11,    10.12,    12.40
      214.0,      12.27,    14.50,    12.09,    10.11,    12.39
      215.0,      12.25,    14.49,    12.07,    10.09,    12.37
      216.0,      12.24,    14.47,    12.04,    10.07,    12.36
      217.0,      12.22,    14.46,    12.02,    10.06,    12.34
      218.0,      12.20,    14.44,    12.00,    10.04,    12.33
      219.0,      12.19,    14.43,    11.98,    10.03,    12.31
      220.0,      12.17,    14.41,    11.96,    10.01,    12.30
      221.0,      12.15,    14.40,    11.94,    10.00,    12.28
      222.0,      12.14,    14.38,    11.92,     9.98,    12.27
      223.0,      12.12,    14.37,    11.90,     9.96,    12.25
      224.0,      12.11,    14.35,    11.88,     9.95,    12.24
      225.0,      12.09,    14.34,    11.86,     9.93,    12.23
      226.0,      12.07,    14.32,    11.84,     9.92,    12.21
      227.0,      12.06,    14.31,    11.82,     9.90,    12.20
      228.0,      12.04,    14.29,    11.80,     9.89,    12.18
      229.0,      12.02,    14.28,    11.78,     9.87,    12.17
      230.0,      12.01,    14.26,    11.76,     9.86,    12.15
      231.0,      11.99,    14.25,    11.74,     9.84,    12.14
      232.0,      11.98,    14.24,    11.72,     9.83,    12.13
      233.0,      11.96,    14.22,    11.70,     9.81,    12.11
      234.0,      11.94,    14.21,    11.68,     9.80,    12.10
      235.0,      11.93,    14.19,    11.66,     9.78,    12.08
      236.0,      11.91,    14.18,    11.64,     9.77,    12.07
      237.0,      11.90,    14.16,    11.62,     9.75,    12.05
      238.0,      11.88,    14.15,    11.60,     9.74,    12.04
      239.0,      11.86,    14.13,    11.58,     9.72,    12.03
      240.0,      11.85,    14.12,    11.56,     9.71,    12.01
      241.0,      11.83,    14.10,    11.54,     9.70,    12.00
      242.0,      11.82,    14.09,    11.52,     9.68,    11.98
      243.0,      11.80,    14.07,    11.50,     9.67,    11.97
      244.0,      11.79,    14.06,    11.48,     9.65,    11.96
      245.0,      11.77,    14.05,    11.46,     9.64,    11.94
      246.0,      11.76,    14.03,    11.44,     9.62,    11.93
      247.0,      11.74,    14.02,    11.42,     9.61,    11.91
      248.0,      11.72,    14.00,    11.40,     9.60,    11.90
      249.0,      11.71,    13.99,    11.38,     9.58,    11.89
      250.0,      11.69,    13.97,    11.36,     9.57,    11.87
      251.0,      11.68,    13.96,    11.34,     9.55,    11.86
      252.0,      11.66,    13.94,    11.32,     9.54,    11.84
      253.0,      11.65,    13.93,    11.30,     9.52,    11.83
      254.0,      11.63,    13.92,    11.28,     9.51,    11.82
      255.0,      11.62,    13.90,    11.26,     9.50,    11.80
      256.0,      11.60,    13.89,    11.24,     9.48,    11.79
      257.0,      11.59,    13.87,    11.23,     9.47,    11.77
      258.0,      11.57,    13.86,    11.21,     9.46,    11.76
      259.0,      11.56,    13.84,    11.19,     9.44,    11.75
      260.0,      11.54,    13.83,    11.17,     9.43,    11.73
      261.0,      11.52,    13.82,    11.15,     9.41,    11.72
      262.0,      11.51,    13.80,    11.13,     9.40,    11.71
      263.0,      11.49,    13.79,    11.11,     9.39,    11.69
      264.0,      11.48,    13.77,    11.09,     9.37,    11.68
      265.0,      11.46,    13.76,    11.07,     9.36,    11.66
      266.0,      11.45,    13.75,    11.05,     9.35,    11.65
      267.0,      11.43,    13.73,    11.03,     9.33,    11.64
      268.0,      11.42,    13.72,    11.02,     9.32,    11.62
      269.0,      11.40,    13.70,    11.00,     9.31,    11.61
      270.0,      11.39,    13.69,    10.98,     9.29,    11.60
      271.0,      11.37,    13.68,    10.96,     9.28,    11.58
      272.0,      11.36,    13.66,    10.94,     9.26,    11.57
      273.0,      11.34,    13.65,    10.92,     9.25,    11.56
      274.0,      11.33,    13.63,    10.90,     9.24,    11.54
      275.0,      11.31,    13.62,    10.89,     9.22,    11.53
      276.0,      11.30,    13.61,    10.87,     9.21,    11.52
      277.0,      11.28,    13.59,    10.85,     9.20,    11.50
      278.0,      11.27,    13.58,    10.83,     9.18,    11.49
      279.0,      11.26,    13.56,    10.81,     9.17,    11.48
      280.0,      11.24,    13.55,    10.79,     9.16,    11.46
      281.0,      11.23,    13.54,    10.77,     9.15,    11.45
      282.0,      11.21,    13.52,    10.76,     9.13,    11.43
      283.0,      11.20,    13.51,    10.74,     9.12,    11.42
      284.0,      11.18,    13.49,    10.72,     9.11,    11.41
      285.0,      11.17,    13.48,    10.70,     9.09,    11.39
      286.0,      11.15,    13.47,    10.68,     9.08,    11.38
      287.0,      11.14,    13.45,    10.66,     9.07,    11.37
      288.0,      11.12,    13.44,    10.65,     9.05,    11.35
      289.0,      11.11,    13.42,    10.63,     9.04,    11.34
      290.0,      11.09,    13.41,    10.61,     9.03,    11.33
      291.0,      11.08,    13.40,    10.59,     9.02,    11.31
      292.0,      11.07,    13.38,    10.57,     9.00,    11.30
      293.0,      11.05,    13.37,    10.56,     8.99,    11.29
      294.0,      11.04,    13.36,    10.54,     8.98,    11.28
      295.0,      11.02,    13.34,    10.52,     8.96,    11.26
      296.0,      11.01,    13.33,    10.50,     8.95,    11.25
      297.0,      10.99,    13.32,    10.48,     8.94,    11.24
      298.0,      10.98,    13.30,    10.47,     8.93,    11.22
      299.0,      10.96,    13.29,    10.45,     8.91,    11.21
      300.0,      10.95,    13.27,    10.43,     8.90,    11.20
      301.0,      10.94,    13.26,    10.41,     8.89,    11.18
      302.0,      10.92,    13.25,    10.40,     8.88,    11.17
      303.0,      10.91,    13.23,    10.38,     8.86,    11.16
      304.0,      10.89,    13.22,    10.36,     8.85,    11.14
      305.0,      10.88,    13.21,    10.34,     8.84,    11.13
      306.0,      10.87,    13.19,    10.33,     8.82,    11.12
      307.0,      10.85,    13.18,    10.31,     8.81,    11.11
      308.0,      10.84,    13.17,    10.29,     8.80,    11.09
      309.0,      10.82,    13.15,    10.27,     8.79,    11.08
      310.0,      10.81,    13.14,    10.26,     8.77,    11.07
