Radius (km), Mean (m/s), NE (m/s), SE (m/s), SW (m/s), NW (m/s)
        0.0,       0.00,     0.00,     0.00,     0.00,     0.00
        1.0,       2.39,     2.37,     2.37,     2.46,     2.37
        2.0,       4.03,     4.02,     4.02,     4.05,     4.02
        3.0,       5.47,     5.48,     5.48,     5.43,     5.48
        4.0,       6.79,     6.82,     6.82,     6.69,     6.82
        5.0,       8.03,     8.08,     8.08,     7.85,     8.08
        6.0,       9.21,     9.29,     9.29,     8.96,     9.29
        7.0,      10.34,    10.45,    10.45,    10.02,    10.45
        8.0,      11.43,    11.57,    11.57,    11.03,    11.57
        9.0,      12.49,    12.65,    12.65,    12.01,    12.65
       10.0,      13.52,    13.71,    13.71,    12.96,    13.71
       11.0,      14.53,    14.75,    14.74,    13.88,    14.74
       12.0,      15.52,    15.78,    15.76,    14.78,    15.76
       13.0,      16.52,    16.85,    16.78,    15.66,    16.77
       14.0,      17.55,    18.01,    17.85,    16.54,    17.81
       15.0,      18.67,    19.28,    19.01,    17.45,    18.92
       16.0,      19.89,    20.68,    20.30,    18.43,    20.14
       17.0,      21.22,    22.20,    21.72,    19.50,    21.46
       18.0,      22.63,    23.78,    23.24,    20.66,    22.86
       19.0,      24.09,    25.34,    24.81,    21.89,    24.30
       20.0,      25.50,    26.81,    26.33,    23.15,    25.72
       21.0,      26.80,    28.11,    27.72,    24.36,    27.03
       22.0,      27.92,    29.15,    28.89,    25.45,    28.16
       23.0,      28.78,    29.91,    29.78,    26.35,    29.07
       24.0,      29.36,    30.37,    30.35,    27.01,    29.70
       25.0,      29.65,    30.53,    30.59,    27.39,    30.07
       26.0,      29.66,    30.45,    30.54,    27.50,    30.17
       27.0,      29.46,    30.17,    30.23,    27.36,    30.07
       28.0,      29.08,    29.77,    29.75,    27.01,    29.80
       29.0,      28.60,    29.30,    29.16,    26.53,    29.43
       30.0,      28.07,    28.81,    28.51,    25.96,    29.01
       31.0,      27.54,    28.33,    27.87,    25.37,    28.58
       32.0,      27.02,    27.88,    27.26,    24.78,    28.17
       33.0,      26.54,    27.45,    26.68,    24.23,    27.79
       34.0,      26.08,    27.03,    26.14,    23.72,    27.43
       35.0,      25.65,    26.64,    25.62,    23.24,    27.08
       36.0,      25.23,    26.26,    25.12,    22.78,    26.75
       37.0,      24.82,    25.89,    24.64,    22.34,    26.43
       38.0,      24.44,    25.54,    24.17,    21.92,    26.12
       39.0,      24.06,    25.20,    23.73,    21.51,    25.82
       40.0,      23.70,    24.87,    23.30,    21.11,    25.53
       41.0,      23.36,    24.55,    22.89,    20.73,    25.25
       42.0,      23.02,    24.25,    22.49,    20.37,    24.98
       43.0,      22.70,    23.96,    22.10,    20.02,    24.72
       44.0,      22.39,    23.68,    21.74,    19.67,    24.47
       45.0,      22.09,    23.40,    21.38,    19.35,    24.22
       46.0,      21.80,    23.14,    21.04,    19.03,    23.99
       47.0,      21.52,    22.89,    20.71,    18.73,    23.76
       48.0,      21.25,    22.65,    20.39,    18.43,    23.54
       49.0,      20.99,    22.41,    20.09,    18.15,    23.32
       50.0,      20.74,    22.19,    19.80,    17.87,    23.11
       51.0,      20.50,    21.97,    19.51,    17.61,    22.91
       52.0,      20.27,    21.76,    19.24,    17.35,    22.72
       53.0,      20.04,    21.56,    18.98,    17.11,    22.53
       54.0,      19.83,    21.36,    18.72,    16.87,    22.35
       55.0,      19.62,    21.18,    18.48,    16.64,    22.17
       56.0,      19.41,    20.99,    18.25,    16.42,    22.00
       57.0,      19.22,    20.82,    18.02,    16.20,    21.83
       58.0,      19.03,    20.65,    17.80,    16.00,    21.67
       59.0,      18.85,    20.49,    17.59,    15.80,    21.51
       60.0,      18.67,    20.33,    17.39,    15.60,    21.36
       61.0,      18.50,    20.18,    17.19,    15.42,    21.21
       62.0,      18.34,    20.03,    17.00,    15.24,    21.07
       63.0,      18.18,    19.89,    16.82,    15.06,    20.93
       64.0,      18.02,    19.76,    16.65,    14.89,    20.80
       65.0,      17.87,    19.62,    16.48,    14.73,    20.67
       66.0,      17.73,    19.50,    16.31,    14.57,    20.54
       67.0,      17.59,    19.37,    16.16,    14.42,    20.41
       68.0,      17.46,    19.25,    16.00,    14.27,    20.29
       69.0,      17.32,    19.14,    15.86,    14.13,    20.17
       70.0,      17.20,    19.03,    15.72,    13.99,    20.06
       71.0,      17.08,    18.92,    15.58,    13.86,    19.95
       72.0,      16.96,    18.82,    15.45,    13.72,    19.84
       73.0,      16.84,    18.71,    15.32,    13.60,    19.73
       74.0,      16.73,    18.62,    15.20,    13.48,    19.63
       75.0,      16.62,    18.52,    15.08,    13.36,    19.53
       76.0,      16.52,    18.43,    14.96,    13.24,    19.43
       77.0,      16.41,    18.34,    14.85,    13.13,    19.33
       78.0,      16.32,    18.26,    14.74,    13.02,    19.24
       79.0,      16.22,    18.17,    14.64,    12.92,    19.15
       80.0,      16.13,    18.09,    14.54,    12.82,    19.06
       81.0,      16.04,    18.02,    14.44,    12.72,    18.97
       82.0,      15.95,    17.94,    14.34,    12.62,    18.89
       83.0,      15.86,    17.87,    14.25,    12.53,    18.80
       84.0,      15.78,    17.80,    14.16,    12.44,    18.72
       85.0,      15.70,    17.73,    14.08,    12.35,    18.64
       86.0,      15.62,    17.66,    14.00,    12.26,    18.56
       87.0,      15.54,    17.60,    13.92,    12.18,    18.49
       88.0,      15.47,    17.53,    13.84,    12.10,    18.41
       89.0,      15.40,    17.47,    13.76,    12.02,    18.34
       90.0,      15.33,    17.41,    13.69,    11.94,    18.27
       91.0,      15.26,    17.35,    13.62,    11.86,    18.20
       92.0,      15.19,    17.30,    13.55,    11.79,    18.13
       93.0,      15.13,    17.24,    13.48,    11.72,    18.06
       94.0,      15.06,    17.19,    13.42,    11.65,    17.99
       95.0,      15.00,    17.14,    13.35,    11.58,    17.93
       96.0,      14.94,    17.09,    13.29,    11.52,    17.86
       97.0,      14.88,    17.04,    13.23,    11.45,    17.80
       98.0,      14.82,    16.99,    13.17,    11.39,    17.74
       99.0,      14.77,    16.94,    13.12,    11.33,    17.67
      100.0,      14.71,    16.90,    13.06,    11.27,    17.61
      101.0,      14.66,    16.85,    13.01,    11.21,    17.55
      102.0,      14.60,    16.81,    12.96,    11.15,    17.50
      103.0,      14.55,    16.77,    12.91,    11.09,    17.44
      104.0,      14.50,    16.72,    12.86,    11.04,    17.38
      105.0,      14.45,    16.68,    12.81,    10.98,    17.33
      106.0,      14.40,    16.64,    12.76,    10.93,    17.27
      107.0,      14.36,    16.60,    12.72,    10.88,    17.22
      108.0,      14.31,    16.57,    12.68,    10.83,    17.16
      109.0,      14.26,    16.53,    12.63,    10.78,    17.11
      110.0,      14.22,    16.49,    12.59,    10.73,    17.06
      111.0,      14.17,    16.46,    12.55,    10.68,    17.01
      112.0,      14.13,    16.42,    12.51,    10.64,    16.96
      113.0,      14.09,    16.39,    12.47,    10.59,    16.91
      114.0,      14.05,    16.36,    12.43,    10.54,    16.86
      115.0,      14.01,    16.32,    12.39,    10.50,    16.81
      116.0,      13.97,    16.29,    12.36,    10.46,    16.76
      117.0,      13.93,    16.26,    12.32,    10.41,    16.71
      118.0,      13.89,    16.23,    12.29,    10.37,    16.66
      119.0,      13.85,    16.20,    12.25,    10.33,    16.62
      120.0,      13.81,    16.17,    12.22,    10.29,    16.57
      121.0,      13.77,    16.14,    12.18,    10.25,    16.53
      122.0,      13.74,    16.11,    12.15,    10.21,    16.48
      123.0,      13.70,    16.08,    12.12,    10.17,    16.43
      124.0,      13.67,    16.05,    12.09,    10.13,    16.39
      125.0,      13.63,    16.03,    12.06,    10.09,    16.35
      126.0,      13.60,    16.00,    12.03,    10.06,    16.30
      127.0,      13.56,    15.97,    12.00,    10.02,    16.26
      128.0,      13.53,    15.95,    11.97,     9.98,    16.22
      129.0,      13.50,    15.92,    11.94,     9.95,    16.17
      130.0,      13.46,    15.89,    11.91,     9.91,    16.13
      131.0,      13.43,    15.87,    11.89,     9.88,    16.09
      132.0,      13.40,    15.84,    11.86,     9.84,    16.05
      133.0,      13.37,    15.82,    11.83,     9.81,    16.01
      134.0,      13.34,    15.79,    11.81,     9.78,    15.97
      135.0,      13.30,    15.77,    11.78,     9.74,    15.92
      136.0,      13.27,    15.75,    11.75,     9.71,    15.88
      137.0,      13.24,    15.72,    11.73,     9.68,    15.84
      138.0,      13.21,    15.70,    11.70,     9.65,    15.80
      139.0,      13.18,    15.68,    11.68,     9.61,    15.77
      140.0,      13.16,    15.66,    11.66,     9.58,    15.73
      141.0,      13.13,    15.63,    11.63,     9.55,    15.69
      142.0,      13.10,    15.61,    11.61,     9.52,    15.65
      143.0,      13.07,    15.59,    11.59,     9.49,    15.61
      144.0,      13.04,    15.57,    11.56,     9.46,    15.57
      145.0,      13.01,    15.55,    11.54,     9.43,    15.53
      146.0,      12.98,    15.52,    11.52,     9.40,    15.50
      147.0,      12.96,    15.50,    11.50,     9.37,    15.46
      148.0,      12.93,    15.48,    11.47,     9.34,    15.42
      149.0,      12.90,    15.46,    11.45,     9.31,    15.38
      150.0,      12.88,    15.44,    11.43,     9.29,    15.35
      151.0,      12.85,    15.42,    11.41,     9.26,    15.31
      152.0,      12.82,    15.40,    11.39,     9.23,    15.27
      153.0,      12.80,    15.38,    11.37,     9.20,    15.24
      154.0,      12.77,    15.36,    11.35,     9.17,    15.20
      155.0,      12.74,    15.34,    11.33,     9.15,    15.16
      156.0,      12.72,    15.32,    11.31,     9.12,    15.13
      157.0,      12.69,    15.30,    11.29,     9.09,    15.09
      158.0,      12.67,    15.28,    11.27,     9.07,    15.06
      159.0,      12.64,    15.26,    11.25,     9.04,    15.02
      160.0,      12.62,    15.24,    11.23,     9.01,    14.99
      161.0,      12.59,    15.22,    11.21,     8.99,    14.95
      162.0,      12.57,    15.21,    11.19,     8.96,    14.92
      163.0,      12.54,    15.19,    11.17,     8.93,    14.88
      164.0,      12.52,    15.17,    11.15,     8.91,    14.85
      165.0,      12.49,    15.15,    11.13,     8.88,    14.81
      166.0,      12.47,    15.13,    11.12,     8.86,    14.78
      167.0,      12.45,    15.11,    11.10,     8.83,    14.74
      168.0,      12.42,    15.09,    11.08,     8.81,    14.71
      169.0,      12.40,    15.08,    11.06,     8.78,    14.68
      170.0,      12.37,    15.06,    11.04,     8.76,    14.64
      171.0,      12.35,    15.04,    11.02,     8.73,    14.61
      172.0,      12.33,    15.02,    11.01,     8.71,    14.57
      173.0,      12.30,    15.00,    10.99,     8.68,    14.54
      174.0,      12.28,    14.99,    10.97,     8.66,    14.51
      175.0,      12.26,    14.97,    10.95,     8.63,    14.47
      176.0,      12.23,    14.95,    10.94,     8.61,    14.44
      177.0,      12.21,    14.93,    10.92,     8.59,    14.41
      178.0,      12.19,    14.92,    10.90,     8.56,    14.38
      179.0,      12.17,    14.90,    10.88,     8.54,    14.34
      180.0,      12.14,    14.88,    10.87,     8.52,    14.31
      181.0,      12.12,    14.86,    10.85,     8.49,    14.28
      182.0,      12.10,    14.85,    10.83,     8.47,    14.25
      183.0,      12.08,    14.83,    10.82,     8.45,    14.21
      184.0,      12.05,    14.81,    10.80,     8.42,    14.18
      185.0,      12.03,    14.80,    10.78,     8.40,    14.15
      186.0,      12.01,    14.78,    10.77,     8.38,    14.12
      187.0,      11.99,    14.76,    10.75,     8.35,    14.08
      188.0,      11.97,    14.74,    10.73,     8.33,    14.05
      189.0,      11.94,    14.73,    10.72,     8.31,    14.02
      190.0,      11.92,    14.71,    10.70,     8.28,    13.99
      191.0,      11.90,    14.69,    10.68,     8.26,    13.96
      192.0,      11.88,    14.68,    10.67,     8.24,    13.93
      193.0,      11.86,    14.66,    10.65,     8.22,    13.89
      194.0,      11.83,    14.64,    10.64,     8.20,    13.86
      195.0,      11.81,    14.63,    10.62,     8.17,    13.83
      196.0,      11.79,    14.61,    10.60,     8.15,    13.80
      197.0,      11.77,    14.59,    10.59,     8.13,    13.77
      198.0,      11.75,    14.58,    10.57,     8.11,    13.74
      199.0,      11.73,    14.56,    10.56,     8.09,    13.71
      200.0,      11.71,    14.54,    10.54,     8.06,    13.68
      201.0,      11.69,    14.53,    10.52,     8.04,    13.65
      202.0,      11.66,    14.51,    10.51,     8.02,    13.62
      203.0,      11.64,    14.50,    10.49,     8.00,    13.59
      204.0,      11.62,    14.48,    10.48,     7.98,    13.55
      205.0,      11.60,    14.46,    10.46,     7.96,    13.52
      206.0,      11.58,    14.45,    10.45,     7.94,    13.49
      207.0,      11.56,    14.43,    10.43,     7.91,    13.46
      208.0,      11.54,    14.42,    10.41,     7.89,    13.43
      209.0,      11.52,    14.40,    10.40,     7.87,    13.40
      210.0,      11.50,    14.38,    10.38,     7.85,    13.37
      211.0,      11.48,    14.37,    10.37,     7.83,    13.34
      212.0,      11.46,    14.35,    10.35,     7.81,    13.31
      213.0,      11.44,    14.33,    10.34,     7.79,    13.28
      214.0,      11.42,    14.32,    10.32,     7.77,    13.25
      215.0,      11.40,    14.30,    10.31,     7.75,    13.22
      216.0,      11.38,    14.29,    10.29,     7.73,    13.19
      217.0,      11.35,    14.27,    10.28,     7.71,    13.17
      218.0,      11.33,    14.26,    10.26,     7.69,    13.14
      219.0,      11.31,    14.24,    10.25,     7.66,    13.11
      220.0,      11.29,    14.22,    10.23,     7.64,    13.08
      221.0,      11.27,    14.21,    10.22,     7.62,    13.05
      222.0,      11.25,    14.19,    10.20,     7.60,    13.02
      223.0,      11.23,    14.18,    10.19,     7.58,    12.99
      224.0,      11.21,    14.16,    10.17,     7.56,    12.96
      225.0,      11.19,    14.15,    10.16,     7.54,    12.93
      226.0,      11.17,    14.13,    10.14,     7.52,    12.90
      227.0,      11.16,    14.11,    10.13,     7.50,    12.87
      228.0,      11.14,    14.10,    10.11,     7.48,    12.85
      229.0,      11.12,    14.08,    10.10,     7.46,    12.82
      230.0,      11.10,    14.07,    10.08,     7.44,    12.79
      231.0,      11.08,    14.05,    10.07,     7.43,    12.76
      232.0,      11.06,    14.04,    10.05,     7.41,    12.73
      233.0,      11.04,    14.02,    10.04,     7.39,    12.70
      234.0,      11.02,    14.01,    10.02,     7.37,    12.68
      235.0,      11.00,    13.99,    10.01,     7.35,    12.65
      236.0,      10.98,    13.98,    10.00,     7.33,    12.62
      237.0,      10.96,    13.96,     9.98,     7.31,    12.59
      238.0,      10.94,    13.94,     9.97,     7.29,    12.56
      239.0,      10.92,    13.93,     9.95,     7.27,    12.53
      240.0,      10.90,    13.91,     9.94,     7.25,    12.51
      241.0,      10.88,    13.90,     9.92,     7.23,    12.48
      242.0,      10.86,    13.88,     9.91,     7.21,    12.45
      243.0,      10.84,    13.87,     9.89,     7.19,    12.42
      244.0,      10.83,    13.85,     9.88,     7.17,    12.40
      245.0,      10.81,    13.84,     9.87,     7.16,    12.37
      246.0,      10.79,    13.82,     9.85,     7.14,    12.34
      247.0,      10.77,    13.81,     9.84,     7.12,    12.31
      248.0,      10.75,    13.79,     9.82,     7.10,    12.29
      249.0,      10.73,    13.78,     9.81,     7.08,    12.26
      250.0,      10.71,    13.76,     9.79,     7.06,    12.23
      251.0,      10.69,    13.75,     9.78,     7.04,    12.20
      252.0,      10.67,    13.73,     9.77,     7.03,    12.18
      253.0,      10.66,    13.72,     9.75,     7.01,    12.15
      254.0,      10.64,    13.70,     9.74,     6.99,    12.12
      255.0,      10.62,    13.69,     9.72,     6.97,    12.10
      256.0,      10.60,    13.67,     9.71,     6.95,    12.07
      257.0,      10.58,    13.66,     9.70,     6.93,    12.04
      258.0,      10.56,    13.64,     9.68,     6.92,    12.02
      259.0,      10.55,    13.63,     9.67,     6.90,    11.99
      260.0,      10.53,    13.61,     9.65,     6.88,    11.96
      261.0,      10.51,    13.60,     9.64,     6.86,    11.94
      262.0,      10.49,    13.58,     9.63,     6.84,    11.91
      263.0,      10.47,    13.57,     9.61,     6.82,    11.88
      264.0,      10.45,    13.55,     9.60,     6.81,    11.86
      265.0,      10.44,    13.54,     9.58,     6.79,    11.83
      266.0,      10.42,    13.52,     9.57,     6.77,    11.80
      267.0,      10.40,    13.51,     9.56,     6.75,    11.78
      268.0,      10.38,    13.49,     9.54,     6.74,    11.75
      269.0,      10.36,    13.48,     9.53,     6.72,    11.73
      270.0,      10.34,    13.46,     9.52,     6.70,    11.70
      271.0,      10.33,    13.45,     9.50,     6.68,    11.67
      272.0,      10.31,    13.43,     9.49,     6.67,    11.65
      273.0,      10.29,    13.42,     9.47,     6.65,    11.62
      274.0,      10.27,    13.40,     9.46,     6.63,    11.60
      275.0,      10.25,    13.39,     9.45,     6.61,    11.57
      276.0,      10.24,    13.38,     9.43,     6.60,    11.54
      277.0,      10.22,    13.36,     9.42,     6.58,    11.52
      278.0,      10.20,    13.35,     9.41,     6.56,    11.49
      279.0,      10.18,    13.33,     9.39,     6.54,    11.47
      280.0,      10.17,    13.32,     9.38,     6.53,    11.44
      281.0,      10.15,    13.30,     9.37,     6.51,    11.42
      282.0,      10.13,    13.29,     9.35,     6.49,    11.39
      283.0,      10.11,    13.27,     9.34,     6.48,    11.37
      284.0,      10.10,    13.26,     9.32,     6.46,    11.34
      285.0,      10.08,    13.24,     9.31,     6.44,    11.32
      286.0,      10.06,    13.23,     9.30,     6.42,    11.29
      287.0,      10.04,    13.22,     9.28,     6.41,    11.27
      288.0,      10.03,    13.20,     9.27,     6.39,    11.24
      289.0,      10.01,    13.19,     9.26,     6.37,    11.22
      290.0,       9.99,    13.17,     9.24,     6.36,    11.19
      291.0,       9.97,    13.16,     9.23,     6.34,    11.17
      292.0,       9.96,    13.14,     9.22,     6.32,    11.14
      293.0,       9.94,    13.13,     9.20,     6.31,    11.12
      294.0,       9.92,    13.11,     9.19,     6.29,    11.09
      295.0,       9.91,    13.10,     9.18,     6.27,    11.07
      296.0,       9.89,    13.09,     9.16,     6.26,    11.04
      297.0,       9.87,    13.07,     9.15,     6.24,    11.02
      298.0,       9.85,    13.06,     9.14,     6.23,    10.99
      299.0,       9.84,    13.04,     9.13,     6.21,    10.97
      300.0,       9.82,    13.03,     9.11,     6.19,    10.94
      301.0,       9.80,    13.01,     9.10,     6.18,    10.92
      302.0,       9.79,    13.00,     9.09,     6.16,    10.90
      303.0,       9.77,    12.99,     9.07,     6.14,    10.87
      304.0,       9.75,    12.97,     9.06,     6.13,    10.85
      305.0,       9.74,    12.96,     9.05,     6.11,    10.82
      306.0,       9.72,    12.94,     9.03,     6.10,    10.80
      307.0,       9.70,    12.93,     9.02,     6.08,    10.78
      308.0,       9.68,    12.92,     9.01,     6.06,    10.75
      309.0,       9.67,    12.90,     8.99,     6.05,    10.73
      310.0,       9.65,    12.89,     8.98,     6.03,    10.70
