Radius (km), Mean (m/s), NE (m/s), SE (m/s), SW (m/s), NW (m/s)
        0.0,       0.00,     0.00,     0.00,     0.00,     0.00
        1.0,       2.46,     2.32,     2.54,     2.53,     2.43
        2.0,       3.88,     3.90,     3.91,     3.78,     3.96
        3.0,       5.08,     5.28,     5.02,     4.77,     5.25
        4.0,       6.15,     6.55,     6.00,     5.64,     6.43
        5.0,       7.14,     7.74,     6.89,     6.41,     7.51
        6.0,       8.06,     8.87,     7.72,     7.12,     8.53
        7.0,       8.94,     9.96,     8.49,     7.79,     9.51
        8.0,       9.77,    11.01,     9.23,     8.41,    10.44
        9.0,      10.57,    12.02,     9.93,     9.00,    11.33
       10.0,      11.34,    13.01,    10.60,     9.57,    12.20
       11.0,      12.09,    13.97,    11.24,    10.11,    13.04
       12.0,      12.82,    14.91,    11.87,    10.63,    13.86
       13.0,      13.53,    15.83,    12.47,    11.13,    14.66
       14.0,      14.22,    16.74,    13.06,    11.62,    15.44
       15.0,      14.89,    17.64,    13.63,    12.09,    16.21
       16.0,      15.58,    18.58,    14.20,    12.55,    16.97
       17.0,      16.28,    19.59,    14.80,    13.01,    17.74
       18.0,      17.04,    20.72,    15.43,    13.48,    18.56
       19.0,      17.87,    21.97,    16.11,    13.96,    19.44
       20.0,      18.76,    23.33,    16.84,    14.48,    20.41
       21.0,      19.71,    24.76,    17.61,    15.02,    21.44
       22.0,      20.67,    26.19,    18.39,    15.58,    22.52
       23.0,      21.60,    27.54,    19.15,    16.14,    23.58
       24.0,      22.46,    28.74,    19.84,    16.68,    24.58
       25.0,      23.19,    29.72,    20.43,    17.17,    25.46
       26.0,      23.77,    30.42,    20.91,    17.59,    26.17
       27.0,      24.17,    30.84,    21.24,    17.92,    26.68
       28.0,      24.39,    30.99,    21.42,    18.16,    26.99
       29.0,      24.44,    30.90,    21.48,    18.30,    27.09
       30.0,      24.35,    30.61,    21.43,    18.35,    27.02
       31.0,      24.17,    30.20,    21.30,    18.34,    26.82
       32.0,      23.91,    29.72,    21.12,    18.27,    26.54
       33.0,      23.63,    29.22,    20.92,    18.18,    26.20
       34.0,      23.34,    28.72,    20.71,    18.07,    25.86
       35.0,      23.06,    28.25,    20.50,    17.97,    25.53
       36.0,      22.80,    27.81,    20.31,    17.87,    25.21
       37.0,      22.55,    27.38,    20.12,    17.78,    24.92
       38.0,      22.31,    26.97,    19.93,    17.69,    24.64
       39.0,      22.08,    26.58,    19.75,    17.61,    24.37
       40.0,      21.85,    26.20,    19.57,    17.52,    24.11
       41.0,      21.63,    25.84,    19.40,    17.44,    23.86
       42.0,      21.42,    25.48,    19.23,    17.36,    23.62
       43.0,      21.22,    25.15,    19.06,    17.28,    23.38
       44.0,      21.02,    24.82,    18.89,    17.21,    23.15
       45.0,      20.83,    24.51,    18.73,    17.13,    22.93
       46.0,      20.64,    24.21,    18.57,    17.06,    22.72
       47.0,      20.46,    23.92,    18.41,    16.98,    22.52
       48.0,      20.28,    23.64,    18.26,    16.91,    22.32
       49.0,      20.11,    23.37,    18.11,    16.84,    22.12
       50.0,      19.94,    23.11,    17.96,    16.77,    21.94
       51.0,      19.78,    22.86,    17.81,    16.70,    21.76
       52.0,      19.62,    22.62,    17.67,    16.63,    21.58
       53.0,      19.47,    22.39,    17.52,    16.56,    21.41
       54.0,      19.32,    22.16,    17.38,    16.50,    21.24
       55.0,      19.18,    21.95,    17.25,    16.43,    21.08
       56.0,      19.04,    21.74,    17.11,    16.37,    20.93
       57.0,      18.90,    21.54,    16.98,    16.31,    20.78
       58.0,      18.77,    21.35,    16.85,    16.24,    20.63
       59.0,      18.64,    21.16,    16.72,    16.18,    20.49
       60.0,      18.51,    20.98,    16.60,    16.12,    20.35
       61.0,      18.39,    20.81,    16.47,    16.06,    20.22
       62.0,      18.27,    20.64,    16.35,    16.00,    20.09
       63.0,      18.16,    20.48,    16.23,    15.94,    19.96
       64.0,      18.04,    20.33,    16.12,    15.88,    19.84
       65.0,      17.93,    20.18,    16.00,    15.83,    19.72
       66.0,      17.82,    20.03,    15.89,    15.77,    19.61
       67.0,      17.72,    19.89,    15.78,    15.71,    19.49
       68.0,      17.62,    19.76,    15.67,    15.66,    19.38
       69.0,      17.52,    19.63,    15.56,    15.60,    19.28
       70.0,      17.42,    19.50,    15.45,    15.55,    19.17
       71.0,      17.32,    19.38,    15.35,    15.49,    19.07
       72.0,      17.23,    19.26,    15.25,    15.44,    18.97
       73.0,      17.14,    19.15,    15.15,    15.39,    18.87
       74.0,      17.05,    19.04,    15.05,    15.33,    18.78
       75.0,      16.96,    18.93,    14.95,    15.28,    18.69
       76.0,      16.88,    18.83,    14.85,    15.23,    18.60
       77.0,      16.80,    18.73,    14.76,    15.18,    18.51
       78.0,      16.71,    18.64,    14.67,    15.13,    18.43
       79.0,      16.64,    18.55,    14.58,    15.08,    18.34
       80.0,      16.56,    18.46,    14.49,    15.03,    18.26
       81.0,      16.48,    18.37,    14.40,    14.98,    18.18
       82.0,      16.41,    18.28,    14.31,    14.93,    18.10
       83.0,      16.33,    18.20,    14.23,    14.88,    18.03
       84.0,      16.26,    18.12,    14.14,    14.83,    17.95
       85.0,      16.19,    18.05,    14.06,    14.78,    17.88
       86.0,      16.12,    17.97,    13.98,    14.74,    17.81
       87.0,      16.06,    17.90,    13.90,    14.69,    17.74
       88.0,      15.99,    17.83,    13.82,    14.64,    17.67
       89.0,      15.93,    17.77,    13.74,    14.59,    17.60
       90.0,      15.86,    17.70,    13.67,    14.55,    17.53
       91.0,      15.80,    17.64,    13.59,    14.50,    17.47
       92.0,      15.74,    17.58,    13.52,    14.46,    17.40
       93.0,      15.68,    17.52,    13.45,    14.41,    17.34
       94.0,      15.62,    17.46,    13.38,    14.37,    17.28
       95.0,      15.56,    17.40,    13.31,    14.32,    17.22
       96.0,      15.50,    17.35,    13.24,    14.28,    17.16
       97.0,      15.45,    17.29,    13.17,    14.23,    17.10
       98.0,      15.39,    17.24,    13.10,    14.19,    17.04
       99.0,      15.34,    17.19,    13.04,    14.14,    16.99
      100.0,      15.29,    17.14,    12.97,    14.10,    16.93
      101.0,      15.23,    17.09,    12.91,    14.06,    16.88
      102.0,      15.18,    17.05,    12.85,    14.01,    16.82
      103.0,      15.13,    17.00,    12.79,    13.97,    16.77
      104.0,      15.08,    16.96,    12.73,    13.93,    16.72
      105.0,      15.03,    16.91,    12.67,    13.88,    16.66
      106.0,      14.98,    16.87,    12.61,    13.84,    16.61
      107.0,      14.94,    16.83,    12.55,    13.80,    16.56
      108.0,      14.89,    16.79,    12.49,    13.76,    16.51
      109.0,      14.84,    16.75,    12.44,    13.72,    16.46
      110.0,      14.80,    16.71,    12.38,    13.68,    16.42
      111.0,      14.75,    16.68,    12.33,    13.63,    16.37
      112.0,      14.71,    16.64,    12.27,    13.59,    16.32
      113.0,      14.66,    16.61,    12.22,    13.55,    16.27
      114.0,      14.62,    16.57,    12.17,    13.51,    16.23
      115.0,      14.58,    16.54,    12.12,    13.47,    16.18
      116.0,      14.53,    16.50,    12.07,    13.43,    16.14
      117.0,      14.49,    16.47,    12.02,    13.39,    16.09
      118.0,      14.45,    16.44,    11.97,    13.35,    16.05
      119.0,      14.41,    16.41,    11.92,    13.31,    16.00
      120.0,      14.37,    16.38,    11.87,    13.27,    15.96
      121.0,      14.33,    16.35,    11.83,    13.23,    15.92
      122.0,      14.29,    16.32,    11.78,    13.19,    15.88
      123.0,      14.25,    16.29,    11.73,    13.15,    15.83
      124.0,      14.21,    16.26,    11.69,    13.11,    15.79
      125.0,      14.18,    16.23,    11.65,    13.07,    15.75
      126.0,      14.14,    16.20,    11.60,    13.04,    15.71
      127.0,      14.10,    16.18,    11.56,    13.00,    15.67
      128.0,      14.06,    16.15,    11.52,    12.96,    15.63
      129.0,      14.03,    16.12,    11.48,    12.92,    15.59
      130.0,      13.99,    16.10,    11.44,    12.88,    15.55
      131.0,      13.96,    16.07,    11.39,    12.84,    15.51
      132.0,      13.92,    16.05,    11.36,    12.81,    15.47
      133.0,      13.89,    16.02,    11.32,    12.77,    15.43
      134.0,      13.85,    16.00,    11.28,    12.73,    15.39
      135.0,      13.82,    15.97,    11.24,    12.69,    15.36
      136.0,      13.78,    15.95,    11.20,    12.66,    15.32
      137.0,      13.75,    15.93,    11.16,    12.62,    15.28
      138.0,      13.71,    15.91,    11.13,    12.58,    15.24
      139.0,      13.68,    15.88,    11.09,    12.55,    15.21
      140.0,      13.65,    15.86,    11.06,    12.51,    15.17
      141.0,      13.62,    15.84,    11.02,    12.47,    15.13
      142.0,      13.58,    15.82,    10.99,    12.44,    15.10
      143.0,      13.55,    15.79,    10.95,    12.40,    15.06
      144.0,      13.52,    15.77,    10.92,    12.36,    15.02
      145.0,      13.49,    15.75,    10.89,    12.33,    14.99
      146.0,      13.46,    15.73,    10.85,    12.29,    14.95
      147.0,      13.43,    15.71,    10.82,    12.26,    14.92
      148.0,      13.40,    15.69,    10.79,    12.22,    14.88
      149.0,      13.36,    15.67,    10.76,    12.18,    14.85
      150.0,      13.33,    15.65,    10.73,    12.15,    14.81
      151.0,      13.30,    15.63,    10.70,    12.11,    14.78
      152.0,      13.27,    15.61,    10.67,    12.08,    14.74
      153.0,      13.24,    15.59,    10.64,    12.04,    14.71
      154.0,      13.22,    15.57,    10.61,    12.01,    14.67
      155.0,      13.19,    15.55,    10.58,    11.97,    14.64
      156.0,      13.16,    15.53,    10.55,    11.94,    14.61
      157.0,      13.13,    15.52,    10.52,    11.90,    14.57
      158.0,      13.10,    15.50,    10.49,    11.87,    14.54
      159.0,      13.07,    15.48,    10.47,    11.83,    14.51
      160.0,      13.04,    15.46,    10.44,    11.80,    14.47
      161.0,      13.01,    15.44,    10.41,    11.77,    14.44
      162.0,      12.99,    15.42,    10.38,    11.73,    14.41
      163.0,      12.96,    15.41,    10.36,    11.70,    14.37
      164.0,      12.93,    15.39,    10.33,    11.66,    14.34
      165.0,      12.90,    15.37,    10.31,    11.63,    14.31
      166.0,      12.88,    15.35,    10.28,    11.60,    14.28
      167.0,      12.85,    15.33,    10.26,    11.56,    14.24
      168.0,      12.82,    15.32,    10.23,    11.53,    14.21
      169.0,      12.80,    15.30,    10.21,    11.50,    14.18
      170.0,      12.77,    15.28,    10.18,    11.46,    14.15
      171.0,      12.74,    15.27,    10.16,    11.43,    14.12
      172.0,      12.72,    15.25,    10.14,    11.40,    14.08
      173.0,      12.69,    15.23,    10.11,    11.36,    14.05
      174.0,      12.66,    15.21,    10.09,    11.33,    14.02
      175.0,      12.64,    15.20,    10.07,    11.30,    13.99
      176.0,      12.61,    15.18,    10.04,    11.26,    13.96
      177.0,      12.59,    15.16,    10.02,    11.23,    13.93
      178.0,      12.56,    15.15,    10.00,    11.20,    13.90
      179.0,      12.54,    15.13,     9.98,    11.17,    13.86
      180.0,      12.51,    15.12,     9.96,    11.13,    13.83
      181.0,      12.48,    15.10,     9.93,    11.10,    13.80
      182.0,      12.46,    15.08,     9.91,    11.07,    13.77
      183.0,      12.43,    15.07,     9.89,    11.04,    13.74
      184.0,      12.41,    15.05,     9.87,    11.01,    13.71
      185.0,      12.39,    15.03,     9.85,    10.97,    13.68
      186.0,      12.36,    15.02,     9.83,    10.94,    13.65
      187.0,      12.34,    15.00,     9.81,    10.91,    13.62
      188.0,      12.31,    14.99,     9.79,    10.88,    13.59
      189.0,      12.29,    14.97,     9.77,    10.85,    13.56
      190.0,      12.26,    14.95,     9.75,    10.82,    13.53
      191.0,      12.24,    14.94,     9.73,    10.79,    13.50
      192.0,      12.22,    14.92,     9.71,    10.75,    13.47
      193.0,      12.19,    14.91,     9.70,    10.72,    13.44
      194.0,      12.17,    14.89,     9.68,    10.69,    13.41
      195.0,      12.14,    14.88,     9.66,    10.66,    13.38
      196.0,      12.12,    14.86,     9.64,    10.63,    13.35
      197.0,      12.10,    14.84,     9.62,    10.60,    13.32
      198.0,      12.07,    14.83,     9.60,    10.57,    13.29
      199.0,      12.05,    14.81,     9.59,    10.54,    13.26
      200.0,      12.03,    14.80,     9.57,    10.51,    13.23
      201.0,      12.00,    14.78,     9.55,    10.48,    13.20
      202.0,      11.98,    14.77,     9.54,    10.45,    13.18
      203.0,      11.96,    14.75,     9.52,    10.42,    13.15
      204.0,      11.94,    14.74,     9.50,    10.39,    13.12
      205.0,      11.91,    14.72,     9.48,    10.36,    13.09
      206.0,      11.89,    14.71,     9.47,    10.33,    13.06
      207.0,      11.87,    14.69,     9.45,    10.30,    13.03
      208.0,      11.85,    14.68,     9.43,    10.27,    13.00
      209.0,      11.82,    14.66,     9.42,    10.24,    12.97
      210.0,      11.80,    14.65,     9.40,    10.21,    12.95
      211.0,      11.78,    14.63,     9.39,    10.18,    12.92
      212.0,      11.76,    14.62,     9.37,    10.15,    12.89
      213.0,      11.73,    14.60,     9.36,    10.12,    12.86
      214.0,      11.71,    14.59,     9.34,    10.09,    12.83
      215.0,      11.69,    14.57,     9.32,    10.06,    12.80
      216.0,      11.67,    14.56,     9.31,    10.03,    12.78
      217.0,      11.65,    14.54,     9.29,    10.00,    12.75
      218.0,      11.63,    14.53,     9.28,     9.98,    12.72
      219.0,      11.60,    14.51,     9.26,     9.95,    12.69
      220.0,      11.58,    14.50,     9.25,     9.92,    12.67
      221.0,      11.56,    14.48,     9.24,     9.89,    12.64
      222.0,      11.54,    14.47,     9.22,     9.86,    12.61
      223.0,      11.52,    14.45,     9.21,     9.83,    12.58
      224.0,      11.50,    14.44,     9.19,     9.80,    12.55
      225.0,      11.48,    14.42,     9.18,     9.78,    12.53
      226.0,      11.46,    14.41,     9.16,     9.75,    12.50
      227.0,      11.43,    14.40,     9.15,     9.72,    12.47
      228.0,      11.41,    14.38,     9.14,     9.69,    12.45
      229.0,      11.39,    14.37,     9.12,     9.66,    12.42
      230.0,      11.37,    14.35,     9.11,     9.64,    12.39
      231.0,      11.35,    14.34,     9.09,     9.61,    12.36
      232.0,      11.33,    14.32,     9.08,     9.58,    12.34
      233.0,      11.31,    14.31,     9.07,     9.55,    12.31
      234.0,      11.29,    14.29,     9.05,     9.52,    12.28
      235.0,      11.27,    14.28,     9.04,     9.50,    12.26
      236.0,      11.25,    14.26,     9.03,     9.47,    12.23
      237.0,      11.23,    14.25,     9.02,     9.44,    12.20
      238.0,      11.21,    14.24,     9.00,     9.42,    12.18
      239.0,      11.19,    14.22,     8.99,     9.39,    12.15
      240.0,      11.17,    14.21,     8.98,     9.36,    12.12
      241.0,      11.15,    14.19,     8.96,     9.33,    12.10
      242.0,      11.13,    14.18,     8.95,     9.31,    12.07
      243.0,      11.11,    14.16,     8.94,     9.28,    12.04
      244.0,      11.09,    14.15,     8.93,     9.25,    12.02
      245.0,      11.07,    14.14,     8.91,     9.23,    11.99
      246.0,      11.05,    14.12,     8.90,     9.20,    11.97
      247.0,      11.03,    14.11,     8.89,     9.17,    11.94
      248.0,      11.01,    14.09,     8.88,     9.15,    11.91
      249.0,      10.99,    14.08,     8.87,     9.12,    11.89
      250.0,      10.97,    14.06,     8.85,     9.09,    11.86
      251.0,      10.95,    14.05,     8.84,     9.07,    11.84
      252.0,      10.93,    14.04,     8.83,     9.04,    11.81
      253.0,      10.91,    14.02,     8.82,     9.02,    11.78
      254.0,      10.89,    14.01,     8.81,     8.99,    11.76
      255.0,      10.87,    13.99,     8.79,     8.96,    11.73
      256.0,      10.85,    13.98,     8.78,     8.94,    11.71
      257.0,      10.83,    13.97,     8.77,     8.91,    11.68
      258.0,      10.81,    13.95,     8.76,     8.89,    11.66
      259.0,      10.79,    13.94,     8.75,     8.86,    11.63
      260.0,      10.78,    13.92,     8.74,     8.84,    11.61
      261.0,      10.76,    13.91,     8.73,     8.81,    11.58
      262.0,      10.74,    13.90,     8.72,     8.79,    11.55
      263.0,      10.72,    13.88,     8.70,     8.76,    11.53
      264.0,      10.70,    13.87,     8.69,     8.73,    11.50
      265.0,      10.68,    13.85,     8.68,     8.71,    11.48
      266.0,      10.66,    13.84,     8.67,     8.68,    11.45
      267.0,      10.64,    13.83,     8.66,     8.66,    11.43
      268.0,      10.63,    13.81,     8.65,     8.63,    11.40
      269.0,      10.61,    13.80,     8.64,     8.61,    11.38
      270.0,      10.59,    13.79,     8.63,     8.58,    11.36
      271.0,      10.57,    13.77,     8.62,     8.56,    11.33
      272.0,      10.55,    13.76,     8.61,     8.54,    11.31
      273.0,      10.53,    13.74,     8.60,     8.51,    11.28
      274.0,      10.51,    13.73,     8.58,     8.49,    11.26
      275.0,      10.50,    13.72,     8.57,     8.46,    11.23
      276.0,      10.48,    13.70,     8.56,     8.44,    11.21
      277.0,      10.46,    13.69,     8.55,     8.41,    11.18
      278.0,      10.44,    13.68,     8.54,     8.39,    11.16
      279.0,      10.42,    13.66,     8.53,     8.36,    11.13
      280.0,      10.41,    13.65,     8.52,     8.34,    11.11
      281.0,      10.39,    13.63,     8.51,     8.32,    11.09
      282.0,      10.37,    13.62,     8.50,     8.29,    11.06
      283.0,      10.35,    13.61,     8.49,     8.27,    11.04
      284.0,      10.33,    13.59,     8.48,     8.24,    11.01
      285.0,      10.32,    13.58,     8.47,     8.22,    10.99
      286.0,      10.30,    13.57,     8.46,     8.20,    10.97
      287.0,      10.28,    13.55,     8.45,     8.17,    10.94
      288.0,      10.26,    13.54,     8.44,     8.15,    10.92
      289.0,      10.24,    13.53,     8.43,     8.13,    10.89
      290.0,      10.23,    13.51,     8.42,     8.10,    10.87
      291.0,      10.21,    13.50,     8.41,     8.08,    10.85
      292.0,      10.19,    13.48,     8.40,     8.06,    10.82
      293.0,      10.17,    13.47,     8.39,     8.03,    10.80
      294.0,      10.16,    13.46,     8.38,     8.01,    10.78
      295.0,      10.14,    13.44,     8.37,     7.99,    10.75
      296.0,      10.12,    13.43,     8.36,     7.96,    10.73
      297.0,      10.10,    13.42,     8.35,     7.94,    10.71
      298.0,      10.09,    13.40,     8.34,     7.92,    10.68
      299.0,      10.07,    13.39,     8.33,     7.90,    10.66
      300.0,      10.05,    13.38,     8.32,     7.87,    10.64
      301.0,      10.04,    13.36,     8.31,     7.85,    10.61
      302.0,      10.02,    13.35,     8.31,     7.83,    10.59
      303.0,      10.00,    13.34,     8.30,     7.80,    10.57
      304.0,       9.98,    13.32,     8.29,     7.78,    10.54
      305.0,       9.97,    13.31,     8.28,     7.76,    10.52
      306.0,       9.95,    13.30,     8.27,     7.74,    10.50
      307.0,       9.93,    13.28,     8.26,     7.71,    10.48
      308.0,       9.92,    13.27,     8.25,     7.69,    10.45
      309.0,       9.90,    13.26,     8.24,     7.67,    10.43
      310.0,       9.88,    13.24,     8.23,     7.65,    10.41
