Radius (km), Mean (m/s), NE (m/s), SE (m/s), SW (m/s), NW (m/s)
        0.0,       0.00,     0.00,     0.00,     0.00,     0.00
        1.0,       2.42,     2.10,     2.62,     2.62,     2.36
        2.0,       5.01,     4.62,     5.25,     5.22,     4.93
        3.0,       7.72,     7.41,     7.97,     7.84,     7.64
        4.0,      10.63,    10.54,    10.89,    10.56,    10.55
        5.0,      13.85,    14.09,    14.09,    13.45,    13.75
        6.0,      17.43,    18.15,    17.64,    16.61,    17.32
        7.0,      21.39,    22.71,    21.52,    20.07,    21.28
        8.0,      25.67,    27.68,    25.64,    23.79,    25.57
        9.0,      30.14,    32.91,    29.85,    27.69,    30.09
       10.0,      34.60,    38.15,    33.97,    31.63,    34.63
       11.0,      38.84,    43.13,    37.80,    35.43,    39.00
       12.0,      42.65,    47.61,    41.14,    38.90,    42.96
       13.0,      45.87,    51.36,    43.87,    41.89,    46.34
       14.0,      48.36,    54.26,    45.90,    44.28,    49.02
       15.0,      50.10,    56.25,    47.23,    46.02,    50.93
       16.0,      51.12,    57.38,    47.91,    47.11,    52.09
       17.0,      51.52,    57.77,    48.06,    47.63,    52.61
       18.0,      51.43,    57.60,    47.81,    47.68,    52.61
       19.0,      51.01,    57.04,    47.31,    47.41,    52.25
       20.0,      50.40,    56.28,    46.69,    46.95,    51.70
       21.0,      49.74,    55.45,    46.03,    46.41,    51.06
       22.0,      49.07,    54.63,    45.38,    45.85,    50.42
       23.0,      48.44,    53.85,    44.77,    45.32,    49.81
       24.0,      47.83,    53.11,    44.17,    44.82,    49.23
       25.0,      47.25,    52.39,    43.59,    44.34,    48.67
       26.0,      46.67,    51.68,    43.02,    43.87,    48.12
       27.0,      46.11,    50.99,    42.46,    43.40,    47.57
       28.0,      45.55,    50.32,    41.92,    42.94,    47.04
       29.0,      45.01,    49.65,    41.38,    42.49,    46.51
       30.0,      44.47,    49.00,    40.86,    42.04,    45.99
       31.0,      43.95,    48.37,    40.34,    41.60,    45.48
       32.0,      43.43,    47.74,    39.84,    41.17,    44.97
       33.0,      42.92,    47.13,    39.34,    40.74,    44.48
       34.0,      42.43,    46.53,    38.86,    40.32,    43.99
       35.0,      41.94,    45.95,    38.39,    39.90,    43.51
       36.0,      41.45,    45.38,    37.92,    39.49,    43.03
       37.0,      40.98,    44.81,    37.46,    39.08,    42.57
       38.0,      40.52,    44.26,    37.02,    38.69,    42.11
       39.0,      40.06,    43.72,    36.58,    38.29,    41.65
       40.0,      39.61,    43.20,    36.15,    37.90,    41.21
       41.0,      39.17,    42.68,    35.73,    37.52,    40.77
       42.0,      38.74,    42.17,    35.32,    37.14,    40.33
       43.0,      38.32,    41.67,    34.91,    36.77,    39.91
       44.0,      37.90,    41.19,    34.52,    36.40,    39.49
       45.0,      37.49,    40.71,    34.13,    36.04,    39.07
       46.0,      37.09,    40.24,    33.75,    35.69,    38.67
       47.0,      36.69,    39.79,    33.38,    35.33,    38.26
       48.0,      36.30,    39.34,    33.01,    34.99,    37.87
       49.0,      35.92,    38.90,    32.65,    34.64,    37.48
       50.0,      35.54,    38.47,    32.30,    34.31,    37.09
       51.0,      35.17,    38.05,    31.96,    33.97,    36.72
       52.0,      34.81,    37.63,    31.62,    33.65,    36.34
       53.0,      34.45,    37.23,    31.29,    33.32,    35.98
       54.0,      34.10,    36.83,    30.96,    33.00,    35.62
       55.0,      33.76,    36.44,    30.65,    32.69,    35.26
       56.0,      33.42,    36.06,    30.33,    32.38,    34.91
       57.0,      33.09,    35.69,    30.03,    32.07,    34.56
       58.0,      32.76,    35.32,    29.73,    31.77,    34.22
       59.0,      32.44,    34.96,    29.44,    31.47,    33.89
       60.0,      32.12,    34.61,    29.15,    31.18,    33.56
       61.0,      31.81,    34.27,    28.86,    30.89,    33.23
       62.0,      31.51,    33.93,    28.59,    30.60,    32.91
       63.0,      31.21,    33.60,    28.32,    30.32,    32.59
       64.0,      30.91,    33.27,    28.05,    30.04,    32.28
       65.0,      30.62,    32.96,    27.79,    29.77,    31.98
       66.0,      30.34,    32.64,    27.53,    29.50,    31.67
       67.0,      30.06,    32.34,    27.28,    29.23,    31.38
       68.0,      29.78,    32.04,    27.04,    28.97,    31.08
       69.0,      29.51,    31.74,    26.79,    28.71,    30.79
       70.0,      29.24,    31.45,    26.56,    28.45,    30.51
       71.0,      28.98,    31.17,    26.33,    28.20,    30.23
       72.0,      28.72,    30.89,    26.10,    27.95,    29.95
       73.0,      28.47,    30.62,    25.88,    27.71,    29.68
       74.0,      28.22,    30.36,    25.66,    27.46,    29.41
       75.0,      27.98,    30.09,    25.44,    27.23,    29.15
       76.0,      27.74,    29.84,    25.23,    26.99,    28.89
       77.0,      27.50,    29.59,    25.02,    26.76,    28.63
       78.0,      27.27,    29.34,    24.82,    26.53,    28.38
       79.0,      27.04,    29.10,    24.62,    26.30,    28.13
       80.0,      26.81,    28.86,    24.43,    26.08,    27.88
       81.0,      26.59,    28.63,    24.24,    25.86,    27.64
       82.0,      26.37,    28.40,    24.05,    25.64,    27.40
       83.0,      26.16,    28.17,    23.86,    25.43,    27.16
       84.0,      25.95,    27.95,    23.68,    25.21,    26.93
       85.0,      25.74,    27.74,    23.51,    25.01,    26.70
       86.0,      25.53,    27.53,    23.33,    24.80,    26.48
       87.0,      25.33,    27.32,    23.16,    24.60,    26.26
       88.0,      25.14,    27.12,    23.00,    24.40,    26.04
       89.0,      24.94,    26.92,    22.83,    24.20,    25.82
       90.0,      24.75,    26.72,    22.67,    24.00,    25.61
       91.0,      24.56,    26.53,    22.51,    23.81,    25.40
       92.0,      24.38,    26.34,    22.36,    23.62,    25.19
       93.0,      24.19,    26.15,    22.20,    23.43,    24.99
       94.0,      24.02,    25.97,    22.05,    23.25,    24.79
       95.0,      23.84,    25.79,    21.91,    23.07,    24.59
       96.0,      23.67,    25.62,    21.76,    22.89,    24.40
       97.0,      23.49,    25.44,    21.62,    22.71,    24.20
       98.0,      23.33,    25.27,    21.48,    22.53,    24.01
       99.0,      23.16,    25.11,    21.35,    22.36,    23.83
      100.0,      23.00,    24.94,    21.21,    22.19,    23.64
      101.0,      22.84,    24.78,    21.08,    22.02,    23.46
      102.0,      22.68,    24.63,    20.95,    21.85,    23.28
      103.0,      22.52,    24.47,    20.83,    21.69,    23.11
      104.0,      22.37,    24.32,    20.70,    21.53,    22.93
      105.0,      22.22,    24.17,    20.58,    21.37,    22.76
      106.0,      22.07,    24.02,    20.46,    21.21,    22.59
      107.0,      21.93,    23.88,    20.35,    21.05,    22.43
      108.0,      21.78,    23.74,    20.23,    20.90,    22.26
      109.0,      21.64,    23.60,    20.12,    20.75,    22.10
      110.0,      21.50,    23.46,    20.01,    20.60,    21.94
      111.0,      21.36,    23.33,    19.90,    20.45,    21.78
      112.0,      21.23,    23.20,    19.79,    20.30,    21.63
      113.0,      21.10,    23.07,    19.68,    20.16,    21.47
      114.0,      20.97,    22.94,    19.58,    20.02,    21.32
      115.0,      20.84,    22.81,    19.48,    19.88,    21.17
      116.0,      20.71,    22.69,    19.38,    19.74,    21.03
      117.0,      20.58,    22.57,    19.28,    19.60,    20.88
      118.0,      20.46,    22.45,    19.18,    19.47,    20.74
      119.0,      20.34,    22.33,    19.09,    19.33,    20.60
      120.0,      20.22,    22.22,    19.00,    19.20,    20.46
      121.0,      20.10,    22.11,    18.90,    19.07,    20.32
      122.0,      19.99,    22.00,    18.81,    18.94,    20.19
      123.0,      19.87,    21.89,    18.73,    18.82,    20.05
      124.0,      19.76,    21.78,    18.64,    18.69,    19.92
      125.0,      19.65,    21.67,    18.55,    18.57,    19.79
      126.0,      19.54,    21.57,    18.47,    18.45,    19.66
      127.0,      19.43,    21.47,    18.39,    18.33,    19.54
      128.0,      19.32,    21.37,    18.31,    18.21,    19.41
      129.0,      19.22,    21.27,    18.23,    18.09,    19.29
      130.0,      19.12,    21.17,    18.15,    17.97,    19.17
      131.0,      19.01,    21.07,    18.07,    17.86,    19.05
      132.0,      18.91,    20.98,    18.00,    17.75,    18.93
      133.0,      18.81,    20.88,    17.92,    17.64,    18.82
      134.0,      18.72,    20.79,    17.85,    17.52,    18.70
      135.0,      18.62,    20.70,    17.78,    17.42,    18.59
      136.0,      18.53,    20.61,    17.71,    17.31,    18.48
      137.0,      18.43,    20.53,    17.64,    17.20,    18.37
      138.0,      18.34,    20.44,    17.57,    17.10,    18.26
      139.0,      18.25,    20.36,    17.50,    16.99,    18.15
      140.0,      18.16,    20.27,    17.43,    16.89,    18.04
      141.0,      18.07,    20.19,    17.37,    16.79,    17.94
      142.0,      17.98,    20.11,    17.30,    16.69,    17.84
      143.0,      17.90,    20.03,    17.24,    16.59,    17.73
      144.0,      17.81,    19.95,    17.18,    16.49,    17.63
      145.0,      17.73,    19.87,    17.12,    16.40,    17.54
      146.0,      17.65,    19.80,    17.06,    16.30,    17.44
      147.0,      17.57,    19.72,    17.00,    16.21,    17.34
      148.0,      17.49,    19.65,    16.94,    16.12,    17.25
      149.0,      17.41,    19.57,    16.88,    16.02,    17.15
      150.0,      17.33,    19.50,    16.83,    15.93,    17.06
      151.0,      17.25,    19.43,    16.77,    15.84,    16.97
      152.0,      17.18,    19.36,    16.72,    15.76,    16.88
      153.0,      17.10,    19.29,    16.66,    15.67,    16.79
      154.0,      17.03,    19.22,    16.61,    15.58,    16.70
      155.0,      16.95,    19.16,    16.56,    15.50,    16.61
      156.0,      16.88,    19.09,    16.50,    15.41,    16.53
      157.0,      16.81,    19.02,    16.45,    15.33,    16.44
      158.0,      16.74,    18.96,    16.40,    15.25,    16.36
      159.0,      16.67,    18.89,    16.35,    15.17,    16.27
      160.0,      16.60,    18.83,    16.31,    15.08,    16.19
      161.0,      16.54,    18.77,    16.26,    15.01,    16.11
      162.0,      16.47,    18.71,    16.21,    14.93,    16.03
      163.0,      16.40,    18.65,    16.16,    14.85,    15.95
      164.0,      16.34,    18.59,    16.12,    14.77,    15.88
      165.0,      16.27,    18.53,    16.07,    14.70,    15.80
      166.0,      16.21,    18.47,    16.03,    14.62,    15.72
      167.0,      16.15,    18.41,    15.99,    14.55,    15.65
      168.0,      16.09,    18.36,    15.94,    14.47,    15.57
      169.0,      16.03,    18.30,    15.90,    14.40,    15.50
      170.0,      15.97,    18.24,    15.86,    14.33,    15.43
      171.0,      15.91,    18.19,    15.82,    14.26,    15.36
      172.0,      15.85,    18.14,    15.77,    14.19,    15.29
      173.0,      15.79,    18.08,    15.73,    14.12,    15.22
      174.0,      15.73,    18.03,    15.69,    14.05,    15.15
      175.0,      15.67,    17.98,    15.66,    13.98,    15.08
      176.0,      15.62,    17.93,    15.62,    13.92,    15.01
      177.0,      15.56,    17.87,    15.58,    13.85,    14.95
      178.0,      15.51,    17.82,    15.54,    13.79,    14.88
      179.0,      15.45,    17.77,    15.50,    13.72,    14.82
      180.0,      15.40,    17.72,    15.47,    13.66,    14.75
      181.0,      15.35,    17.68,    15.43,    13.59,    14.69
      182.0,      15.30,    17.63,    15.39,    13.53,    14.63
      183.0,      15.24,    17.58,    15.36,    13.47,    14.57
      184.0,      15.19,    17.53,    15.32,    13.41,    14.50
      185.0,      15.14,    17.49,    15.29,    13.35,    14.44
      186.0,      15.09,    17.44,    15.26,    13.29,    14.38
      187.0,      15.04,    17.39,    15.22,    13.23,    14.33
      188.0,      14.99,    17.35,    15.19,    13.17,    14.27
      189.0,      14.95,    17.30,    15.16,    13.11,    14.21
      190.0,      14.90,    17.26,    15.12,    13.05,    14.15
      191.0,      14.85,    17.22,    15.09,    13.00,    14.10
      192.0,      14.80,    17.17,    15.06,    12.94,    14.04
      193.0,      14.76,    17.13,    15.03,    12.89,    13.99
      194.0,      14.71,    17.09,    15.00,    12.83,    13.93
      195.0,      14.67,    17.04,    14.97,    12.78,    13.88
      196.0,      14.62,    17.00,    14.94,    12.72,    13.82
      197.0,      14.58,    16.96,    14.91,    12.67,    13.77
      198.0,      14.53,    16.92,    14.88,    12.62,    13.72
      199.0,      14.49,    16.88,    14.85,    12.56,    13.67
      200.0,      14.45,    16.84,    14.82,    12.51,    13.62
      201.0,      14.40,    16.80,    14.79,    12.46,    13.57
      202.0,      14.36,    16.76,    14.76,    12.41,    13.52
      203.0,      14.32,    16.72,    14.73,    12.36,    13.47
      204.0,      14.28,    16.68,    14.71,    12.31,    13.42
      205.0,      14.24,    16.64,    14.68,    12.26,    13.37
      206.0,      14.20,    16.60,    14.65,    12.21,    13.32
      207.0,      14.16,    16.57,    14.62,    12.16,    13.28
      208.0,      14.12,    16.53,    14.60,    12.12,    13.23
      209.0,      14.08,    16.49,    14.57,    12.07,    13.18
      210.0,      14.04,    16.45,    14.55,    12.02,    13.14
      211.0,      14.00,    16.42,    14.52,    11.98,    13.09
      212.0,      13.96,    16.38,    14.49,    11.93,    13.05
      213.0,      13.93,    16.35,    14.47,    11.89,    13.00
      214.0,      13.89,    16.31,    14.44,    11.84,    12.96
      215.0,      13.85,    16.27,    14.42,    11.80,    12.92
      216.0,      13.82,    16.24,    14.39,    11.75,    12.87
      217.0,      13.78,    16.20,    14.37,    11.71,    12.83
      218.0,      13.74,    16.17,    14.35,    11.67,    12.79
      219.0,      13.71,    16.13,    14.32,    11.62,    12.75
      220.0,      13.67,    16.10,    14.30,    11.58,    12.71
      221.0,      13.64,    16.07,    14.28,    11.54,    12.67
      222.0,      13.60,    16.03,    14.25,    11.50,    12.62
      223.0,      13.57,    16.00,    14.23,    11.46,    12.58
      224.0,      13.53,    15.97,    14.21,    11.42,    12.55
      225.0,      13.50,    15.93,    14.18,    11.38,    12.51
      226.0,      13.47,    15.90,    14.16,    11.34,    12.47
      227.0,      13.43,    15.87,    14.14,    11.30,    12.43
      228.0,      13.40,    15.84,    14.12,    11.26,    12.39
      229.0,      13.37,    15.80,    14.10,    11.22,    12.35
      230.0,      13.33,    15.77,    14.07,    11.18,    12.32
      231.0,      13.30,    15.74,    14.05,    11.14,    12.28
      232.0,      13.27,    15.71,    14.03,    11.10,    12.24
      233.0,      13.24,    15.68,    14.01,    11.07,    12.20
      234.0,      13.21,    15.65,    13.99,    11.03,    12.17
      235.0,      13.18,    15.61,    13.97,    10.99,    12.13
      236.0,      13.15,    15.58,    13.95,    10.96,    12.10
      237.0,      13.12,    15.55,    13.93,    10.92,    12.06
      238.0,      13.09,    15.52,    13.91,    10.88,    12.03
      239.0,      13.06,    15.49,    13.89,    10.85,    11.99
      240.0,      13.03,    15.46,    13.87,    10.81,    11.96
      241.0,      13.00,    15.43,    13.85,    10.78,    11.93
      242.0,      12.97,    15.40,    13.83,    10.74,    11.89
      243.0,      12.94,    15.37,    13.81,    10.71,    11.86
      244.0,      12.91,    15.34,    13.79,    10.67,    11.83
      245.0,      12.88,    15.32,    13.77,    10.64,    11.79
      246.0,      12.85,    15.29,    13.75,    10.61,    11.76
      247.0,      12.82,    15.26,    13.73,    10.57,    11.73
      248.0,      12.79,    15.23,    13.71,    10.54,    11.70
      249.0,      12.77,    15.20,    13.69,    10.51,    11.67
      250.0,      12.74,    15.17,    13.67,    10.48,    11.63
      251.0,      12.71,    15.14,    13.65,    10.44,    11.60
      252.0,      12.68,    15.12,    13.63,    10.41,    11.57
      253.0,      12.66,    15.09,    13.62,    10.38,    11.54
      254.0,      12.63,    15.06,    13.60,    10.35,    11.51
      255.0,      12.60,    15.03,    13.58,    10.32,    11.48
      256.0,      12.58,    15.00,    13.56,    10.29,    11.45
      257.0,      12.55,    14.98,    13.54,    10.26,    11.42
      258.0,      12.52,    14.95,    13.53,    10.23,    11.39
      259.0,      12.50,    14.92,    13.51,    10.20,    11.36
      260.0,      12.47,    14.90,    13.49,    10.17,    11.34
      261.0,      12.45,    14.87,    13.47,    10.14,    11.31
      262.0,      12.42,    14.84,    13.46,    10.11,    11.28
      263.0,      12.40,    14.82,    13.44,    10.08,    11.25
      264.0,      12.37,    14.79,    13.42,    10.05,    11.22
      265.0,      12.35,    14.76,    13.40,    10.02,    11.20
      266.0,      12.32,    14.74,    13.39,     9.99,    11.17
      267.0,      12.30,    14.71,    13.37,     9.96,    11.14
      268.0,      12.27,    14.68,    13.35,     9.94,    11.11
      269.0,      12.25,    14.66,    13.34,     9.91,    11.09
      270.0,      12.22,    14.63,    13.32,     9.88,    11.06
      271.0,      12.20,    14.61,    13.30,     9.85,    11.03
      272.0,      12.17,    14.58,    13.29,     9.83,    11.01
      273.0,      12.15,    14.55,    13.27,     9.80,    10.98
      274.0,      12.13,    14.53,    13.25,     9.77,    10.96
      275.0,      12.10,    14.50,    13.24,     9.74,    10.93
      276.0,      12.08,    14.48,    13.22,     9.72,    10.90
      277.0,      12.06,    14.45,    13.20,     9.69,    10.88
      278.0,      12.03,    14.43,    13.19,     9.67,    10.85
      279.0,      12.01,    14.40,    13.17,     9.64,    10.83
      280.0,      11.99,    14.38,    13.16,     9.61,    10.80
      281.0,      11.97,    14.35,    13.14,     9.59,    10.78
      282.0,      11.94,    14.33,    13.12,     9.56,    10.76
      283.0,      11.92,    14.30,    13.11,     9.54,    10.73
      284.0,      11.90,    14.28,    13.09,     9.51,    10.71
      285.0,      11.88,    14.25,    13.08,     9.49,    10.68
      286.0,      11.85,    14.23,    13.06,     9.46,    10.66
      287.0,      11.83,    14.21,    13.05,     9.44,    10.64
      288.0,      11.81,    14.18,    13.03,     9.41,    10.61
      289.0,      11.79,    14.16,    13.02,     9.39,    10.59
      290.0,      11.77,    14.13,    13.00,     9.37,    10.57
      291.0,      11.74,    14.11,    12.99,     9.34,    10.54
      292.0,      11.72,    14.09,    12.97,     9.32,    10.52
      293.0,      11.70,    14.06,    12.95,     9.29,    10.50
      294.0,      11.68,    14.04,    12.94,     9.27,    10.47
      295.0,      11.66,    14.01,    12.92,     9.25,    10.45
      296.0,      11.64,    13.99,    12.91,     9.22,    10.43
      297.0,      11.62,    13.97,    12.89,     9.20,    10.41
      298.0,      11.60,    13.94,    12.88,     9.18,    10.39
      299.0,      11.58,    13.92,    12.87,     9.16,    10.36
      300.0,      11.56,    13.90,    12.85,     9.13,    10.34
      301.0,      11.54,    13.87,    12.84,     9.11,    10.32
      302.0,      11.52,    13.85,    12.82,     9.09,    10.30
      303.0,      11.49,    13.83,    12.81,     9.07,    10.28
      304.0,      11.47,    13.80,    12.79,     9.04,    10.26
      305.0,      11.45,    13.78,    12.78,     9.02,    10.24
      306.0,      11.43,    13.76,    12.76,     9.00,    10.21
      307.0,      11.41,    13.74,    12.75,     8.98,    10.19
      308.0,      11.39,    13.71,    12.73,     8.96,    10.17
      309.0,      11.37,    13.69,    12.72,     8.94,    10.15
      310.0,      11.36,    13.67,    12.71,     8.92,    10.13
