Radius (km), Mean (m/s), NE (m/s), SE (m/s), SW (m/s), NW (m/s)
        0.0,       0.00,     0.00,     0.00,     0.00,     0.00
        1.0,       1.70,     1.51,     1.51,     2.27,     1.51
        2.0,       3.36,     3.15,     3.15,     4.00,     3.15
        3.0,       5.02,     4.83,     4.83,     5.57,     4.83
        4.0,       6.68,     6.56,     6.56,     7.04,     6.56
        5.0,       8.35,     8.31,     8.31,     8.45,     8.31
        6.0,      10.01,    10.08,    10.08,     9.80,    10.08
        7.0,      11.68,    11.87,    11.87,    11.12,    11.87
        8.0,      13.36,    13.68,    13.68,    12.40,    13.68
        9.0,      15.04,    15.50,    15.50,    13.65,    15.50
       10.0,      16.72,    17.33,    17.33,    14.87,    17.33
       11.0,      18.40,    19.18,    19.18,    16.07,    19.18
       12.0,      20.09,    21.04,    21.03,    17.26,    21.03
       13.0,      21.82,    22.98,    22.92,    18.42,    22.94
       14.0,      23.63,    25.08,    24.90,    19.58,    24.97
       15.0,      25.63,    27.44,    27.07,    20.78,    27.23
       16.0,      27.87,    30.11,    29.52,    22.05,    29.79
       17.0,      30.37,    33.10,    32.27,    23.44,    32.67
       18.0,      33.11,    36.33,    35.32,    24.96,    35.84
       19.0,      35.99,    39.68,    38.55,    26.59,    39.16
       20.0,      38.88,    42.95,    41.80,    28.28,    42.48
       21.0,      41.59,    45.95,    44.89,    29.93,    45.57
       22.0,      43.96,    48.51,    47.62,    31.45,    48.25
       23.0,      45.85,    50.48,    49.81,    32.74,    50.35
       24.0,      47.16,    51.78,    51.35,    33.73,    51.77
       25.0,      47.85,    52.40,    52.18,    34.35,    52.48
       26.0,      47.96,    52.40,    52.33,    34.60,    52.51
       27.0,      47.56,    51.89,    51.89,    34.50,    51.96
       28.0,      46.77,    51.00,    50.99,    34.11,    50.97
       29.0,      45.72,    49.88,    49.77,    33.51,    49.71
       30.0,      44.54,    48.67,    48.41,    32.78,    48.32
       31.0,      43.34,    47.47,    47.00,    31.99,    46.91
       32.0,      42.18,    46.31,    45.65,    31.21,    45.56
       33.0,      41.09,    45.23,    44.38,    30.47,    44.29
       34.0,      40.07,    44.21,    43.19,    29.78,    43.10
       35.0,      39.11,    43.23,    42.07,    29.15,    41.97
       36.0,      38.18,    42.29,    41.00,    28.54,    40.89
       37.0,      37.29,    41.39,    39.96,    27.96,    39.84
       38.0,      36.43,    40.52,    38.97,    27.40,    38.84
       39.0,      35.61,    39.68,    38.01,    26.86,    37.87
       40.0,      34.81,    38.87,    37.09,    26.34,    36.94
       41.0,      34.05,    38.10,    36.21,    25.84,    36.05
       42.0,      33.31,    37.35,    35.35,    25.36,    35.19
       43.0,      32.61,    36.63,    34.53,    24.89,    34.36
       44.0,      31.92,    35.94,    33.75,    24.44,    33.57
       45.0,      31.27,    35.28,    32.99,    24.01,    32.80
       46.0,      30.64,    34.63,    32.26,    23.59,    32.07
       47.0,      30.03,    34.02,    31.55,    23.19,    31.36
       48.0,      29.44,    33.42,    30.88,    22.80,    30.68
       49.0,      28.88,    32.85,    30.23,    22.42,    30.03
       50.0,      28.34,    32.30,    29.60,    22.06,    29.40
       51.0,      27.82,    31.77,    29.00,    21.70,    28.79
       52.0,      27.31,    31.26,    28.42,    21.37,    28.21
       53.0,      26.83,    30.77,    27.86,    21.04,    27.65
       54.0,      26.36,    30.30,    27.32,    20.72,    27.11
       55.0,      25.91,    29.84,    26.81,    20.42,    26.59
       56.0,      25.48,    29.40,    26.31,    20.12,    26.09
       57.0,      25.06,    28.98,    25.83,    19.83,    25.60
       58.0,      24.66,    28.57,    25.37,    19.56,    25.14
       59.0,      24.27,    28.18,    24.92,    19.29,    24.70
       60.0,      23.90,    27.80,    24.49,    19.03,    24.27
       61.0,      23.54,    27.43,    24.08,    18.78,    23.85
       62.0,      23.19,    27.08,    23.68,    18.54,    23.45
       63.0,      22.85,    26.74,    23.30,    18.31,    23.07
       64.0,      22.53,    26.41,    22.93,    18.08,    22.70
       65.0,      22.22,    26.10,    22.57,    17.86,    22.35
       66.0,      21.92,    25.79,    22.23,    17.65,    22.00
       67.0,      21.63,    25.50,    21.90,    17.44,    21.68
       68.0,      21.35,    25.22,    21.58,    17.24,    21.36
       69.0,      21.08,    24.94,    21.27,    17.05,    21.05
       70.0,      20.82,    24.68,    20.98,    16.86,    20.76
       71.0,      20.57,    24.43,    20.69,    16.68,    20.47
       72.0,      20.33,    24.18,    20.42,    16.51,    20.20
       73.0,      20.09,    23.94,    20.15,    16.33,    19.94
       74.0,      19.86,    23.71,    19.90,    16.17,    19.68
       75.0,      19.65,    23.49,    19.65,    16.01,    19.44
       76.0,      19.44,    23.28,    19.41,    15.85,    19.20
       77.0,      19.23,    23.07,    19.18,    15.70,    18.97
       78.0,      19.03,    22.87,    18.96,    15.55,    18.75
       79.0,      18.84,    22.68,    18.74,    15.41,    18.54
       80.0,      18.66,    22.49,    18.54,    15.27,    18.34
       81.0,      18.48,    22.31,    18.34,    15.14,    18.14
       82.0,      18.31,    22.14,    18.14,    15.00,    17.95
       83.0,      18.14,    21.97,    17.96,    14.88,    17.76
       84.0,      17.98,    21.81,    17.78,    14.75,    17.59
       85.0,      17.82,    21.65,    17.60,    14.63,    17.42
       86.0,      17.67,    21.50,    17.43,    14.51,    17.25
       87.0,      17.53,    21.35,    17.27,    14.40,    17.09
       88.0,      17.39,    21.20,    17.11,    14.29,    16.94
       89.0,      17.25,    21.07,    16.96,    14.18,    16.79
       90.0,      17.11,    20.93,    16.81,    14.07,    16.64
       91.0,      16.99,    20.80,    16.67,    13.97,    16.51
       92.0,      16.86,    20.67,    16.53,    13.86,    16.37
       93.0,      16.74,    20.55,    16.40,    13.77,    16.24
       94.0,      16.62,    20.43,    16.27,    13.67,    16.12
       95.0,      16.51,    20.32,    16.15,    13.57,    15.99
       96.0,      16.40,    20.21,    16.03,    13.48,    15.88
       97.0,      16.29,    20.10,    15.91,    13.39,    15.76
       98.0,      16.19,    19.99,    15.79,    13.31,    15.65
       99.0,      16.08,    19.89,    15.68,    13.22,    15.55
      100.0,      15.99,    19.79,    15.58,    13.14,    15.44
      101.0,      15.89,    19.69,    15.47,    13.05,    15.34
      102.0,      15.80,    19.60,    15.37,    12.97,    15.25
      103.0,      15.71,    19.51,    15.28,    12.89,    15.15
      104.0,      15.62,    19.42,    15.18,    12.82,    15.06
      105.0,      15.53,    19.33,    15.09,    12.74,    14.97
      106.0,      15.45,    19.25,    15.00,    12.67,    14.89
      107.0,      15.37,    19.17,    14.91,    12.59,    14.81
      108.0,      15.29,    19.09,    14.83,    12.52,    14.73
      109.0,      15.21,    19.01,    14.75,    12.45,    14.65
      110.0,      15.14,    18.93,    14.67,    12.38,    14.57
      111.0,      15.07,    18.86,    14.59,    12.32,    14.50
      112.0,      14.99,    18.79,    14.51,    12.25,    14.43
      113.0,      14.92,    18.71,    14.44,    12.19,    14.36
      114.0,      14.86,    18.65,    14.37,    12.12,    14.29
      115.0,      14.79,    18.58,    14.30,    12.06,    14.23
      116.0,      14.73,    18.51,    14.23,    12.00,    14.16
      117.0,      14.66,    18.45,    14.16,    11.94,    14.10
      118.0,      14.60,    18.39,    14.10,    11.88,    14.04
      119.0,      14.54,    18.32,    14.04,    11.82,    13.98
      120.0,      14.48,    18.27,    13.98,    11.76,    13.92
      121.0,      14.42,    18.21,    13.92,    11.70,    13.87
      122.0,      14.37,    18.15,    13.86,    11.65,    13.81
      123.0,      14.31,    18.09,    13.80,    11.59,    13.76
      124.0,      14.26,    18.04,    13.74,    11.54,    13.71
      125.0,      14.20,    17.98,    13.69,    11.48,    13.66
      126.0,      14.15,    17.93,    13.64,    11.43,    13.61
      127.0,      14.10,    17.88,    13.58,    11.38,    13.56
      128.0,      14.05,    17.83,    13.53,    11.33,    13.51
      129.0,      14.00,    17.78,    13.48,    11.27,    13.47
      130.0,      13.95,    17.73,    13.43,    11.22,    13.42
      131.0,      13.91,    17.68,    13.39,    11.17,    13.38
      132.0,      13.86,    17.63,    13.34,    11.13,    13.34
      133.0,      13.81,    17.59,    13.29,    11.08,    13.30
      134.0,      13.77,    17.54,    13.25,    11.03,    13.26
      135.0,      13.72,    17.50,    13.20,    10.98,    13.21
      136.0,      13.68,    17.45,    13.16,    10.94,    13.18
      137.0,      13.64,    17.41,    13.12,    10.89,    13.14
      138.0,      13.60,    17.36,    13.08,    10.84,    13.10
      139.0,      13.55,    17.32,    13.03,    10.80,    13.06
      140.0,      13.51,    17.28,    12.99,    10.75,    13.03
      141.0,      13.47,    17.24,    12.95,    10.71,    12.99
      142.0,      13.43,    17.20,    12.91,    10.66,    12.96
      143.0,      13.39,    17.16,    12.88,    10.62,    12.92
      144.0,      13.36,    17.12,    12.84,    10.58,    12.89
      145.0,      13.32,    17.08,    12.80,    10.54,    12.86
      146.0,      13.28,    17.04,    12.76,    10.49,    12.82
      147.0,      13.24,    17.00,    12.73,    10.45,    12.79
      148.0,      13.21,    16.97,    12.69,    10.41,    12.76
      149.0,      13.17,    16.93,    12.66,    10.37,    12.73
      150.0,      13.14,    16.89,    12.62,    10.33,    12.70
      151.0,      13.10,    16.86,    12.59,    10.29,    12.67
      152.0,      13.07,    16.82,    12.55,    10.25,    12.64
      153.0,      13.03,    16.79,    12.52,    10.21,    12.61
      154.0,      13.00,    16.75,    12.49,    10.17,    12.58
      155.0,      12.96,    16.72,    12.46,    10.13,    12.55
      156.0,      12.93,    16.68,    12.42,    10.09,    12.52
      157.0,      12.90,    16.65,    12.39,    10.05,    12.50
      158.0,      12.86,    16.61,    12.36,    10.01,    12.47
      159.0,      12.83,    16.58,    12.33,     9.98,    12.44
      160.0,      12.80,    16.55,    12.30,     9.94,    12.42
      161.0,      12.77,    16.52,    12.27,     9.90,    12.39
      162.0,      12.74,    16.48,    12.24,     9.86,    12.36
      163.0,      12.71,    16.45,    12.21,     9.83,    12.34
      164.0,      12.68,    16.42,    12.18,     9.79,    12.31
      165.0,      12.65,    16.39,    12.15,     9.75,    12.29
      166.0,      12.62,    16.36,    12.12,     9.72,    12.26
      167.0,      12.59,    16.32,    12.09,     9.68,    12.24
      168.0,      12.56,    16.29,    12.07,     9.65,    12.22
      169.0,      12.53,    16.26,    12.04,     9.61,    12.19
      170.0,      12.50,    16.23,    12.01,     9.58,    12.17
      171.0,      12.47,    16.20,    11.98,     9.54,    12.14
      172.0,      12.44,    16.17,    11.96,     9.51,    12.12
      173.0,      12.41,    16.14,    11.93,     9.47,    12.10
      174.0,      12.38,    16.11,    11.90,     9.44,    12.07
      175.0,      12.35,    16.08,    11.88,     9.40,    12.05
      176.0,      12.33,    16.05,    11.85,     9.37,    12.03
      177.0,      12.30,    16.02,    11.82,     9.33,    12.01
      178.0,      12.27,    16.00,    11.80,     9.30,    11.98
      179.0,      12.24,    15.97,    11.77,     9.27,    11.96
      180.0,      12.21,    15.94,    11.75,     9.23,    11.94
      181.0,      12.19,    15.91,    11.72,     9.20,    11.92
      182.0,      12.16,    15.88,    11.69,     9.17,    11.90
      183.0,      12.13,    15.85,    11.67,     9.13,    11.88
      184.0,      12.11,    15.83,    11.64,     9.10,    11.86
      185.0,      12.08,    15.80,    11.62,     9.07,    11.83
      186.0,      12.05,    15.77,    11.60,     9.04,    11.81
      187.0,      12.03,    15.74,    11.57,     9.01,    11.79
      188.0,      12.00,    15.71,    11.55,     8.97,    11.77
      189.0,      11.98,    15.69,    11.52,     8.94,    11.75
      190.0,      11.95,    15.66,    11.50,     8.91,    11.73
      191.0,      11.92,    15.63,    11.47,     8.88,    11.71
      192.0,      11.90,    15.61,    11.45,     8.85,    11.69
      193.0,      11.87,    15.58,    11.43,     8.82,    11.67
      194.0,      11.85,    15.55,    11.40,     8.78,    11.65
      195.0,      11.82,    15.52,    11.38,     8.75,    11.63
      196.0,      11.80,    15.50,    11.36,     8.72,    11.61
      197.0,      11.77,    15.47,    11.33,     8.69,    11.59
      198.0,      11.75,    15.45,    11.31,     8.66,    11.57
      199.0,      11.72,    15.42,    11.29,     8.63,    11.55
      200.0,      11.70,    15.39,    11.26,     8.60,    11.53
      201.0,      11.67,    15.37,    11.24,     8.57,    11.51
      202.0,      11.65,    15.34,    11.22,     8.54,    11.49
      203.0,      11.62,    15.31,    11.19,     8.51,    11.48
      204.0,      11.60,    15.29,    11.17,     8.48,    11.46
      205.0,      11.58,    15.26,    11.15,     8.45,    11.44
      206.0,      11.55,    15.24,    11.13,     8.42,    11.42
      207.0,      11.53,    15.21,    11.10,     8.39,    11.40
      208.0,      11.50,    15.19,    11.08,     8.36,    11.38
      209.0,      11.48,    15.16,    11.06,     8.33,    11.36
      210.0,      11.46,    15.13,    11.04,     8.31,    11.34
      211.0,      11.43,    15.11,    11.02,     8.28,    11.32
      212.0,      11.41,    15.08,    10.99,     8.25,    11.31
      213.0,      11.38,    15.06,    10.97,     8.22,    11.29
      214.0,      11.36,    15.03,    10.95,     8.19,    11.27
      215.0,      11.34,    15.01,    10.93,     8.16,    11.25
      216.0,      11.31,    14.98,    10.91,     8.13,    11.23
      217.0,      11.29,    14.96,    10.89,     8.11,    11.21
      218.0,      11.27,    14.93,    10.86,     8.08,    11.20
      219.0,      11.24,    14.91,    10.84,     8.05,    11.18
      220.0,      11.22,    14.88,    10.82,     8.02,    11.16
      221.0,      11.20,    14.86,    10.80,     7.99,    11.14
      222.0,      11.18,    14.83,    10.78,     7.97,    11.12
      223.0,      11.15,    14.81,    10.76,     7.94,    11.11
      224.0,      11.13,    14.79,    10.74,     7.91,    11.09
      225.0,      11.11,    14.76,    10.71,     7.88,    11.07
      226.0,      11.09,    14.74,    10.69,     7.86,    11.05
      227.0,      11.06,    14.71,    10.67,     7.83,    11.04
      228.0,      11.04,    14.69,    10.65,     7.80,    11.02
      229.0,      11.02,    14.66,    10.63,     7.78,    11.00
      230.0,      11.00,    14.64,    10.61,     7.75,    10.98
      231.0,      10.97,    14.62,    10.59,     7.72,    10.97
      232.0,      10.95,    14.59,    10.57,     7.70,    10.95
      233.0,      10.93,    14.57,    10.55,     7.67,    10.93
      234.0,      10.91,    14.54,    10.53,     7.64,    10.91
      235.0,      10.88,    14.52,    10.51,     7.62,    10.90
      236.0,      10.86,    14.50,    10.49,     7.59,    10.88
      237.0,      10.84,    14.47,    10.47,     7.56,    10.86
      238.0,      10.82,    14.45,    10.45,     7.54,    10.84
      239.0,      10.80,    14.42,    10.43,     7.51,    10.83
      240.0,      10.78,    14.40,    10.41,     7.49,    10.81
      241.0,      10.75,    14.38,    10.39,     7.46,    10.79
      242.0,      10.73,    14.35,    10.37,     7.43,    10.78
      243.0,      10.71,    14.33,    10.35,     7.41,    10.76
      244.0,      10.69,    14.31,    10.33,     7.38,    10.74
      245.0,      10.67,    14.28,    10.31,     7.36,    10.73
      246.0,      10.65,    14.26,    10.29,     7.33,    10.71
      247.0,      10.63,    14.24,    10.27,     7.31,    10.69
      248.0,      10.60,    14.21,    10.25,     7.28,    10.67
      249.0,      10.58,    14.19,    10.23,     7.26,    10.66
      250.0,      10.56,    14.17,    10.21,     7.23,    10.64
      251.0,      10.54,    14.14,    10.19,     7.21,    10.62
      252.0,      10.52,    14.12,    10.17,     7.18,    10.61
      253.0,      10.50,    14.10,    10.15,     7.16,    10.59
      254.0,      10.48,    14.07,    10.13,     7.13,    10.57
      255.0,      10.46,    14.05,    10.11,     7.11,    10.56
      256.0,      10.44,    14.03,    10.09,     7.08,    10.54
      257.0,      10.42,    14.01,    10.07,     7.06,    10.53
      258.0,      10.39,    13.98,    10.05,     7.04,    10.51
      259.0,      10.37,    13.96,    10.03,     7.01,    10.49
      260.0,      10.35,    13.94,    10.01,     6.99,    10.48
      261.0,      10.33,    13.91,     9.99,     6.96,    10.46
      262.0,      10.31,    13.89,     9.97,     6.94,    10.44
      263.0,      10.29,    13.87,     9.95,     6.92,    10.43
      264.0,      10.27,    13.85,     9.93,     6.89,    10.41
      265.0,      10.25,    13.82,     9.92,     6.87,    10.39
      266.0,      10.23,    13.80,     9.90,     6.85,    10.38
      267.0,      10.21,    13.78,     9.88,     6.82,    10.36
      268.0,      10.19,    13.76,     9.86,     6.80,    10.35
      269.0,      10.17,    13.73,     9.84,     6.77,    10.33
      270.0,      10.15,    13.71,     9.82,     6.75,    10.31
      271.0,      10.13,    13.69,     9.80,     6.73,    10.30
      272.0,      10.11,    13.67,     9.78,     6.71,    10.28
      273.0,      10.09,    13.65,     9.76,     6.68,    10.26
      274.0,      10.07,    13.62,     9.74,     6.66,    10.25
      275.0,      10.05,    13.60,     9.73,     6.64,    10.23
      276.0,      10.03,    13.58,     9.71,     6.61,    10.22
      277.0,      10.01,    13.56,     9.69,     6.59,    10.20
      278.0,       9.99,    13.53,     9.67,     6.57,    10.19
      279.0,       9.97,    13.51,     9.65,     6.55,    10.17
      280.0,       9.95,    13.49,     9.63,     6.52,    10.15
      281.0,       9.93,    13.47,     9.61,     6.50,    10.14
      282.0,       9.91,    13.45,     9.60,     6.48,    10.12
      283.0,       9.89,    13.42,     9.58,     6.46,    10.11
      284.0,       9.87,    13.40,     9.56,     6.43,    10.09
      285.0,       9.85,    13.38,     9.54,     6.41,    10.07
      286.0,       9.83,    13.36,     9.52,     6.39,    10.06
      287.0,       9.81,    13.34,     9.50,     6.37,    10.04
      288.0,       9.79,    13.32,     9.49,     6.35,    10.03
      289.0,       9.77,    13.29,     9.47,     6.33,    10.01
      290.0,       9.76,    13.27,     9.45,     6.30,    10.00
      291.0,       9.74,    13.25,     9.43,     6.28,     9.98
      292.0,       9.72,    13.23,     9.41,     6.26,     9.97
      293.0,       9.70,    13.21,     9.40,     6.24,     9.95
      294.0,       9.68,    13.19,     9.38,     6.22,     9.93
      295.0,       9.66,    13.17,     9.36,     6.20,     9.92
      296.0,       9.64,    13.14,     9.34,     6.18,     9.90
      297.0,       9.62,    13.12,     9.32,     6.15,     9.89
      298.0,       9.60,    13.10,     9.31,     6.13,     9.87
      299.0,       9.58,    13.08,     9.29,     6.11,     9.86
      300.0,       9.57,    13.06,     9.27,     6.09,     9.84
      301.0,       9.55,    13.04,     9.25,     6.07,     9.83
      302.0,       9.53,    13.02,     9.23,     6.05,     9.81
      303.0,       9.51,    13.00,     9.22,     6.03,     9.80
      304.0,       9.49,    12.97,     9.20,     6.01,     9.78
      305.0,       9.47,    12.95,     9.18,     5.99,     9.77
      306.0,       9.45,    12.93,     9.16,     5.97,     9.75
      307.0,       9.43,    12.91,     9.15,     5.95,     9.74
      308.0,       9.42,    12.89,     9.13,     5.93,     9.72
      309.0,       9.40,    12.87,     9.11,     5.91,     9.70
      310.0,       9.38,    12.85,     9.09,     5.89,     9.69
