Radius (km), Mean (m/s), NE (m/s), SE (m/s), SW (m/s), NW (m/s)
        0.0,       0.00,     0.00,     0.00,     0.00,     0.00
        1.0,       3.44,     3.41,     3.44,     3.47,     3.44
        2.0,       5.69,     5.73,     5.69,     5.66,     5.70
        3.0,       7.68,     7.83,     7.65,     7.55,     7.70
        4.0,       9.59,     9.87,     9.52,     9.33,     9.63
        5.0,      11.51,    11.96,    11.38,    11.11,    11.58
        6.0,      13.50,    14.13,    13.32,    12.96,    13.60
        7.0,      15.58,    16.39,    15.35,    14.90,    15.70
        8.0,      17.73,    18.68,    17.46,    16.92,    17.85
        9.0,      19.88,    20.95,    19.61,    18.98,    20.00
       10.0,      21.96,    23.11,    21.70,    20.98,    22.04
       11.0,      23.86,    25.06,    23.64,    22.84,    23.91
       12.0,      25.52,    26.72,    25.35,    24.47,    25.52
       13.0,      26.85,    28.05,    26.75,    25.79,    26.81
       14.0,      27.83,    29.02,    27.79,    26.75,    27.76
       15.0,      28.46,    29.65,    28.46,    27.35,    28.37
       16.0,      28.76,    29.97,    28.79,    27.60,    28.67
       17.0,      28.79,    30.04,    28.82,    27.56,    28.72
       18.0,      28.61,    29.94,    28.63,    27.30,    28.59
       19.0,      28.31,    29.73,    28.29,    26.88,    28.33
       20.0,      27.94,    29.46,    27.86,    26.39,    28.03
       21.0,      27.55,    29.19,    27.42,    25.87,    27.70
       22.0,      27.16,    28.92,    26.98,    25.37,    27.38
       23.0,      26.80,    28.66,    26.57,    24.90,    27.08
       24.0,      26.46,    28.42,    26.18,    24.45,    26.78
       25.0,      26.13,    28.17,    25.81,    24.03,    26.50
       26.0,      25.80,    27.93,    25.45,    23.62,    26.21
       27.0,      25.49,    27.70,    25.11,    23.22,    25.94
       28.0,      25.19,    27.47,    24.78,    22.84,    25.67
       29.0,      24.89,    27.24,    24.46,    22.48,    25.40
       30.0,      24.61,    27.02,    24.15,    22.12,    25.14
       31.0,      24.33,    26.80,    23.85,    21.78,    24.89
       32.0,      24.06,    26.59,    23.57,    21.46,    24.64
       33.0,      23.80,    26.38,    23.29,    21.14,    24.39
       34.0,      23.55,    26.18,    23.02,    20.84,    24.15
       35.0,      23.30,    25.97,    22.76,    20.55,    23.92
       36.0,      23.06,    25.78,    22.51,    20.26,    23.68
       37.0,      22.83,    25.58,    22.27,    19.99,    23.46
       38.0,      22.60,    25.39,    22.04,    19.73,    23.24
       39.0,      22.38,    25.21,    21.82,    19.48,    23.02
       40.0,      22.17,    25.02,    21.60,    19.23,    22.81
       41.0,      21.96,    24.84,    21.39,    19.00,    22.60
       42.0,      21.75,    24.67,    21.19,    18.77,    22.39
       43.0,      21.56,    24.49,    20.99,    18.55,    22.19
       44.0,      21.37,    24.32,    20.80,    18.34,    21.99
       45.0,      21.18,    24.16,    20.62,    18.14,    21.80
       46.0,      21.00,    23.99,    20.44,    17.94,    21.61
       47.0,      20.82,    23.83,    20.27,    17.75,    21.43
       48.0,      20.65,    23.67,    20.10,    17.57,    21.24
       49.0,      20.48,    23.52,    19.94,    17.40,    21.07
       50.0,      20.32,    23.37,    19.78,    17.22,    20.89
       51.0,      20.16,    23.22,    19.63,    17.06,    20.72
       52.0,      20.00,    23.07,    19.49,    16.90,    20.55
       53.0,      19.85,    22.92,    19.34,    16.75,    20.39
       54.0,      19.70,    22.78,    19.21,    16.60,    20.22
       55.0,      19.56,    22.64,    19.07,    16.46,    20.06
       56.0,      19.42,    22.51,    18.95,    16.32,    19.91
       57.0,      19.28,    22.37,    18.82,    16.18,    19.76
       58.0,      19.15,    22.24,    18.70,    16.05,    19.61
       59.0,      19.02,    22.11,    18.58,    15.93,    19.46
       60.0,      18.89,    21.99,    18.47,    15.81,    19.31
       61.0,      18.77,    21.86,    18.35,    15.69,    19.17
       62.0,      18.65,    21.74,    18.25,    15.58,    19.03
       63.0,      18.53,    21.62,    18.14,    15.47,    18.90
       64.0,      18.42,    21.50,    18.04,    15.36,    18.76
       65.0,      18.30,    21.38,    17.94,    15.26,    18.63
       66.0,      18.19,    21.27,    17.84,    15.16,    18.50
       67.0,      18.09,    21.16,    17.75,    15.06,    18.38
       68.0,      17.98,    21.05,    17.66,    14.97,    18.25
       69.0,      17.88,    20.94,    17.57,    14.87,    18.13
       70.0,      17.78,    20.83,    17.48,    14.79,    18.01
       71.0,      17.68,    20.73,    17.40,    14.70,    17.90
       72.0,      17.59,    20.63,    17.32,    14.62,    17.78
       73.0,      17.49,    20.53,    17.24,    14.54,    17.67
       74.0,      17.40,    20.43,    17.16,    14.46,    17.56
       75.0,      17.31,    20.33,    17.08,    14.38,    17.45
       76.0,      17.22,    20.23,    17.01,    14.31,    17.34
       77.0,      17.14,    20.14,    16.93,    14.24,    17.24
       78.0,      17.05,    20.05,    16.86,    14.17,    17.14
       79.0,      16.97,    19.96,    16.79,    14.10,    17.04
       80.0,      16.89,    19.87,    16.73,    14.03,    16.94
       81.0,      16.81,    19.78,    16.66,    13.97,    16.84
       82.0,      16.73,    19.69,    16.59,    13.91,    16.74
       83.0,      16.66,    19.61,    16.53,    13.85,    16.65
       84.0,      16.58,    19.52,    16.47,    13.79,    16.56
       85.0,      16.51,    19.44,    16.41,    13.73,    16.47
       86.0,      16.44,    19.36,    16.35,    13.67,    16.38
       87.0,      16.37,    19.28,    16.29,    13.62,    16.29
       88.0,      16.30,    19.20,    16.23,    13.56,    16.21
       89.0,      16.23,    19.13,    16.18,    13.51,    16.12
       90.0,      16.17,    19.05,    16.12,    13.46,    16.04
       91.0,      16.10,    18.98,    16.07,    13.41,    15.96
       92.0,      16.04,    18.90,    16.02,    13.36,    15.88
       93.0,      15.98,    18.83,    15.96,    13.32,    15.80
       94.0,      15.92,    18.76,    15.91,    13.27,    15.73
       95.0,      15.86,    18.69,    15.86,    13.22,    15.65
       96.0,      15.80,    18.62,    15.81,    13.18,    15.58
       97.0,      15.74,    18.55,    15.76,    13.14,    15.50
       98.0,      15.68,    18.49,    15.72,    13.09,    15.43
       99.0,      15.63,    18.42,    15.67,    13.05,    15.36
      100.0,      15.57,    18.36,    15.62,    13.01,    15.29
      101.0,      15.52,    18.29,    15.58,    12.97,    15.22
      102.0,      15.46,    18.23,    15.53,    12.93,    15.16
      103.0,      15.41,    18.17,    15.49,    12.89,    15.09
      104.0,      15.36,    18.11,    15.45,    12.86,    15.03
      105.0,      15.31,    18.05,    15.40,    12.82,    14.96
      106.0,      15.26,    17.99,    15.36,    12.78,    14.90
      107.0,      15.21,    17.93,    15.32,    12.75,    14.84
      108.0,      15.16,    17.88,    15.28,    12.71,    14.78
      109.0,      15.11,    17.82,    15.24,    12.68,    14.72
      110.0,      15.07,    17.77,    15.20,    12.64,    14.66
      111.0,      15.02,    17.71,    15.16,    12.61,    14.61
      112.0,      14.98,    17.66,    15.12,    12.58,    14.55
      113.0,      14.93,    17.60,    15.08,    12.55,    14.49
      114.0,      14.89,    17.55,    15.04,    12.51,    14.44
      115.0,      14.84,    17.50,    15.00,    12.48,    14.39
      116.0,      14.80,    17.45,    14.97,    12.45,    14.33
      117.0,      14.76,    17.40,    14.93,    12.42,    14.28
      118.0,      14.72,    17.35,    14.89,    12.39,    14.23
      119.0,      14.68,    17.30,    14.86,    12.36,    14.18
      120.0,      14.63,    17.25,    14.82,    12.33,    14.13
      121.0,      14.59,    17.21,    14.79,    12.30,    14.08
      122.0,      14.56,    17.16,    14.75,    12.28,    14.03
      123.0,      14.52,    17.12,    14.72,    12.25,    13.99
      124.0,      14.48,    17.07,    14.68,    12.22,    13.94
      125.0,      14.44,    17.03,    14.65,    12.19,    13.90
      126.0,      14.40,    16.98,    14.61,    12.17,    13.85
      127.0,      14.37,    16.94,    14.58,    12.14,    13.81
      128.0,      14.33,    16.89,    14.55,    12.11,    13.76
      129.0,      14.29,    16.85,    14.51,    12.09,    13.72
      130.0,      14.26,    16.81,    14.48,    12.06,    13.68
      131.0,      14.22,    16.77,    14.45,    12.04,    13.64
      132.0,      14.19,    16.73,    14.41,    12.01,    13.59
      133.0,      14.15,    16.69,    14.38,    11.99,    13.55
      134.0,      14.12,    16.65,    14.35,    11.96,    13.51
      135.0,      14.09,    16.61,    14.32,    11.94,    13.47
      136.0,      14.05,    16.57,    14.29,    11.91,    13.44
      137.0,      14.02,    16.53,    14.26,    11.89,    13.40
      138.0,      13.99,    16.50,    14.23,    11.86,    13.36
      139.0,      13.95,    16.46,    14.19,    11.84,    13.32
      140.0,      13.92,    16.42,    14.16,    11.82,    13.29
      141.0,      13.89,    16.39,    14.13,    11.79,    13.25
      142.0,      13.86,    16.35,    14.10,    11.77,    13.22
      143.0,      13.83,    16.32,    14.07,    11.75,    13.18
      144.0,      13.80,    16.28,    14.04,    11.73,    13.15
      145.0,      13.77,    16.25,    14.01,    11.70,    13.11
      146.0,      13.74,    16.21,    13.98,    11.68,    13.08
      147.0,      13.71,    16.18,    13.95,    11.66,    13.05
      148.0,      13.68,    16.14,    13.93,    11.64,    13.01
      149.0,      13.65,    16.11,    13.90,    11.61,    12.98
      150.0,      13.62,    16.08,    13.87,    11.59,    12.95
      151.0,      13.59,    16.05,    13.84,    11.57,    12.92
      152.0,      13.57,    16.02,    13.81,    11.55,    12.89
      153.0,      13.54,    15.98,    13.78,    11.53,    12.86
      154.0,      13.51,    15.95,    13.75,    11.51,    12.83
      155.0,      13.48,    15.92,    13.72,    11.49,    12.80
      156.0,      13.45,    15.89,    13.70,    11.46,    12.77
      157.0,      13.43,    15.86,    13.67,    11.44,    12.74
      158.0,      13.40,    15.83,    13.64,    11.42,    12.71
      159.0,      13.37,    15.80,    13.61,    11.40,    12.68
      160.0,      13.35,    15.77,    13.58,    11.38,    12.65
      161.0,      13.32,    15.74,    13.56,    11.36,    12.63
      162.0,      13.30,    15.71,    13.53,    11.34,    12.60
      163.0,      13.27,    15.69,    13.50,    11.32,    12.57
      164.0,      13.24,    15.66,    13.47,    11.30,    12.55
      165.0,      13.22,    15.63,    13.45,    11.28,    12.52
      166.0,      13.19,    15.60,    13.42,    11.26,    12.49
      167.0,      13.17,    15.58,    13.39,    11.24,    12.47
      168.0,      13.14,    15.55,    13.37,    11.22,    12.44
      169.0,      13.12,    15.52,    13.34,    11.20,    12.42
      170.0,      13.10,    15.50,    13.31,    11.18,    12.39
      171.0,      13.07,    15.47,    13.29,    11.16,    12.37
      172.0,      13.05,    15.44,    13.26,    11.14,    12.34
      173.0,      13.02,    15.42,    13.23,    11.12,    12.32
      174.0,      13.00,    15.39,    13.21,    11.10,    12.30
      175.0,      12.98,    15.37,    13.18,    11.08,    12.27
      176.0,      12.95,    15.34,    13.15,    11.06,    12.25
      177.0,      12.93,    15.32,    13.13,    11.04,    12.23
      178.0,      12.91,    15.29,    13.10,    11.03,    12.21
      179.0,      12.88,    15.27,    13.08,    11.01,    12.18
      180.0,      12.86,    15.24,    13.05,    10.99,    12.16
      181.0,      12.84,    15.22,    13.02,    10.97,    12.14
      182.0,      12.82,    15.20,    13.00,    10.95,    12.12
      183.0,      12.79,    15.17,    12.97,    10.93,    12.10
      184.0,      12.77,    15.15,    12.95,    10.91,    12.07
      185.0,      12.75,    15.13,    12.92,    10.89,    12.05
      186.0,      12.73,    15.10,    12.90,    10.88,    12.03
      187.0,      12.71,    15.08,    12.87,    10.86,    12.01
      188.0,      12.68,    15.06,    12.85,    10.84,    11.99
      189.0,      12.66,    15.04,    12.82,    10.82,    11.97
      190.0,      12.64,    15.01,    12.79,    10.80,    11.95
      191.0,      12.62,    14.99,    12.77,    10.78,    11.93
      192.0,      12.60,    14.97,    12.74,    10.76,    11.91
      193.0,      12.58,    14.95,    12.72,    10.75,    11.89
      194.0,      12.56,    14.93,    12.69,    10.73,    11.87
      195.0,      12.53,    14.91,    12.67,    10.71,    11.85
      196.0,      12.51,    14.88,    12.64,    10.69,    11.83
      197.0,      12.49,    14.86,    12.62,    10.67,    11.82
      198.0,      12.47,    14.84,    12.60,    10.66,    11.80
      199.0,      12.45,    14.82,    12.57,    10.64,    11.78
      200.0,      12.43,    14.80,    12.55,    10.62,    11.76
      201.0,      12.41,    14.78,    12.52,    10.60,    11.74
      202.0,      12.39,    14.76,    12.50,    10.58,    11.72
      203.0,      12.37,    14.74,    12.47,    10.57,    11.71
      204.0,      12.35,    14.72,    12.45,    10.55,    11.69
      205.0,      12.33,    14.70,    12.42,    10.53,    11.67
      206.0,      12.31,    14.68,    12.40,    10.51,    11.65
      207.0,      12.29,    14.66,    12.38,    10.50,    11.64
      208.0,      12.27,    14.64,    12.35,    10.48,    11.62
      209.0,      12.25,    14.62,    12.33,    10.46,    11.60
      210.0,      12.23,    14.60,    12.30,    10.44,    11.59
      211.0,      12.21,    14.58,    12.28,    10.42,    11.57
      212.0,      12.19,    14.56,    12.26,    10.41,    11.55
      213.0,      12.18,    14.54,    12.23,    10.39,    11.54
      214.0,      12.16,    14.52,    12.21,    10.37,    11.52
      215.0,      12.14,    14.51,    12.18,    10.36,    11.50
      216.0,      12.12,    14.49,    12.16,    10.34,    11.49
      217.0,      12.10,    14.47,    12.14,    10.32,    11.47
      218.0,      12.08,    14.45,    12.11,    10.30,    11.45
      219.0,      12.06,    14.43,    12.09,    10.29,    11.44
      220.0,      12.04,    14.41,    12.07,    10.27,    11.42
      221.0,      12.02,    14.39,    12.04,    10.25,    11.41
      222.0,      12.01,    14.38,    12.02,    10.23,    11.39
      223.0,      11.99,    14.36,    12.00,    10.22,    11.38
      224.0,      11.97,    14.34,    11.97,    10.20,    11.36
      225.0,      11.95,    14.32,    11.95,    10.18,    11.35
      226.0,      11.93,    14.30,    11.93,    10.17,    11.33
      227.0,      11.91,    14.29,    11.90,    10.15,    11.32
      228.0,      11.90,    14.27,    11.88,    10.13,    11.30
      229.0,      11.88,    14.25,    11.86,    10.12,    11.29
      230.0,      11.86,    14.23,    11.83,    10.10,    11.27
      231.0,      11.84,    14.22,    11.81,    10.08,    11.26
      232.0,      11.82,    14.20,    11.79,    10.07,    11.24
      233.0,      11.81,    14.18,    11.77,    10.05,    11.23
      234.0,      11.79,    14.17,    11.74,    10.03,    11.21
      235.0,      11.77,    14.15,    11.72,    10.02,    11.20
      236.0,      11.75,    14.13,    11.70,    10.00,    11.18
      237.0,      11.74,    14.11,    11.67,     9.98,    11.17
      238.0,      11.72,    14.10,    11.65,     9.97,    11.16
      239.0,      11.70,    14.08,    11.63,     9.95,    11.14
      240.0,      11.68,    14.06,    11.61,     9.93,    11.13
      241.0,      11.67,    14.05,    11.58,     9.92,    11.11
      242.0,      11.65,    14.03,    11.56,     9.90,    11.10
      243.0,      11.63,    14.01,    11.54,     9.88,    11.09
      244.0,      11.61,    14.00,    11.52,     9.87,    11.07
      245.0,      11.60,    13.98,    11.49,     9.85,    11.06
      246.0,      11.58,    13.97,    11.47,     9.83,    11.05
      247.0,      11.56,    13.95,    11.45,     9.82,    11.03
      248.0,      11.55,    13.93,    11.43,     9.80,    11.02
      249.0,      11.53,    13.92,    11.41,     9.79,    11.01
      250.0,      11.51,    13.90,    11.38,     9.77,    10.99
      251.0,      11.49,    13.89,    11.36,     9.75,    10.98
      252.0,      11.48,    13.87,    11.34,     9.74,    10.97
      253.0,      11.46,    13.85,    11.32,     9.72,    10.95
      254.0,      11.44,    13.84,    11.30,     9.70,    10.94
      255.0,      11.43,    13.82,    11.27,     9.69,    10.93
      256.0,      11.41,    13.81,    11.25,     9.67,    10.91
      257.0,      11.39,    13.79,    11.23,     9.66,    10.90
      258.0,      11.38,    13.78,    11.21,     9.64,    10.89
      259.0,      11.36,    13.76,    11.19,     9.62,    10.88
      260.0,      11.35,    13.74,    11.17,     9.61,    10.86
      261.0,      11.33,    13.73,    11.14,     9.59,    10.85
      262.0,      11.31,    13.71,    11.12,     9.58,    10.84
      263.0,      11.30,    13.70,    11.10,     9.56,    10.83
      264.0,      11.28,    13.68,    11.08,     9.54,    10.81
      265.0,      11.26,    13.67,    11.06,     9.53,    10.80
      266.0,      11.25,    13.65,    11.04,     9.51,    10.79
      267.0,      11.23,    13.64,    11.01,     9.50,    10.78
      268.0,      11.22,    13.62,    10.99,     9.48,    10.76
      269.0,      11.20,    13.61,    10.97,     9.47,    10.75
      270.0,      11.18,    13.59,    10.95,     9.45,    10.74
      271.0,      11.17,    13.58,    10.93,     9.43,    10.73
      272.0,      11.15,    13.56,    10.91,     9.42,    10.71
      273.0,      11.14,    13.55,    10.89,     9.40,    10.70
      274.0,      11.12,    13.53,    10.87,     9.39,    10.69
      275.0,      11.10,    13.52,    10.85,     9.37,    10.68
      276.0,      11.09,    13.50,    10.82,     9.36,    10.67
      277.0,      11.07,    13.49,    10.80,     9.34,    10.65
      278.0,      11.06,    13.47,    10.78,     9.33,    10.64
      279.0,      11.04,    13.46,    10.76,     9.31,    10.63
      280.0,      11.02,    13.44,    10.74,     9.29,    10.62
      281.0,      11.01,    13.43,    10.72,     9.28,    10.61
      282.0,      10.99,    13.42,    10.70,     9.26,    10.59
      283.0,      10.98,    13.40,    10.68,     9.25,    10.58
      284.0,      10.96,    13.39,    10.66,     9.23,    10.57
      285.0,      10.95,    13.37,    10.64,     9.22,    10.56
      286.0,      10.93,    13.36,    10.62,     9.20,    10.55
      287.0,      10.92,    13.34,    10.60,     9.19,    10.54
      288.0,      10.90,    13.33,    10.58,     9.17,    10.52
      289.0,      10.89,    13.31,    10.56,     9.16,    10.51
      290.0,      10.87,    13.30,    10.54,     9.14,    10.50
      291.0,      10.85,    13.29,    10.51,     9.13,    10.49
      292.0,      10.84,    13.27,    10.49,     9.11,    10.48
      293.0,      10.82,    13.26,    10.47,     9.10,    10.47
      294.0,      10.81,    13.24,    10.45,     9.08,    10.46
      295.0,      10.79,    13.23,    10.43,     9.07,    10.44
      296.0,      10.78,    13.22,    10.41,     9.05,    10.43
      297.0,      10.76,    13.20,    10.39,     9.04,    10.42
      298.0,      10.75,    13.19,    10.37,     9.02,    10.41
      299.0,      10.73,    13.17,    10.35,     9.01,    10.40
      300.0,      10.72,    13.16,    10.33,     8.99,    10.39
      301.0,      10.70,    13.15,    10.31,     8.98,    10.38
      302.0,      10.69,    13.13,    10.29,     8.96,    10.37
      303.0,      10.67,    13.12,    10.27,     8.95,    10.36
      304.0,      10.66,    13.10,    10.25,     8.93,    10.34
      305.0,      10.64,    13.09,    10.23,     8.92,    10.33
      306.0,      10.63,    13.08,    10.21,     8.90,    10.32
      307.0,      10.61,    13.06,    10.19,     8.89,    10.31
      308.0,      10.60,    13.05,    10.17,     8.87,    10.30
      309.0,      10.58,    13.04,    10.15,     8.86,    10.29
      310.0,      10.57,    13.02,    10.14,     8.84,    10.28
