Radius (km), Mean (m/s), NE (m/s), SE (m/s), SW (m/s), NW (m/s)
        0.0,       0.00,     0.00,     0.00,     0.00,     0.00
        1.0,       3.45,     3.42,     3.45,     3.47,     3.45
        2.0,       5.69,     5.73,     5.68,     5.65,     5.69
        3.0,       7.66,     7.80,     7.63,     7.54,     7.68
        4.0,       9.55,     9.82,     9.47,     9.31,     9.59
        5.0,      11.45,    11.87,    11.32,    11.09,    11.53
        6.0,      13.43,    14.01,    13.22,    12.93,    13.54
        7.0,      15.49,    16.23,    15.23,    14.86,    15.65
        8.0,      17.62,    18.49,    17.31,    16.88,    17.80
        9.0,      19.75,    20.72,    19.42,    18.92,    19.94
       10.0,      21.80,    22.83,    21.47,    20.91,    21.99
       11.0,      23.68,    24.74,    23.38,    22.76,    23.85
       12.0,      25.31,    26.36,    25.06,    24.37,    25.44
       13.0,      26.61,    27.65,    26.43,    25.67,    26.71
       14.0,      27.57,    28.58,    27.45,    26.61,    27.63
       15.0,      28.17,    29.18,    28.11,    27.19,    28.19
       16.0,      28.45,    29.47,    28.43,    27.44,    28.45
       17.0,      28.46,    29.53,    28.46,    27.39,    28.45
       18.0,      28.26,    29.41,    28.27,    27.12,    28.26
       19.0,      27.95,    29.19,    27.94,    26.70,    27.95
       20.0,      27.56,    28.92,    27.52,    26.21,    27.59
       21.0,      27.16,    28.63,    27.09,    25.70,    27.21
       22.0,      26.77,    28.36,    26.66,    25.21,    26.85
       23.0,      26.40,    28.10,    26.26,    24.74,    26.50
       24.0,      26.05,    27.84,    25.89,    24.29,    26.16
       25.0,      25.71,    27.59,    25.53,    23.87,    25.83
       26.0,      25.38,    27.35,    25.18,    23.46,    25.51
       27.0,      25.06,    27.11,    24.84,    23.07,    25.20
       28.0,      24.75,    26.88,    24.52,    22.69,    24.89
       29.0,      24.45,    26.65,    24.21,    22.33,    24.60
       30.0,      24.16,    26.43,    23.91,    21.98,    24.31
       31.0,      23.87,    26.21,    23.62,    21.64,    24.02
       32.0,      23.60,    25.99,    23.34,    21.32,    23.74
       33.0,      23.33,    25.78,    23.07,    21.00,    23.47
       34.0,      23.08,    25.58,    22.81,    20.70,    23.21
       35.0,      22.83,    25.38,    22.56,    20.41,    22.95
       36.0,      22.58,    25.18,    22.32,    20.13,    22.70
       37.0,      22.35,    24.99,    22.08,    19.86,    22.46
       38.0,      22.12,    24.80,    21.85,    19.60,    22.22
       39.0,      21.90,    24.61,    21.64,    19.35,    21.98
       40.0,      21.68,    24.43,    21.42,    19.11,    21.76
       41.0,      21.47,    24.25,    21.22,    18.88,    21.53
       42.0,      21.27,    24.08,    21.02,    18.65,    21.32
       43.0,      21.07,    23.91,    20.83,    18.44,    21.10
       44.0,      20.88,    23.74,    20.64,    18.23,    20.90
       45.0,      20.69,    23.57,    20.47,    18.03,    20.70
       46.0,      20.51,    23.41,    20.29,    17.83,    20.50
       47.0,      20.33,    23.26,    20.13,    17.64,    20.31
       48.0,      20.16,    23.10,    19.96,    17.46,    20.12
       49.0,      19.99,    22.95,    19.81,    17.29,    19.93
       50.0,      19.83,    22.80,    19.65,    17.12,    19.75
       51.0,      19.67,    22.66,    19.51,    16.96,    19.58
       52.0,      19.52,    22.52,    19.36,    16.80,    19.41
       53.0,      19.37,    22.38,    19.23,    16.65,    19.24
       54.0,      19.23,    22.24,    19.09,    16.50,    19.08
       55.0,      19.09,    22.11,    18.96,    16.36,    18.92
       56.0,      18.95,    21.97,    18.84,    16.22,    18.76
       57.0,      18.81,    21.84,    18.71,    16.09,    18.61
       58.0,      18.68,    21.72,    18.59,    15.96,    18.46
       59.0,      18.56,    21.60,    18.48,    15.83,    18.32
       60.0,      18.43,    21.47,    18.37,    15.71,    18.17
       61.0,      18.31,    21.35,    18.26,    15.60,    18.04
       62.0,      18.19,    21.24,    18.15,    15.49,    17.90
       63.0,      18.08,    21.12,    18.05,    15.38,    17.77
       64.0,      17.97,    21.01,    17.95,    15.27,    17.64
       65.0,      17.86,    20.90,    17.85,    15.17,    17.51
       66.0,      17.75,    20.79,    17.76,    15.07,    17.39
       67.0,      17.65,    20.69,    17.67,    14.98,    17.27
       68.0,      17.55,    20.58,    17.58,    14.88,    17.15
       69.0,      17.45,    20.48,    17.49,    14.79,    17.03
       70.0,      17.35,    20.38,    17.41,    14.71,    16.92
       71.0,      17.26,    20.28,    17.32,    14.62,    16.81
       72.0,      17.17,    20.19,    17.24,    14.54,    16.70
       73.0,      17.08,    20.09,    17.16,    14.46,    16.60
       74.0,      16.99,    20.00,    17.09,    14.38,    16.50
       75.0,      16.91,    19.91,    17.01,    14.31,    16.39
       76.0,      16.82,    19.82,    16.94,    14.24,    16.30
       77.0,      16.74,    19.73,    16.87,    14.16,    16.20
       78.0,      16.66,    19.65,    16.80,    14.10,    16.11
       79.0,      16.58,    19.56,    16.73,    14.03,    16.01
       80.0,      16.51,    19.48,    16.66,    13.96,    15.92
       81.0,      16.43,    19.40,    16.60,    13.90,    15.84
       82.0,      16.36,    19.32,    16.54,    13.84,    15.75
       83.0,      16.29,    19.24,    16.47,    13.78,    15.66
       84.0,      16.22,    19.16,    16.41,    13.72,    15.58
       85.0,      16.15,    19.09,    16.35,    13.66,    15.50
       86.0,      16.08,    19.01,    16.29,    13.61,    15.42
       87.0,      16.02,    18.94,    16.24,    13.55,    15.34
       88.0,      15.95,    18.87,    16.18,    13.50,    15.27
       89.0,      15.89,    18.80,    16.13,    13.45,    15.19
       90.0,      15.83,    18.73,    16.07,    13.40,    15.12
       91.0,      15.77,    18.66,    16.02,    13.35,    15.05
       92.0,      15.71,    18.59,    15.97,    13.30,    14.98
       93.0,      15.65,    18.53,    15.92,    13.26,    14.91
       94.0,      15.60,    18.46,    15.87,    13.21,    14.85
       95.0,      15.54,    18.40,    15.82,    13.17,    14.78
       96.0,      15.49,    18.34,    15.77,    13.12,    14.72
       97.0,      15.43,    18.28,    15.72,    13.08,    14.65
       98.0,      15.38,    18.22,    15.67,    13.04,    14.59
       99.0,      15.33,    18.16,    15.63,    13.00,    14.53
      100.0,      15.28,    18.10,    15.58,    12.96,    14.47
      101.0,      15.23,    18.04,    15.54,    12.92,    14.42
      102.0,      15.18,    17.98,    15.49,    12.88,    14.36
      103.0,      15.13,    17.93,    15.45,    12.84,    14.30
      104.0,      15.08,    17.87,    15.41,    12.81,    14.25
      105.0,      15.04,    17.82,    15.36,    12.77,    14.20
      106.0,      14.99,    17.77,    15.32,    12.74,    14.14
      107.0,      14.95,    17.71,    15.28,    12.70,    14.09
      108.0,      14.90,    17.66,    15.24,    12.67,    14.04
      109.0,      14.86,    17.61,    15.20,    12.63,    13.99
      110.0,      14.82,    17.56,    15.16,    12.60,    13.94
      111.0,      14.78,    17.51,    15.12,    12.57,    13.90
      112.0,      14.73,    17.47,    15.08,    12.54,    13.85
      113.0,      14.69,    17.42,    15.05,    12.50,    13.80
      114.0,      14.65,    17.37,    15.01,    12.47,    13.76
      115.0,      14.61,    17.33,    14.97,    12.44,    13.72
      116.0,      14.57,    17.28,    14.93,    12.41,    13.67
      117.0,      14.54,    17.24,    14.90,    12.38,    13.63
      118.0,      14.50,    17.19,    14.86,    12.35,    13.59
      119.0,      14.46,    17.15,    14.83,    12.33,    13.55
      120.0,      14.43,    17.11,    14.79,    12.30,    13.51
      121.0,      14.39,    17.06,    14.76,    12.27,    13.47
      122.0,      14.35,    17.02,    14.72,    12.24,    13.43
      123.0,      14.32,    16.98,    14.69,    12.21,    13.39
      124.0,      14.28,    16.94,    14.65,    12.19,    13.35
      125.0,      14.25,    16.90,    14.62,    12.16,    13.32
      126.0,      14.22,    16.86,    14.59,    12.13,    13.28
      127.0,      14.18,    16.82,    14.55,    12.11,    13.24
      128.0,      14.15,    16.79,    14.52,    12.08,    13.21
      129.0,      14.12,    16.75,    14.49,    12.06,    13.17
      130.0,      14.08,    16.71,    14.45,    12.03,    13.14
      131.0,      14.05,    16.67,    14.42,    12.01,    13.11
      132.0,      14.02,    16.64,    14.39,    11.98,    13.07
      133.0,      13.99,    16.60,    14.36,    11.96,    13.04
      134.0,      13.96,    16.57,    14.33,    11.93,    13.01
      135.0,      13.93,    16.53,    14.30,    11.91,    12.98
      136.0,      13.90,    16.50,    14.26,    11.89,    12.95
      137.0,      13.87,    16.47,    14.23,    11.86,    12.92
      138.0,      13.84,    16.43,    14.20,    11.84,    12.89
      139.0,      13.81,    16.40,    14.17,    11.82,    12.86
      140.0,      13.78,    16.37,    14.14,    11.79,    12.83
      141.0,      13.76,    16.33,    14.11,    11.77,    12.80
      142.0,      13.73,    16.30,    14.08,    11.75,    12.77
      143.0,      13.70,    16.27,    14.05,    11.73,    12.75
      144.0,      13.67,    16.24,    14.02,    11.71,    12.72
      145.0,      13.64,    16.21,    13.99,    11.68,    12.69
      146.0,      13.62,    16.18,    13.96,    11.66,    12.67
      147.0,      13.59,    16.15,    13.93,    11.64,    12.64
      148.0,      13.56,    16.12,    13.91,    11.62,    12.61
      149.0,      13.54,    16.09,    13.88,    11.60,    12.59
      150.0,      13.51,    16.06,    13.85,    11.58,    12.56
      151.0,      13.49,    16.03,    13.82,    11.56,    12.54
      152.0,      13.46,    16.00,    13.79,    11.53,    12.52
      153.0,      13.44,    15.98,    13.76,    11.51,    12.49
      154.0,      13.41,    15.95,    13.73,    11.49,    12.47
      155.0,      13.39,    15.92,    13.71,    11.47,    12.44
      156.0,      13.36,    15.89,    13.68,    11.45,    12.42
      157.0,      13.34,    15.87,    13.65,    11.43,    12.40
      158.0,      13.31,    15.84,    13.62,    11.41,    12.38
      159.0,      13.29,    15.81,    13.60,    11.39,    12.35
      160.0,      13.26,    15.79,    13.57,    11.37,    12.33
      161.0,      13.24,    15.76,    13.54,    11.35,    12.31
      162.0,      13.22,    15.74,    13.51,    11.33,    12.29
      163.0,      13.19,    15.71,    13.49,    11.31,    12.27
      164.0,      13.17,    15.68,    13.46,    11.29,    12.25
      165.0,      13.15,    15.66,    13.43,    11.27,    12.23
      166.0,      13.12,    15.64,    13.40,    11.25,    12.21
      167.0,      13.10,    15.61,    13.38,    11.23,    12.19
      168.0,      13.08,    15.59,    13.35,    11.21,    12.17
      169.0,      13.06,    15.56,    13.32,    11.20,    12.15
      170.0,      13.04,    15.54,    13.30,    11.18,    12.13
      171.0,      13.01,    15.52,    13.27,    11.16,    12.11
      172.0,      12.99,    15.49,    13.25,    11.14,    12.09
      173.0,      12.97,    15.47,    13.22,    11.12,    12.07
      174.0,      12.95,    15.45,    13.19,    11.10,    12.05
      175.0,      12.93,    15.42,    13.17,    11.08,    12.03
      176.0,      12.90,    15.40,    13.14,    11.06,    12.01
      177.0,      12.88,    15.38,    13.12,    11.04,    11.99
      178.0,      12.86,    15.36,    13.09,    11.03,    11.98
      179.0,      12.84,    15.33,    13.06,    11.01,    11.96
      180.0,      12.82,    15.31,    13.04,    10.99,    11.94
      181.0,      12.80,    15.29,    13.01,    10.97,    11.92
      182.0,      12.78,    15.27,    12.99,    10.95,    11.91
      183.0,      12.76,    15.25,    12.96,    10.93,    11.89
      184.0,      12.74,    15.23,    12.94,    10.92,    11.87
      185.0,      12.72,    15.21,    12.91,    10.90,    11.85
      186.0,      12.70,    15.18,    12.89,    10.88,    11.84
      187.0,      12.68,    15.16,    12.86,    10.86,    11.82
      188.0,      12.66,    15.14,    12.83,    10.84,    11.80
      189.0,      12.64,    15.12,    12.81,    10.83,    11.79
      190.0,      12.62,    15.10,    12.78,    10.81,    11.77
      191.0,      12.60,    15.08,    12.76,    10.79,    11.76
      192.0,      12.58,    15.06,    12.74,    10.77,    11.74
      193.0,      12.56,    15.04,    12.71,    10.75,    11.72
      194.0,      12.54,    15.02,    12.69,    10.74,    11.71
      195.0,      12.52,    15.00,    12.66,    10.72,    11.69
      196.0,      12.50,    14.98,    12.64,    10.70,    11.68
      197.0,      12.48,    14.96,    12.61,    10.68,    11.66
      198.0,      12.46,    14.94,    12.59,    10.67,    11.65
      199.0,      12.44,    14.93,    12.56,    10.65,    11.63
      200.0,      12.42,    14.91,    12.54,    10.63,    11.62
      201.0,      12.40,    14.89,    12.51,    10.61,    11.60
      202.0,      12.39,    14.87,    12.49,    10.60,    11.59
      203.0,      12.37,    14.85,    12.47,    10.58,    11.57
      204.0,      12.35,    14.83,    12.44,    10.56,    11.56
      205.0,      12.33,    14.81,    12.42,    10.55,    11.54
      206.0,      12.31,    14.79,    12.39,    10.53,    11.53
      207.0,      12.29,    14.78,    12.37,    10.51,    11.51
      208.0,      12.27,    14.76,    12.35,    10.49,    11.50
      209.0,      12.26,    14.74,    12.32,    10.48,    11.49
      210.0,      12.24,    14.72,    12.30,    10.46,    11.47
      211.0,      12.22,    14.70,    12.27,    10.44,    11.46
      212.0,      12.20,    14.69,    12.25,    10.43,    11.44
      213.0,      12.18,    14.67,    12.23,    10.41,    11.43
      214.0,      12.17,    14.65,    12.20,    10.39,    11.42
      215.0,      12.15,    14.63,    12.18,    10.38,    11.40
      216.0,      12.13,    14.62,    12.16,    10.36,    11.39
      217.0,      12.11,    14.60,    12.13,    10.34,    11.37
      218.0,      12.09,    14.58,    12.11,    10.33,    11.36
      219.0,      12.08,    14.56,    12.09,    10.31,    11.35
      220.0,      12.06,    14.55,    12.06,    10.29,    11.33
      221.0,      12.04,    14.53,    12.04,    10.28,    11.32
      222.0,      12.02,    14.51,    12.02,    10.26,    11.31
      223.0,      12.01,    14.49,    11.99,    10.24,    11.29
      224.0,      11.99,    14.48,    11.97,    10.23,    11.28
      225.0,      11.97,    14.46,    11.95,    10.21,    11.27
      226.0,      11.95,    14.44,    11.92,    10.19,    11.25
      227.0,      11.94,    14.43,    11.90,    10.18,    11.24
      228.0,      11.92,    14.41,    11.88,    10.16,    11.23
      229.0,      11.90,    14.39,    11.85,    10.14,    11.22
      230.0,      11.88,    14.38,    11.83,    10.13,    11.20
      231.0,      11.87,    14.36,    11.81,    10.11,    11.19
      232.0,      11.85,    14.35,    11.79,    10.09,    11.18
      233.0,      11.83,    14.33,    11.76,    10.08,    11.16
      234.0,      11.82,    14.31,    11.74,    10.06,    11.15
      235.0,      11.80,    14.30,    11.72,    10.05,    11.14
      236.0,      11.78,    14.28,    11.70,    10.03,    11.13
      237.0,      11.77,    14.26,    11.67,    10.01,    11.11
      238.0,      11.75,    14.25,    11.65,    10.00,    11.10
      239.0,      11.73,    14.23,    11.63,     9.98,    11.09
      240.0,      11.72,    14.22,    11.61,     9.96,    11.08
      241.0,      11.70,    14.20,    11.58,     9.95,    11.07
      242.0,      11.68,    14.18,    11.56,     9.93,    11.05
      243.0,      11.67,    14.17,    11.54,     9.92,    11.04
      244.0,      11.65,    14.15,    11.52,     9.90,    11.03
      245.0,      11.63,    14.14,    11.49,     9.88,    11.02
      246.0,      11.62,    14.12,    11.47,     9.87,    11.00
      247.0,      11.60,    14.11,    11.45,     9.85,    10.99
      248.0,      11.58,    14.09,    11.43,     9.84,    10.98
      249.0,      11.57,    14.08,    11.41,     9.82,    10.97
      250.0,      11.55,    14.06,    11.38,     9.81,    10.96
      251.0,      11.54,    14.04,    11.36,     9.79,    10.94
      252.0,      11.52,    14.03,    11.34,     9.77,    10.93
      253.0,      11.50,    14.01,    11.32,     9.76,    10.92
      254.0,      11.49,    14.00,    11.30,     9.74,    10.91
      255.0,      11.47,    13.98,    11.28,     9.73,    10.90
      256.0,      11.46,    13.97,    11.25,     9.71,    10.89
      257.0,      11.44,    13.95,    11.23,     9.70,    10.87
      258.0,      11.42,    13.94,    11.21,     9.68,    10.86
      259.0,      11.41,    13.92,    11.19,     9.66,    10.85
      260.0,      11.39,    13.91,    11.17,     9.65,    10.84
      261.0,      11.38,    13.89,    11.15,     9.63,    10.83
      262.0,      11.36,    13.88,    11.13,     9.62,    10.82
      263.0,      11.34,    13.86,    11.10,     9.60,    10.80
      264.0,      11.33,    13.85,    11.08,     9.59,    10.79
      265.0,      11.31,    13.83,    11.06,     9.57,    10.78
      266.0,      11.30,    13.82,    11.04,     9.56,    10.77
      267.0,      11.28,    13.80,    11.02,     9.54,    10.76
      268.0,      11.27,    13.79,    11.00,     9.53,    10.75
      269.0,      11.25,    13.78,    10.98,     9.51,    10.74
      270.0,      11.23,    13.76,    10.96,     9.50,    10.72
      271.0,      11.22,    13.75,    10.93,     9.48,    10.71
      272.0,      11.20,    13.73,    10.91,     9.47,    10.70
      273.0,      11.19,    13.72,    10.89,     9.45,    10.69
      274.0,      11.17,    13.70,    10.87,     9.43,    10.68
      275.0,      11.16,    13.69,    10.85,     9.42,    10.67
      276.0,      11.14,    13.67,    10.83,     9.40,    10.66
      277.0,      11.13,    13.66,    10.81,     9.39,    10.65
      278.0,      11.11,    13.64,    10.79,     9.37,    10.64
      279.0,      11.10,    13.63,    10.77,     9.36,    10.62
      280.0,      11.08,    13.62,    10.75,     9.34,    10.61
      281.0,      11.06,    13.60,    10.73,     9.33,    10.60
      282.0,      11.05,    13.59,    10.71,     9.31,    10.59
      283.0,      11.03,    13.57,    10.68,     9.30,    10.58
      284.0,      11.02,    13.56,    10.66,     9.28,    10.57
      285.0,      11.00,    13.55,    10.64,     9.27,    10.56
      286.0,      10.99,    13.53,    10.62,     9.25,    10.55
      287.0,      10.97,    13.52,    10.60,     9.24,    10.54
      288.0,      10.96,    13.50,    10.58,     9.23,    10.53
      289.0,      10.94,    13.49,    10.56,     9.21,    10.51
      290.0,      10.93,    13.47,    10.54,     9.20,    10.50
      291.0,      10.91,    13.46,    10.52,     9.18,    10.49
      292.0,      10.90,    13.45,    10.50,     9.17,    10.48
      293.0,      10.88,    13.43,    10.48,     9.15,    10.47
      294.0,      10.87,    13.42,    10.46,     9.14,    10.46
      295.0,      10.85,    13.41,    10.44,     9.12,    10.45
      296.0,      10.84,    13.39,    10.42,     9.11,    10.44
      297.0,      10.82,    13.38,    10.40,     9.09,    10.43
      298.0,      10.81,    13.36,    10.38,     9.08,    10.42
      299.0,      10.80,    13.35,    10.36,     9.06,    10.41
      300.0,      10.78,    13.34,    10.34,     9.05,    10.40
      301.0,      10.77,    13.32,    10.32,     9.03,    10.39
      302.0,      10.75,    13.31,    10.30,     9.02,    10.37
      303.0,      10.74,    13.29,    10.28,     9.01,    10.36
      304.0,      10.72,    13.28,    10.26,     8.99,    10.35
      305.0,      10.71,    13.27,    10.24,     8.98,    10.34
      306.0,      10.69,    13.25,    10.22,     8.96,    10.33
      307.0,      10.68,    13.24,    10.20,     8.95,    10.32
      308.0,      10.66,    13.23,    10.18,     8.93,    10.31
      309.0,      10.65,    13.21,    10.16,     8.92,    10.30
      310.0,      10.63,    13.20,    10.14,     8.91,    10.29
