Radius (km), Mean (m/s), NE (m/s), SE (m/s), SW (m/s), NW (m/s)
        0.0,       0.00,     0.00,     0.00,     0.00,     0.00
        1.0,       2.25,     2.23,     2.29,     2.28,     2.19
        2.0,       3.46,     3.52,     3.46,     3.37,     3.51
        3.0,       4.47,     4.59,     4.42,     4.23,     4.62
        4.0,       5.35,     5.55,     5.25,     4.98,     5.62
        5.0,       6.15,     6.42,     6.00,     5.65,     6.53
        6.0,       6.90,     7.24,     6.69,     6.26,     7.39
        7.0,       7.60,     8.01,     7.34,     6.83,     8.21
        8.0,       8.26,     8.75,     7.95,     7.37,     8.99
        9.0,       8.90,     9.45,     8.53,     7.87,     9.74
       10.0,       9.51,    10.13,     9.09,     8.35,    10.46
       11.0,      10.10,    10.79,     9.62,     8.82,    11.16
       12.0,      10.66,    11.42,    10.14,     9.26,    11.83
       13.0,      11.22,    12.04,    10.64,     9.69,    12.50
       14.0,      11.75,    12.64,    11.12,    10.10,    13.14
       15.0,      12.27,    13.23,    11.59,    10.50,    13.77
       16.0,      12.78,    13.80,    12.05,    10.89,    14.39
       17.0,      13.28,    14.37,    12.49,    11.27,    14.99
       18.0,      13.77,    14.92,    12.93,    11.64,    15.58
       19.0,      14.24,    15.46,    13.35,    12.00,    16.17
       20.0,      14.71,    15.99,    13.77,    12.35,    16.74
       21.0,      15.17,    16.51,    14.18,    12.70,    17.30
       22.0,      15.63,    17.04,    14.58,    13.04,    17.86
       23.0,      16.10,    17.59,    14.99,    13.38,    18.42
       24.0,      16.59,    18.18,    15.42,    13.74,    19.01
       25.0,      17.12,    18.83,    15.88,    14.13,    19.64
       26.0,      17.70,    19.54,    16.39,    14.56,    20.33
       27.0,      18.33,    20.30,    16.93,    15.03,    21.07
       28.0,      18.99,    21.07,    17.49,    15.52,    21.85
       29.0,      19.64,    21.82,    18.06,    16.03,    22.65
       30.0,      20.26,    22.52,    18.60,    16.51,    23.41
       31.0,      20.81,    23.12,    19.08,    16.93,    24.10
       32.0,      21.26,    23.60,    19.48,    17.28,    24.68
       33.0,      21.59,    23.94,    19.78,    17.53,    25.12
       34.0,      21.80,    24.13,    19.97,    17.67,    25.42
       35.0,      21.87,    24.18,    20.04,    17.70,    25.55
       36.0,      21.84,    24.13,    20.02,    17.64,    25.55
       37.0,      21.71,    23.98,    19.93,    17.50,    25.44
       38.0,      21.53,    23.79,    19.78,    17.30,    25.24
       39.0,      21.31,    23.56,    19.60,    17.08,    25.00
       40.0,      21.08,    23.33,    19.40,    16.84,    24.74
       41.0,      20.85,    23.11,    19.21,    16.61,    24.48
       42.0,      20.63,    22.89,    19.02,    16.39,    24.23
       43.0,      20.43,    22.69,    18.84,    16.19,    23.99
       44.0,      20.23,    22.49,    18.67,    15.99,    23.76
       45.0,      20.04,    22.29,    18.50,    15.81,    23.54
       46.0,      19.85,    22.10,    18.34,    15.63,    23.33
       47.0,      19.66,    21.91,    18.17,    15.45,    23.12
       48.0,      19.48,    21.73,    18.01,    15.29,    22.91
       49.0,      19.31,    21.55,    17.85,    15.12,    22.71
       50.0,      19.14,    21.37,    17.70,    14.97,    22.51
       51.0,      18.97,    21.20,    17.54,    14.82,    22.32
       52.0,      18.81,    21.03,    17.39,    14.67,    22.13
       53.0,      18.65,    20.87,    17.24,    14.53,    21.94
       54.0,      18.49,    20.71,    17.09,    14.40,    21.76
       55.0,      18.34,    20.55,    16.95,    14.27,    21.58
       56.0,      18.19,    20.40,    16.81,    14.14,    21.40
       57.0,      18.04,    20.24,    16.66,    14.02,    21.23
       58.0,      17.90,    20.10,    16.53,    13.90,    21.06
       59.0,      17.76,    19.95,    16.39,    13.79,    20.90
       60.0,      17.62,    19.81,    16.25,    13.68,    20.74
       61.0,      17.49,    19.67,    16.12,    13.57,    20.58
       62.0,      17.35,    19.53,    15.99,    13.47,    20.43
       63.0,      17.23,    19.40,    15.86,    13.37,    20.27
       64.0,      17.10,    19.27,    15.74,    13.27,    20.12
       65.0,      16.98,    19.14,    15.61,    13.18,    19.98
       66.0,      16.86,    19.02,    15.49,    13.09,    19.83
       67.0,      16.74,    18.90,    15.37,    13.00,    19.69
       68.0,      16.62,    18.78,    15.25,    12.91,    19.56
       69.0,      16.51,    18.66,    15.13,    12.83,    19.42
       70.0,      16.40,    18.54,    15.01,    12.75,    19.29
       71.0,      16.29,    18.43,    14.90,    12.67,    19.16
       72.0,      16.18,    18.32,    14.79,    12.60,    19.03
       73.0,      16.08,    18.21,    14.68,    12.53,    18.91
       74.0,      15.98,    18.11,    14.57,    12.46,    18.78
       75.0,      15.88,    18.00,    14.46,    12.39,    18.66
       76.0,      15.78,    17.90,    14.35,    12.32,    18.54
       77.0,      15.68,    17.80,    14.25,    12.26,    18.43
       78.0,      15.59,    17.70,    14.15,    12.19,    18.31
       79.0,      15.50,    17.61,    14.05,    12.13,    18.20
       80.0,      15.41,    17.51,    13.95,    12.07,    18.09
       81.0,      15.32,    17.42,    13.85,    12.01,    17.99
       82.0,      15.23,    17.33,    13.75,    11.96,    17.88
       83.0,      15.14,    17.24,    13.65,    11.90,    17.78
       84.0,      15.06,    17.16,    13.56,    11.85,    17.67
       85.0,      14.98,    17.07,    13.47,    11.80,    17.57
       86.0,      14.90,    16.99,    13.38,    11.75,    17.48
       87.0,      14.82,    16.90,    13.29,    11.70,    17.38
       88.0,      14.74,    16.82,    13.20,    11.65,    17.28
       89.0,      14.66,    16.75,    13.11,    11.60,    17.19
       90.0,      14.59,    16.67,    13.02,    11.56,    17.10
       91.0,      14.51,    16.59,    12.94,    11.52,    17.01
       92.0,      14.44,    16.52,    12.85,    11.47,    16.92
       93.0,      14.37,    16.45,    12.77,    11.43,    16.84
       94.0,      14.30,    16.38,    12.69,    11.39,    16.75
       95.0,      14.23,    16.31,    12.61,    11.35,    16.67
       96.0,      14.16,    16.24,    12.53,    11.31,    16.58
       97.0,      14.10,    16.17,    12.45,    11.27,    16.50
       98.0,      14.03,    16.10,    12.38,    11.23,    16.42
       99.0,      13.97,    16.04,    12.30,    11.20,    16.34
      100.0,      13.91,    15.97,    12.23,    11.16,    16.27
      101.0,      13.84,    15.91,    12.15,    11.12,    16.19
      102.0,      13.78,    15.85,    12.08,    11.09,    16.12
      103.0,      13.72,    15.79,    12.01,    11.05,    16.04
      104.0,      13.67,    15.73,    11.94,    11.02,    15.97
      105.0,      13.61,    15.67,    11.87,    10.99,    15.90
      106.0,      13.55,    15.62,    11.80,    10.96,    15.83
      107.0,      13.49,    15.56,    11.73,    10.93,    15.76
      108.0,      13.44,    15.50,    11.67,    10.89,    15.69
      109.0,      13.39,    15.45,    11.60,    10.86,    15.63
      110.0,      13.33,    15.40,    11.54,    10.83,    15.56
      111.0,      13.28,    15.34,    11.47,    10.81,    15.50
      112.0,      13.23,    15.29,    11.41,    10.78,    15.43
      113.0,      13.18,    15.24,    11.35,    10.75,    15.37
      114.0,      13.13,    15.19,    11.29,    10.72,    15.31
      115.0,      13.08,    15.14,    11.22,    10.69,    15.25
      116.0,      13.03,    15.10,    11.17,    10.67,    15.19
      117.0,      12.98,    15.05,    11.11,    10.64,    15.13
      118.0,      12.93,    15.00,    11.05,    10.61,    15.07
      119.0,      12.89,    14.96,    10.99,    10.59,    15.01
      120.0,      12.84,    14.91,    10.94,    10.56,    14.96
      121.0,      12.80,    14.87,    10.88,    10.54,    14.90
      122.0,      12.75,    14.82,    10.83,    10.51,    14.85
      123.0,      12.71,    14.78,    10.77,    10.49,    14.79
      124.0,      12.67,    14.74,    10.72,    10.46,    14.74
      125.0,      12.62,    14.70,    10.67,    10.44,    14.69
      126.0,      12.58,    14.66,    10.61,    10.42,    14.63
      127.0,      12.54,    14.62,    10.56,    10.39,    14.58
      128.0,      12.50,    14.58,    10.51,    10.37,    14.53
      129.0,      12.46,    14.54,    10.46,    10.35,    14.48
      130.0,      12.42,    14.50,    10.41,    10.33,    14.43
      131.0,      12.38,    14.46,    10.37,    10.30,    14.38
      132.0,      12.34,    14.43,    10.32,    10.28,    14.34
      133.0,      12.30,    14.39,    10.27,    10.26,    14.29
      134.0,      12.26,    14.36,    10.22,    10.24,    14.24
      135.0,      12.23,    14.32,    10.18,    10.22,    14.19
      136.0,      12.19,    14.29,    10.13,    10.20,    14.15
      137.0,      12.15,    14.25,    10.09,    10.18,    14.10
      138.0,      12.12,    14.22,    10.04,    10.16,    14.06
      139.0,      12.08,    14.18,    10.00,    10.13,    14.02
      140.0,      12.05,    14.15,     9.96,    10.11,    13.97
      141.0,      12.01,    14.12,     9.92,    10.09,    13.93
      142.0,      11.98,    14.09,     9.87,    10.07,    13.89
      143.0,      11.95,    14.05,     9.83,    10.05,    13.84
      144.0,      11.91,    14.02,     9.79,    10.03,    13.80
      145.0,      11.88,    13.99,     9.75,    10.02,    13.76
      146.0,      11.85,    13.96,     9.71,    10.00,    13.72
      147.0,      11.82,    13.93,     9.67,     9.98,    13.68
      148.0,      11.78,    13.90,     9.63,     9.96,    13.64
      149.0,      11.75,    13.87,     9.60,     9.94,    13.60
      150.0,      11.72,    13.85,     9.56,     9.92,    13.56
      151.0,      11.69,    13.82,     9.52,     9.90,    13.52
      152.0,      11.66,    13.79,     9.49,     9.88,    13.49
      153.0,      11.63,    13.76,     9.45,     9.86,    13.45
      154.0,      11.60,    13.74,     9.41,     9.85,    13.41
      155.0,      11.57,    13.71,     9.38,     9.83,    13.38
      156.0,      11.54,    13.68,     9.34,     9.81,    13.34
      157.0,      11.51,    13.66,     9.31,     9.79,    13.30
      158.0,      11.49,    13.63,     9.27,     9.77,    13.27
      159.0,      11.46,    13.60,     9.24,     9.76,    13.23
      160.0,      11.43,    13.58,     9.21,     9.74,    13.20
      161.0,      11.40,    13.55,     9.18,     9.72,    13.16
      162.0,      11.38,    13.53,     9.14,     9.70,    13.13
      163.0,      11.35,    13.50,     9.11,     9.69,    13.09
      164.0,      11.32,    13.48,     9.08,     9.67,    13.06
      165.0,      11.30,    13.46,     9.05,     9.65,    13.03
      166.0,      11.27,    13.43,     9.02,     9.63,    12.99
      167.0,      11.24,    13.41,     8.99,     9.62,    12.96
      168.0,      11.22,    13.39,     8.96,     9.60,    12.93
      169.0,      11.19,    13.36,     8.93,     9.58,    12.89
      170.0,      11.17,    13.34,     8.90,     9.57,    12.86
      171.0,      11.14,    13.32,     8.87,     9.55,    12.83
      172.0,      11.12,    13.30,     8.84,     9.53,    12.80
      173.0,      11.09,    13.27,     8.81,     9.52,    12.77
      174.0,      11.07,    13.25,     8.78,     9.50,    12.74
      175.0,      11.04,    13.23,     8.76,     9.48,    12.71
      176.0,      11.02,    13.21,     8.73,     9.47,    12.68
      177.0,      11.00,    13.19,     8.70,     9.45,    12.65
      178.0,      10.97,    13.17,     8.68,     9.43,    12.62
      179.0,      10.95,    13.15,     8.65,     9.42,    12.59
      180.0,      10.93,    13.13,     8.62,     9.40,    12.56
      181.0,      10.90,    13.11,     8.60,     9.39,    12.53
      182.0,      10.88,    13.09,     8.57,     9.37,    12.50
      183.0,      10.86,    13.07,     8.55,     9.35,    12.47
      184.0,      10.84,    13.05,     8.52,     9.34,    12.44
      185.0,      10.81,    13.03,     8.50,     9.32,    12.41
      186.0,      10.79,    13.01,     8.47,     9.31,    12.38
      187.0,      10.77,    12.99,     8.45,     9.29,    12.35
      188.0,      10.75,    12.97,     8.43,     9.27,    12.33
      189.0,      10.73,    12.95,     8.40,     9.26,    12.30
      190.0,      10.71,    12.93,     8.38,     9.24,    12.27
      191.0,      10.69,    12.91,     8.36,     9.23,    12.24
      192.0,      10.66,    12.90,     8.33,     9.21,    12.22
      193.0,      10.64,    12.88,     8.31,     9.20,    12.19
      194.0,      10.62,    12.86,     8.29,     9.18,    12.16
      195.0,      10.60,    12.84,     8.27,     9.16,    12.14
      196.0,      10.58,    12.82,     8.25,     9.15,    12.11
      197.0,      10.56,    12.81,     8.22,     9.13,    12.08
      198.0,      10.54,    12.79,     8.20,     9.12,    12.06
      199.0,      10.52,    12.77,     8.18,     9.10,    12.03
      200.0,      10.50,    12.75,     8.16,     9.09,    12.00
      201.0,      10.48,    12.74,     8.14,     9.07,    11.98
      202.0,      10.46,    12.72,     8.12,     9.06,    11.95
      203.0,      10.44,    12.70,     8.10,     9.04,    11.93
      204.0,      10.42,    12.68,     8.08,     9.03,    11.90
      205.0,      10.40,    12.67,     8.06,     9.01,    11.88
      206.0,      10.39,    12.65,     8.04,     9.00,    11.85
      207.0,      10.37,    12.64,     8.02,     8.98,    11.83
      208.0,      10.35,    12.62,     8.00,     8.97,    11.80
      209.0,      10.33,    12.60,     7.98,     8.95,    11.78
      210.0,      10.31,    12.59,     7.97,     8.94,    11.75
      211.0,      10.29,    12.57,     7.95,     8.92,    11.73
      212.0,      10.27,    12.55,     7.93,     8.91,    11.71
      213.0,      10.26,    12.54,     7.91,     8.89,    11.68
      214.0,      10.24,    12.52,     7.89,     8.88,    11.66
      215.0,      10.22,    12.51,     7.88,     8.86,    11.63
      216.0,      10.20,    12.49,     7.86,     8.85,    11.61
      217.0,      10.18,    12.48,     7.84,     8.83,    11.59
      218.0,      10.17,    12.46,     7.82,     8.82,    11.56
      219.0,      10.15,    12.44,     7.81,     8.80,    11.54
      220.0,      10.13,    12.43,     7.79,     8.79,    11.52
      221.0,      10.11,    12.41,     7.77,     8.77,    11.49
      222.0,      10.10,    12.40,     7.76,     8.76,    11.47
      223.0,      10.08,    12.38,     7.74,     8.74,    11.45
      224.0,      10.06,    12.37,     7.72,     8.73,    11.42
      225.0,      10.04,    12.35,     7.71,     8.72,    11.40
      226.0,      10.03,    12.34,     7.69,     8.70,    11.38
      227.0,      10.01,    12.32,     7.67,     8.69,    11.35
      228.0,       9.99,    12.31,     7.66,     8.67,    11.33
      229.0,       9.98,    12.29,     7.64,     8.66,    11.31
      230.0,       9.96,    12.28,     7.63,     8.64,    11.29
      231.0,       9.94,    12.27,     7.61,     8.63,    11.27
      232.0,       9.93,    12.25,     7.60,     8.61,    11.24
      233.0,       9.91,    12.24,     7.58,     8.60,    11.22
      234.0,       9.89,    12.22,     7.57,     8.59,    11.20
      235.0,       9.88,    12.21,     7.55,     8.57,    11.18
      236.0,       9.86,    12.19,     7.54,     8.56,    11.16
      237.0,       9.85,    12.18,     7.52,     8.54,    11.13
      238.0,       9.83,    12.17,     7.51,     8.53,    11.11
      239.0,       9.81,    12.15,     7.49,     8.51,    11.09
      240.0,       9.80,    12.14,     7.48,     8.50,    11.07
      241.0,       9.78,    12.12,     7.47,     8.49,    11.05
      242.0,       9.77,    12.11,     7.45,     8.47,    11.03
      243.0,       9.75,    12.10,     7.44,     8.46,    11.00
      244.0,       9.73,    12.08,     7.43,     8.44,    10.98
      245.0,       9.72,    12.07,     7.41,     8.43,    10.96
      246.0,       9.70,    12.06,     7.40,     8.42,    10.94
      247.0,       9.69,    12.04,     7.39,     8.40,    10.92
      248.0,       9.67,    12.03,     7.37,     8.39,    10.90
      249.0,       9.66,    12.02,     7.36,     8.38,    10.88
      250.0,       9.64,    12.00,     7.35,     8.36,    10.86
      251.0,       9.63,    11.99,     7.33,     8.35,    10.84
      252.0,       9.61,    11.98,     7.32,     8.33,    10.82
      253.0,       9.60,    11.96,     7.31,     8.32,    10.80
      254.0,       9.58,    11.95,     7.29,     8.31,    10.78
      255.0,       9.57,    11.94,     7.28,     8.29,    10.75
      256.0,       9.55,    11.92,     7.27,     8.28,    10.73
      257.0,       9.54,    11.91,     7.26,     8.26,    10.71
      258.0,       9.52,    11.90,     7.25,     8.25,    10.69
      259.0,       9.51,    11.88,     7.23,     8.24,    10.67
      260.0,       9.49,    11.87,     7.22,     8.22,    10.65
      261.0,       9.48,    11.86,     7.21,     8.21,    10.63
      262.0,       9.46,    11.84,     7.20,     8.20,    10.61
      263.0,       9.45,    11.83,     7.19,     8.18,    10.59
      264.0,       9.43,    11.82,     7.17,     8.17,    10.57
      265.0,       9.42,    11.81,     7.16,     8.16,    10.55
      266.0,       9.41,    11.79,     7.15,     8.14,    10.53
      267.0,       9.39,    11.78,     7.14,     8.13,    10.51
      268.0,       9.38,    11.77,     7.13,     8.12,    10.50
      269.0,       9.36,    11.75,     7.12,     8.10,    10.48
      270.0,       9.35,    11.74,     7.11,     8.09,    10.46
      271.0,       9.33,    11.73,     7.09,     8.08,    10.44
      272.0,       9.32,    11.72,     7.08,     8.06,    10.42
      273.0,       9.31,    11.70,     7.07,     8.05,    10.40
      274.0,       9.29,    11.69,     7.06,     8.04,    10.38
      275.0,       9.28,    11.68,     7.05,     8.02,    10.36
      276.0,       9.26,    11.67,     7.04,     8.01,    10.34
      277.0,       9.25,    11.65,     7.03,     8.00,    10.32
      278.0,       9.24,    11.64,     7.02,     7.98,    10.30
      279.0,       9.22,    11.63,     7.01,     7.97,    10.28
      280.0,       9.21,    11.62,     7.00,     7.96,    10.26
      281.0,       9.19,    11.61,     6.99,     7.94,    10.24
      282.0,       9.18,    11.59,     6.98,     7.93,    10.23
      283.0,       9.17,    11.58,     6.97,     7.92,    10.21
      284.0,       9.15,    11.57,     6.96,     7.90,    10.19
      285.0,       9.14,    11.56,     6.95,     7.89,    10.17
      286.0,       9.13,    11.54,     6.94,     7.88,    10.15
      287.0,       9.11,    11.53,     6.93,     7.87,    10.13
      288.0,       9.10,    11.52,     6.92,     7.85,    10.11
      289.0,       9.09,    11.51,     6.91,     7.84,    10.09
      290.0,       9.07,    11.50,     6.90,     7.83,    10.08
      291.0,       9.06,    11.48,     6.89,     7.81,    10.06
      292.0,       9.05,    11.47,     6.88,     7.80,    10.04
      293.0,       9.03,    11.46,     6.87,     7.79,    10.02
      294.0,       9.02,    11.45,     6.86,     7.78,    10.00
      295.0,       9.01,    11.44,     6.85,     7.76,     9.98
      296.0,       8.99,    11.42,     6.84,     7.75,     9.97
      297.0,       8.98,    11.41,     6.83,     7.74,     9.95
      298.0,       8.97,    11.40,     6.82,     7.72,     9.93
      299.0,       8.95,    11.39,     6.81,     7.71,     9.91
      300.0,       8.94,    11.38,     6.80,     7.70,     9.89
      301.0,       8.93,    11.36,     6.79,     7.69,     9.88
      302.0,       8.92,    11.35,     6.78,     7.67,     9.86
      303.0,       8.90,    11.34,     6.77,     7.66,     9.84
      304.0,       8.89,    11.33,     6.76,     7.65,     9.82
      305.0,       8.88,    11.32,     6.75,     7.64,     9.80
      306.0,       8.86,    11.31,     6.74,     7.62,     9.79
      307.0,       8.85,    11.29,     6.74,     7.61,     9.77
      308.0,       8.84,    11.28,     6.73,     7.60,     9.75
      309.0,       8.83,    11.27,     6.72,     7.59,     9.73
      310.0,       8.81,    11.26,     6.71,     7.57,     9.71
