Radius (km), Mean (m/s), NE (m/s), SE (m/s), SW (m/s), NW (m/s)
        0.0,       0.00,     0.00,     0.00,     0.00,     0.00
        1.0,       2.96,     2.58,     3.16,     3.20,     2.88
        2.0,       5.51,     5.21,     5.68,     5.69,     5.47
        3.0,       8.02,     7.96,     8.10,     8.02,     8.01
        4.0,      10.63,    10.98,    10.56,    10.35,    10.64
        5.0,      13.45,    14.36,    13.20,    12.80,    13.46
        6.0,      16.55,    18.16,    16.06,    15.44,    16.52
        7.0,      19.90,    22.36,    19.13,    18.28,    19.84
        8.0,      23.45,    26.84,    22.34,    21.28,    23.35
        9.0,      27.07,    31.42,    25.57,    24.34,    26.95
       10.0,      30.57,    35.85,    28.66,    27.31,    30.47
       11.0,      33.79,    39.90,    31.46,    30.05,    33.75
       12.0,      36.56,    43.35,    33.83,    32.42,    36.63
       13.0,      38.75,    46.06,    35.66,    34.30,    38.99
       14.0,      40.31,    47.93,    36.91,    35.64,    40.76
       15.0,      41.22,    48.97,    37.59,    36.42,    41.92
       16.0,      41.56,    49.27,    37.76,    36.69,    42.51
       17.0,      41.41,    48.96,    37.52,    36.53,    42.63
       18.0,      40.92,    48.23,    36.98,    36.06,    42.40
       19.0,      40.20,    47.23,    36.27,    35.38,    41.93
       20.0,      39.38,    46.11,    35.48,    34.60,    41.34
       21.0,      38.55,    44.98,    34.69,    33.80,    40.72
       22.0,      37.74,    43.90,    33.93,    33.03,    40.10
       23.0,      36.97,    42.88,    33.20,    32.29,    39.51
       24.0,      36.24,    41.90,    32.52,    31.59,    38.95
       25.0,      35.53,    40.97,    31.86,    30.92,    38.39
       26.0,      34.85,    40.06,    31.22,    30.27,    37.85
       27.0,      34.20,    39.20,    30.61,    29.65,    37.33
       28.0,      33.56,    38.36,    30.03,    29.04,    36.81
       29.0,      32.94,    37.56,    29.46,    28.46,    36.30
       30.0,      32.35,    36.78,    28.92,    27.89,    35.81
       31.0,      31.78,    36.04,    28.40,    27.35,    35.32
       32.0,      31.22,    35.32,    27.90,    26.82,    34.84
       33.0,      30.68,    34.63,    27.41,    26.31,    34.38
       34.0,      30.16,    33.97,    26.95,    25.82,    33.92
       35.0,      29.66,    33.33,    26.50,    25.35,    33.47
       36.0,      29.18,    32.71,    26.07,    24.89,    33.03
       37.0,      28.71,    32.12,    25.66,    24.45,    32.60
       38.0,      28.25,    31.55,    25.26,    24.02,    32.18
       39.0,      27.81,    31.00,    24.88,    23.61,    31.77
       40.0,      27.39,    30.47,    24.51,    23.21,    31.37
       41.0,      26.98,    29.96,    24.15,    22.82,    30.97
       42.0,      26.58,    29.47,    23.81,    22.45,    30.58
       43.0,      26.20,    29.00,    23.48,    22.09,    30.21
       44.0,      25.82,    28.55,    23.16,    21.75,    29.83
       45.0,      25.46,    28.11,    22.86,    21.41,    29.47
       46.0,      25.11,    27.69,    22.57,    21.09,    29.11
       47.0,      24.78,    27.28,    22.28,    20.77,    28.76
       48.0,      24.45,    26.89,    22.01,    20.47,    28.42
       49.0,      24.13,    26.51,    21.75,    20.18,    28.09
       50.0,      23.83,    26.15,    21.50,    19.90,    27.76
       51.0,      23.53,    25.80,    21.25,    19.62,    27.43
       52.0,      23.24,    25.46,    21.02,    19.36,    27.12
       53.0,      22.96,    25.14,    20.80,    19.10,    26.81
       54.0,      22.69,    24.82,    20.58,    18.86,    26.51
       55.0,      22.43,    24.52,    20.37,    18.62,    26.21
       56.0,      22.18,    24.23,    20.17,    18.39,    25.92
       57.0,      21.93,    23.95,    19.97,    18.17,    25.64
       58.0,      21.69,    23.68,    19.79,    17.95,    25.36
       59.0,      21.46,    23.42,    19.60,    17.74,    25.08
       60.0,      21.24,    23.17,    19.43,    17.54,    24.82
       61.0,      21.02,    22.93,    19.26,    17.34,    24.55
       62.0,      20.81,    22.69,    19.10,    17.16,    24.30
       63.0,      20.61,    22.47,    18.94,    16.97,    24.04
       64.0,      20.41,    22.25,    18.79,    16.80,    23.80
       65.0,      20.22,    22.04,    18.65,    16.63,    23.55
       66.0,      20.03,    21.84,    18.51,    16.46,    23.32
       67.0,      19.85,    21.65,    18.37,    16.30,    23.08
       68.0,      19.68,    21.46,    18.24,    16.15,    22.86
       69.0,      19.51,    21.28,    18.12,    16.00,    22.63
       70.0,      19.34,    21.10,    17.99,    15.85,    22.41
       71.0,      19.18,    20.93,    17.88,    15.71,    22.20
       72.0,      19.02,    20.77,    17.76,    15.58,    21.99
       73.0,      18.87,    20.61,    17.65,    15.45,    21.78
       74.0,      18.73,    20.46,    17.55,    15.32,    21.58
       75.0,      18.58,    20.31,    17.45,    15.20,    21.38
       76.0,      18.45,    20.17,    17.35,    15.08,    21.19
       77.0,      18.31,    20.03,    17.25,    14.96,    21.00
       78.0,      18.18,    19.90,    17.16,    14.85,    20.81
       79.0,      18.05,    19.77,    17.07,    14.74,    20.63
       80.0,      17.93,    19.65,    16.98,    14.64,    20.45
       81.0,      17.81,    19.53,    16.90,    14.53,    20.28
       82.0,      17.69,    19.41,    16.82,    14.44,    20.10
       83.0,      17.58,    19.30,    16.74,    14.34,    19.93
       84.0,      17.47,    19.19,    16.66,    14.25,    19.77
       85.0,      17.36,    19.09,    16.59,    14.16,    19.61
       86.0,      17.25,    18.98,    16.52,    14.07,    19.45
       87.0,      17.15,    18.89,    16.45,    13.99,    19.29
       88.0,      17.05,    18.79,    16.38,    13.90,    19.14
       89.0,      16.96,    18.70,    16.32,    13.82,    18.99
       90.0,      16.86,    18.61,    16.26,    13.75,    18.84
       91.0,      16.77,    18.52,    16.19,    13.67,    18.70
       92.0,      16.68,    18.44,    16.13,    13.60,    18.55
       93.0,      16.60,    18.36,    16.08,    13.53,    18.42
       94.0,      16.51,    18.28,    16.02,    13.46,    18.28
       95.0,      16.43,    18.20,    15.97,    13.39,    18.15
       96.0,      16.35,    18.13,    15.92,    13.33,    18.02
       97.0,      16.27,    18.06,    15.86,    13.27,    17.89
       98.0,      16.19,    17.99,    15.81,    13.20,    17.76
       99.0,      16.12,    17.92,    15.77,    13.14,    17.64
      100.0,      16.04,    17.86,    15.72,    13.09,    17.52
      101.0,      15.97,    17.79,    15.67,    13.03,    17.40
      102.0,      15.90,    17.73,    15.63,    12.98,    17.28
      103.0,      15.84,    17.67,    15.59,    12.92,    17.17
      104.0,      15.77,    17.61,    15.54,    12.87,    17.05
      105.0,      15.71,    17.55,    15.50,    12.82,    16.94
      106.0,      15.64,    17.50,    15.46,    12.77,    16.84
      107.0,      15.58,    17.45,    15.42,    12.72,    16.73
      108.0,      15.52,    17.39,    15.39,    12.68,    16.63
      109.0,      15.46,    17.34,    15.35,    12.63,    16.52
      110.0,      15.40,    17.29,    15.31,    12.59,    16.42
      111.0,      15.35,    17.24,    15.28,    12.55,    16.33
      112.0,      15.29,    17.20,    15.24,    12.50,    16.23
      113.0,      15.24,    17.15,    15.21,    12.46,    16.13
      114.0,      15.19,    17.11,    15.18,    12.42,    16.04
      115.0,      15.14,    17.06,    15.14,    12.38,    15.95
      116.0,      15.08,    17.02,    15.11,    12.35,    15.86
      117.0,      15.04,    16.98,    15.08,    12.31,    15.77
      118.0,      14.99,    16.94,    15.05,    12.27,    15.69
      119.0,      14.94,    16.90,    15.02,    12.24,    15.60
      120.0,      14.89,    16.86,    14.99,    12.20,    15.52
      121.0,      14.85,    16.82,    14.96,    12.17,    15.44
      122.0,      14.80,    16.79,    14.93,    12.14,    15.36
      123.0,      14.76,    16.75,    14.91,    12.10,    15.28
      124.0,      14.72,    16.71,    14.88,    12.07,    15.20
      125.0,      14.67,    16.68,    14.85,    12.04,    15.12
      126.0,      14.63,    16.65,    14.83,    12.01,    15.05
      127.0,      14.59,    16.61,    14.80,    11.98,    14.98
      128.0,      14.55,    16.58,    14.78,    11.95,    14.90
      129.0,      14.51,    16.55,    14.75,    11.93,    14.83
      130.0,      14.48,    16.52,    14.73,    11.90,    14.76
      131.0,      14.44,    16.49,    14.71,    11.87,    14.69
      132.0,      14.40,    16.46,    14.68,    11.84,    14.63
      133.0,      14.37,    16.43,    14.66,    11.82,    14.56
      134.0,      14.33,    16.40,    14.64,    11.79,    14.50
      135.0,      14.30,    16.37,    14.61,    11.77,    14.43
      136.0,      14.26,    16.34,    14.59,    11.74,    14.37
      137.0,      14.23,    16.31,    14.57,    11.72,    14.31
      138.0,      14.19,    16.29,    14.55,    11.70,    14.25
      139.0,      14.16,    16.26,    14.53,    11.67,    14.19
      140.0,      14.13,    16.23,    14.51,    11.65,    14.13
      141.0,      14.10,    16.21,    14.49,    11.63,    14.07
      142.0,      14.07,    16.18,    14.47,    11.60,    14.02
      143.0,      14.04,    16.16,    14.45,    11.58,    13.96
      144.0,      14.01,    16.13,    14.43,    11.56,    13.91
      145.0,      13.98,    16.11,    14.41,    11.54,    13.85
      146.0,      13.95,    16.08,    14.39,    11.52,    13.80
      147.0,      13.92,    16.06,    14.37,    11.50,    13.75
      148.0,      13.89,    16.04,    14.35,    11.48,    13.70
      149.0,      13.86,    16.01,    14.33,    11.46,    13.65
      150.0,      13.84,    15.99,    14.31,    11.44,    13.60
      151.0,      13.81,    15.97,    14.29,    11.42,    13.55
      152.0,      13.78,    15.95,    14.28,    11.40,    13.50
      153.0,      13.75,    15.92,    14.26,    11.38,    13.45
      154.0,      13.73,    15.90,    14.24,    11.36,    13.41
      155.0,      13.70,    15.88,    14.22,    11.34,    13.36
      156.0,      13.68,    15.86,    14.20,    11.33,    13.32
      157.0,      13.65,    15.84,    14.19,    11.31,    13.27
      158.0,      13.63,    15.82,    14.17,    11.29,    13.23
      159.0,      13.60,    15.80,    14.15,    11.27,    13.19
      160.0,      13.58,    15.78,    14.14,    11.26,    13.15
      161.0,      13.56,    15.76,    14.12,    11.24,    13.10
      162.0,      13.53,    15.74,    14.10,    11.22,    13.06
      163.0,      13.51,    15.72,    14.09,    11.21,    13.02
      164.0,      13.49,    15.70,    14.07,    11.19,    12.98
      165.0,      13.46,    15.68,    14.05,    11.17,    12.94
      166.0,      13.44,    15.66,    14.04,    11.16,    12.91
      167.0,      13.42,    15.64,    14.02,    11.14,    12.87
      168.0,      13.40,    15.62,    14.00,    11.13,    12.83
      169.0,      13.37,    15.60,    13.99,    11.11,    12.79
      170.0,      13.35,    15.58,    13.97,    11.10,    12.76
      171.0,      13.33,    15.57,    13.96,    11.08,    12.72
      172.0,      13.31,    15.55,    13.94,    11.06,    12.69
      173.0,      13.29,    15.53,    13.93,    11.05,    12.65
      174.0,      13.27,    15.51,    13.91,    11.03,    12.62
      175.0,      13.25,    15.49,    13.89,    11.02,    12.59
      176.0,      13.23,    15.47,    13.88,    11.01,    12.55
      177.0,      13.21,    15.46,    13.86,    10.99,    12.52
      178.0,      13.19,    15.44,    13.85,    10.98,    12.49
      179.0,      13.17,    15.42,    13.83,    10.96,    12.46
      180.0,      13.15,    15.40,    13.82,    10.95,    12.42
      181.0,      13.13,    15.39,    13.80,    10.93,    12.39
      182.0,      13.11,    15.37,    13.79,    10.92,    12.36
      183.0,      13.09,    15.35,    13.77,    10.91,    12.33
      184.0,      13.07,    15.33,    13.76,    10.89,    12.30
      185.0,      13.05,    15.32,    13.74,    10.88,    12.27
      186.0,      13.03,    15.30,    13.73,    10.86,    12.24
      187.0,      13.02,    15.28,    13.71,    10.85,    12.22
      188.0,      13.00,    15.27,    13.70,    10.84,    12.19
      189.0,      12.98,    15.25,    13.69,    10.82,    12.16
      190.0,      12.96,    15.23,    13.67,    10.81,    12.13
      191.0,      12.94,    15.22,    13.66,    10.80,    12.11
      192.0,      12.93,    15.20,    13.64,    10.78,    12.08
      193.0,      12.91,    15.18,    13.63,    10.77,    12.05
      194.0,      12.89,    15.17,    13.61,    10.76,    12.03
      195.0,      12.87,    15.15,    13.60,    10.74,    12.00
      196.0,      12.86,    15.14,    13.58,    10.73,    11.98
      197.0,      12.84,    15.12,    13.57,    10.72,    11.95
      198.0,      12.82,    15.10,    13.56,    10.71,    11.93
      199.0,      12.81,    15.09,    13.54,    10.69,    11.90
      200.0,      12.79,    15.07,    13.53,    10.68,    11.88
      201.0,      12.77,    15.05,    13.51,    10.67,    11.85
      202.0,      12.76,    15.04,    13.50,    10.66,    11.83
      203.0,      12.74,    15.02,    13.49,    10.64,    11.81
      204.0,      12.72,    15.01,    13.47,    10.63,    11.78
      205.0,      12.71,    14.99,    13.46,    10.62,    11.76
      206.0,      12.69,    14.98,    13.44,    10.61,    11.74
      207.0,      12.67,    14.96,    13.43,    10.59,    11.71
      208.0,      12.66,    14.94,    13.42,    10.58,    11.69
      209.0,      12.64,    14.93,    13.40,    10.57,    11.67
      210.0,      12.63,    14.91,    13.39,    10.56,    11.65
      211.0,      12.61,    14.90,    13.37,    10.54,    11.63
      212.0,      12.60,    14.88,    13.36,    10.53,    11.61
      213.0,      12.58,    14.87,    13.35,    10.52,    11.58
      214.0,      12.56,    14.85,    13.33,    10.51,    11.56
      215.0,      12.55,    14.84,    13.32,    10.50,    11.54
      216.0,      12.53,    14.82,    13.31,    10.48,    11.52
      217.0,      12.52,    14.81,    13.29,    10.47,    11.50
      218.0,      12.50,    14.79,    13.28,    10.46,    11.48
      219.0,      12.49,    14.77,    13.27,    10.45,    11.46
      220.0,      12.47,    14.76,    13.25,    10.44,    11.44
      221.0,      12.46,    14.74,    13.24,    10.43,    11.42
      222.0,      12.44,    14.73,    13.23,    10.41,    11.40
      223.0,      12.43,    14.71,    13.21,    10.40,    11.39
      224.0,      12.41,    14.70,    13.20,    10.39,    11.37
      225.0,      12.40,    14.68,    13.18,    10.38,    11.35
      226.0,      12.38,    14.67,    13.17,    10.37,    11.33
      227.0,      12.37,    14.65,    13.16,    10.36,    11.31
      228.0,      12.36,    14.64,    13.14,    10.34,    11.29
      229.0,      12.34,    14.62,    13.13,    10.33,    11.28
      230.0,      12.33,    14.61,    13.12,    10.32,    11.26
      231.0,      12.31,    14.59,    13.10,    10.31,    11.24
      232.0,      12.30,    14.58,    13.09,    10.30,    11.22
      233.0,      12.28,    14.56,    13.08,    10.29,    11.20
      234.0,      12.27,    14.55,    13.07,    10.28,    11.19
      235.0,      12.26,    14.53,    13.05,    10.26,    11.17
      236.0,      12.24,    14.52,    13.04,    10.25,    11.15
      237.0,      12.23,    14.51,    13.03,    10.24,    11.14
      238.0,      12.21,    14.49,    13.01,    10.23,    11.12
      239.0,      12.20,    14.48,    13.00,    10.22,    11.10
      240.0,      12.19,    14.46,    12.99,    10.21,    11.09
      241.0,      12.17,    14.45,    12.97,    10.20,    11.07
      242.0,      12.16,    14.43,    12.96,    10.19,    11.05
      243.0,      12.14,    14.42,    12.95,    10.17,    11.04
      244.0,      12.13,    14.40,    12.93,    10.16,    11.02
      245.0,      12.12,    14.39,    12.92,    10.15,    11.01
      246.0,      12.10,    14.37,    12.91,    10.14,    10.99
      247.0,      12.09,    14.36,    12.90,    10.13,    10.98
      248.0,      12.08,    14.34,    12.88,    10.12,    10.96
      249.0,      12.06,    14.33,    12.87,    10.11,    10.94
      250.0,      12.05,    14.32,    12.86,    10.10,    10.93
      251.0,      12.04,    14.30,    12.84,    10.09,    10.91
      252.0,      12.02,    14.29,    12.83,    10.07,    10.90
      253.0,      12.01,    14.27,    12.82,    10.06,    10.88
      254.0,      12.00,    14.26,    12.80,    10.05,    10.87
      255.0,      11.98,    14.24,    12.79,    10.04,    10.85
      256.0,      11.97,    14.23,    12.78,    10.03,    10.84
      257.0,      11.96,    14.21,    12.77,    10.02,    10.83
      258.0,      11.94,    14.20,    12.75,    10.01,    10.81
      259.0,      11.93,    14.19,    12.74,    10.00,    10.80
      260.0,      11.92,    14.17,    12.73,     9.99,    10.78
      261.0,      11.90,    14.16,    12.71,     9.98,    10.77
      262.0,      11.89,    14.14,    12.70,     9.97,    10.75
      263.0,      11.88,    14.13,    12.69,     9.96,    10.74
      264.0,      11.87,    14.12,    12.68,     9.94,    10.73
      265.0,      11.85,    14.10,    12.66,     9.93,    10.71
      266.0,      11.84,    14.09,    12.65,     9.92,    10.70
      267.0,      11.83,    14.07,    12.64,     9.91,    10.68
      268.0,      11.81,    14.06,    12.63,     9.90,    10.67
      269.0,      11.80,    14.04,    12.61,     9.89,    10.66
      270.0,      11.79,    14.03,    12.60,     9.88,    10.64
      271.0,      11.78,    14.02,    12.59,     9.87,    10.63
      272.0,      11.76,    14.00,    12.58,     9.86,    10.62
      273.0,      11.75,    13.99,    12.56,     9.85,    10.60
      274.0,      11.74,    13.97,    12.55,     9.84,    10.59
      275.0,      11.73,    13.96,    12.54,     9.83,    10.58
      276.0,      11.71,    13.95,    12.53,     9.82,    10.56
      277.0,      11.70,    13.93,    12.51,     9.81,    10.55
      278.0,      11.69,    13.92,    12.50,     9.79,    10.54
      279.0,      11.68,    13.90,    12.49,     9.78,    10.53
      280.0,      11.66,    13.89,    12.47,     9.77,    10.51
      281.0,      11.65,    13.88,    12.46,     9.76,    10.50
      282.0,      11.64,    13.86,    12.45,     9.75,    10.49
      283.0,      11.63,    13.85,    12.44,     9.74,    10.47
      284.0,      11.61,    13.83,    12.43,     9.73,    10.46
      285.0,      11.60,    13.82,    12.41,     9.72,    10.45
      286.0,      11.59,    13.81,    12.40,     9.71,    10.44
      287.0,      11.58,    13.79,    12.39,     9.70,    10.42
      288.0,      11.56,    13.78,    12.38,     9.69,    10.41
      289.0,      11.55,    13.77,    12.36,     9.68,    10.40
      290.0,      11.54,    13.75,    12.35,     9.67,    10.39
      291.0,      11.53,    13.74,    12.34,     9.66,    10.37
      292.0,      11.52,    13.72,    12.33,     9.65,    10.36
      293.0,      11.50,    13.71,    12.31,     9.64,    10.35
      294.0,      11.49,    13.70,    12.30,     9.63,    10.34
      295.0,      11.48,    13.68,    12.29,     9.62,    10.33
      296.0,      11.47,    13.67,    12.28,     9.61,    10.31
      297.0,      11.45,    13.66,    12.26,     9.60,    10.30
      298.0,      11.44,    13.64,    12.25,     9.59,    10.29
      299.0,      11.43,    13.63,    12.24,     9.58,    10.28
      300.0,      11.42,    13.61,    12.23,     9.57,    10.27
      301.0,      11.41,    13.60,    12.22,     9.56,    10.26
      302.0,      11.39,    13.59,    12.20,     9.55,    10.24
      303.0,      11.38,    13.57,    12.19,     9.53,    10.23
      304.0,      11.37,    13.56,    12.18,     9.52,    10.22
      305.0,      11.36,    13.55,    12.17,     9.51,    10.21
      306.0,      11.35,    13.53,    12.15,     9.50,    10.20
      307.0,      11.34,    13.52,    12.14,     9.49,    10.19
      308.0,      11.32,    13.51,    12.13,     9.48,    10.17
      309.0,      11.31,    13.49,    12.12,     9.47,    10.16
      310.0,      11.30,    13.48,    12.11,     9.46,    10.15
