Radius (km), Mean (m/s), NE (m/s), SE (m/s), SW (m/s), NW (m/s)
        0.0,       0.00,     0.00,     0.00,     0.00,     0.00
        1.0,       2.40,     2.29,     2.47,     2.45,     2.37
        2.0,       3.76,     3.79,     3.78,     3.64,     3.83
        3.0,       4.90,     5.09,     4.86,     4.59,     5.07
        4.0,       5.92,     6.28,     5.80,     5.40,     6.19
        5.0,       6.85,     7.39,     6.65,     6.13,     7.22
        6.0,       7.72,     8.43,     7.45,     6.80,     8.19
        7.0,       8.54,     9.43,     8.19,     7.43,     9.11
        8.0,       9.32,    10.40,     8.89,     8.01,    10.00
        9.0,      10.08,    11.33,     9.56,     8.57,    10.84
       10.0,      10.80,    12.23,    10.20,     9.10,    11.67
       11.0,      11.50,    13.11,    10.82,     9.61,    12.46
       12.0,      12.18,    13.96,    11.42,    10.09,    13.23
       13.0,      12.84,    14.80,    11.99,    10.56,    13.99
       14.0,      13.48,    15.62,    12.56,    11.02,    14.73
       15.0,      14.11,    16.43,    13.10,    11.46,    15.45
       16.0,      14.72,    17.22,    13.63,    11.89,    16.15
       17.0,      15.34,    18.02,    14.17,    12.31,    16.85
       18.0,      15.96,    18.87,    14.72,    12.73,    17.53
       19.0,      16.62,    19.78,    15.32,    13.16,    18.24
       20.0,      17.34,    20.80,    15.98,    13.61,    18.97
       21.0,      18.12,    21.92,    16.70,    14.10,    19.77
       22.0,      18.96,    23.11,    17.49,    14.62,    20.62
       23.0,      19.83,    24.34,    18.30,    15.16,    21.51
       24.0,      20.69,    25.53,    19.09,    15.71,    22.44
       25.0,      21.51,    26.64,    19.83,    16.23,    23.34
       26.0,      22.24,    27.60,    20.47,    16.71,    24.19
       27.0,      22.84,    28.35,    20.96,    17.12,    24.93
       28.0,      23.29,    28.87,    21.30,    17.44,    25.54
       29.0,      23.57,    29.17,    21.48,    17.66,    25.99
       30.0,      23.70,    29.24,    21.49,    17.79,    26.26
       31.0,      23.68,    29.14,    21.38,    17.83,    26.38
       32.0,      23.56,    28.90,    21.17,    17.80,    26.37
       33.0,      23.36,    28.57,    20.90,    17.71,    26.25
       34.0,      23.12,    28.21,    20.60,    17.60,    26.07
       35.0,      22.86,    27.84,    20.29,    17.47,    25.86
       36.0,      22.61,    27.48,    19.99,    17.35,    25.64
       37.0,      22.37,    27.14,    19.70,    17.22,    25.42
       38.0,      22.15,    26.81,    19.43,    17.11,    25.23
       39.0,      21.93,    26.50,    19.17,    17.01,    25.04
       40.0,      21.72,    26.21,    18.92,    16.90,    24.86
       41.0,      21.52,    25.92,    18.68,    16.80,    24.69
       42.0,      21.33,    25.64,    18.45,    16.71,    24.52
       43.0,      21.15,    25.38,    18.23,    16.61,    24.36
       44.0,      20.97,    25.12,    18.02,    16.52,    24.20
       45.0,      20.79,    24.87,    17.81,    16.43,    24.05
       46.0,      20.62,    24.63,    17.62,    16.34,    23.89
       47.0,      20.46,    24.40,    17.42,    16.26,    23.75
       48.0,      20.30,    24.18,    17.24,    16.18,    23.60
       49.0,      20.15,    23.97,    17.06,    16.10,    23.46
       50.0,      20.00,    23.76,    16.89,    16.02,    23.32
       51.0,      19.86,    23.56,    16.73,    15.95,    23.19
       52.0,      19.72,    23.37,    16.57,    15.87,    23.06
       53.0,      19.58,    23.19,    16.42,    15.80,    22.93
       54.0,      19.45,    23.01,    16.27,    15.73,    22.80
       55.0,      19.33,    22.83,    16.13,    15.66,    22.68
       56.0,      19.20,    22.67,    15.99,    15.60,    22.56
       57.0,      19.08,    22.51,    15.86,    15.53,    22.44
       58.0,      18.97,    22.35,    15.73,    15.47,    22.33
       59.0,      18.86,    22.20,    15.61,    15.40,    22.21
       60.0,      18.75,    22.06,    15.49,    15.34,    22.10
       61.0,      18.64,    21.92,    15.38,    15.28,    21.99
       62.0,      18.54,    21.78,    15.27,    15.23,    21.89
       63.0,      18.44,    21.65,    15.16,    15.17,    21.78
       64.0,      18.34,    21.52,    15.06,    15.11,    21.68
       65.0,      18.25,    21.40,    14.96,    15.06,    21.58
       66.0,      18.16,    21.28,    14.86,    15.01,    21.48
       67.0,      18.07,    21.17,    14.77,    14.96,    21.38
       68.0,      17.98,    21.06,    14.68,    14.90,    21.29
       69.0,      17.90,    20.95,    14.59,    14.85,    21.19
       70.0,      17.81,    20.85,    14.51,    14.81,    21.10
       71.0,      17.73,    20.74,    14.43,    14.76,    21.01
       72.0,      17.66,    20.65,    14.35,    14.71,    20.92
       73.0,      17.58,    20.55,    14.27,    14.66,    20.83
       74.0,      17.51,    20.46,    14.20,    14.62,    20.74
       75.0,      17.43,    20.37,    14.13,    14.57,    20.66
       76.0,      17.36,    20.29,    14.06,    14.53,    20.57
       77.0,      17.29,    20.20,    14.00,    14.49,    20.49
       78.0,      17.23,    20.12,    13.93,    14.44,    20.41
       79.0,      17.16,    20.04,    13.87,    14.40,    20.33
       80.0,      17.10,    19.97,    13.81,    14.36,    20.25
       81.0,      17.03,    19.89,    13.75,    14.32,    20.17
       82.0,      16.97,    19.82,    13.69,    14.28,    20.09
       83.0,      16.91,    19.75,    13.64,    14.24,    20.01
       84.0,      16.85,    19.68,    13.59,    14.20,    19.94
       85.0,      16.79,    19.62,    13.53,    14.16,    19.86
       86.0,      16.74,    19.55,    13.48,    14.13,    19.79
       87.0,      16.68,    19.49,    13.44,    14.09,    19.71
       88.0,      16.63,    19.43,    13.39,    14.05,    19.64
       89.0,      16.58,    19.37,    13.34,    14.02,    19.57
       90.0,      16.52,    19.31,    13.30,    13.98,    19.50
       91.0,      16.47,    19.26,    13.26,    13.95,    19.43
       92.0,      16.42,    19.20,    13.21,    13.91,    19.36
       93.0,      16.37,    19.15,    13.17,    13.88,    19.29
       94.0,      16.33,    19.10,    13.13,    13.84,    19.22
       95.0,      16.28,    19.05,    13.10,    13.81,    19.16
       96.0,      16.23,    19.00,    13.06,    13.78,    19.09
       97.0,      16.19,    18.95,    13.02,    13.74,    19.02
       98.0,      16.14,    18.90,    12.99,    13.71,    18.96
       99.0,      16.10,    18.86,    12.95,    13.68,    18.89
      100.0,      16.05,    18.81,    12.92,    13.65,    18.83
      101.0,      16.01,    18.77,    12.88,    13.62,    18.77
      102.0,      15.97,    18.73,    12.85,    13.58,    18.70
      103.0,      15.92,    18.68,    12.82,    13.55,    18.64
      104.0,      15.88,    18.64,    12.79,    13.52,    18.58
      105.0,      15.84,    18.60,    12.76,    13.49,    18.52
      106.0,      15.80,    18.56,    12.73,    13.46,    18.46
      107.0,      15.76,    18.52,    12.70,    13.43,    18.40
      108.0,      15.73,    18.49,    12.68,    13.40,    18.34
      109.0,      15.69,    18.45,    12.65,    13.37,    18.28
      110.0,      15.65,    18.41,    12.62,    13.34,    18.22
      111.0,      15.61,    18.38,    12.60,    13.32,    18.16
      112.0,      15.57,    18.34,    12.57,    13.29,    18.10
      113.0,      15.54,    18.31,    12.55,    13.26,    18.04
      114.0,      15.50,    18.27,    12.52,    13.23,    17.98
      115.0,      15.47,    18.24,    12.50,    13.20,    17.93
      116.0,      15.43,    18.21,    12.47,    13.17,    17.87
      117.0,      15.40,    18.17,    12.45,    13.15,    17.81
      118.0,      15.36,    18.14,    12.43,    13.12,    17.76
      119.0,      15.33,    18.11,    12.41,    13.09,    17.70
      120.0,      15.29,    18.08,    12.38,    13.06,    17.65
      121.0,      15.26,    18.05,    12.36,    13.04,    17.59
      122.0,      15.23,    18.02,    12.34,    13.01,    17.54
      123.0,      15.19,    17.99,    12.32,    12.98,    17.48
      124.0,      15.16,    17.96,    12.30,    12.96,    17.43
      125.0,      15.13,    17.93,    12.28,    12.93,    17.37
      126.0,      15.10,    17.91,    12.26,    12.91,    17.32
      127.0,      15.07,    17.88,    12.24,    12.88,    17.27
      128.0,      15.03,    17.85,    12.22,    12.85,    17.21
      129.0,      15.00,    17.82,    12.20,    12.83,    17.16
      130.0,      14.97,    17.80,    12.19,    12.80,    17.11
      131.0,      14.94,    17.77,    12.17,    12.78,    17.06
      132.0,      14.91,    17.74,    12.15,    12.75,    17.00
      133.0,      14.88,    17.72,    12.13,    12.73,    16.95
      134.0,      14.85,    17.69,    12.11,    12.70,    16.90
      135.0,      14.82,    17.67,    12.10,    12.67,    16.85
      136.0,      14.79,    17.64,    12.08,    12.65,    16.80
      137.0,      14.76,    17.62,    12.06,    12.63,    16.75
      138.0,      14.73,    17.59,    12.05,    12.60,    16.70
      139.0,      14.71,    17.57,    12.03,    12.58,    16.65
      140.0,      14.68,    17.54,    12.01,    12.55,    16.60
      141.0,      14.65,    17.52,    12.00,    12.53,    16.55
      142.0,      14.62,    17.50,    11.98,    12.50,    16.50
      143.0,      14.59,    17.47,    11.97,    12.48,    16.45
      144.0,      14.56,    17.45,    11.95,    12.45,    16.40
      145.0,      14.54,    17.43,    11.94,    12.43,    16.35
      146.0,      14.51,    17.40,    11.92,    12.41,    16.30
      147.0,      14.48,    17.38,    11.91,    12.38,    16.25
      148.0,      14.45,    17.36,    11.89,    12.36,    16.20
      149.0,      14.42,    17.34,    11.88,    12.33,    16.15
      150.0,      14.40,    17.31,    11.86,    12.31,    16.11
      151.0,      14.37,    17.29,    11.85,    12.29,    16.06
      152.0,      14.34,    17.27,    11.83,    12.26,    16.01
      153.0,      14.32,    17.25,    11.82,    12.24,    15.96
      154.0,      14.29,    17.23,    11.80,    12.22,    15.92
      155.0,      14.26,    17.20,    11.79,    12.19,    15.87
      156.0,      14.24,    17.18,    11.78,    12.17,    15.82
      157.0,      14.21,    17.16,    11.76,    12.15,    15.78
      158.0,      14.19,    17.14,    11.75,    12.12,    15.73
      159.0,      14.16,    17.12,    11.73,    12.10,    15.68
      160.0,      14.13,    17.10,    11.72,    12.08,    15.64
      161.0,      14.11,    17.08,    11.71,    12.05,    15.59
      162.0,      14.08,    17.06,    11.69,    12.03,    15.54
      163.0,      14.06,    17.04,    11.68,    12.01,    15.50
      164.0,      14.03,    17.02,    11.67,    11.99,    15.45
      165.0,      14.00,    17.00,    11.65,    11.96,    15.41
      166.0,      13.98,    16.97,    11.64,    11.94,    15.36
      167.0,      13.95,    16.95,    11.63,    11.92,    15.32
      168.0,      13.93,    16.93,    11.61,    11.90,    15.27
      169.0,      13.90,    16.91,    11.60,    11.87,    15.23
      170.0,      13.88,    16.89,    11.59,    11.85,    15.18
      171.0,      13.85,    16.87,    11.58,    11.83,    15.14
      172.0,      13.83,    16.85,    11.56,    11.81,    15.09
      173.0,      13.80,    16.84,    11.55,    11.78,    15.05
      174.0,      13.78,    16.82,    11.54,    11.76,    15.01
      175.0,      13.76,    16.80,    11.53,    11.74,    14.96
      176.0,      13.73,    16.78,    11.51,    11.72,    14.92
      177.0,      13.71,    16.76,    11.50,    11.70,    14.87
      178.0,      13.68,    16.74,    11.49,    11.67,    14.83
      179.0,      13.66,    16.72,    11.48,    11.65,    14.79
      180.0,      13.63,    16.70,    11.46,    11.63,    14.74
      181.0,      13.61,    16.68,    11.45,    11.61,    14.70
      182.0,      13.59,    16.66,    11.44,    11.59,    14.66
      183.0,      13.56,    16.64,    11.43,    11.57,    14.62
      184.0,      13.54,    16.62,    11.41,    11.54,    14.57
      185.0,      13.51,    16.60,    11.40,    11.52,    14.53
      186.0,      13.49,    16.58,    11.39,    11.50,    14.49
      187.0,      13.47,    16.57,    11.38,    11.48,    14.45
      188.0,      13.44,    16.55,    11.37,    11.46,    14.40
      189.0,      13.42,    16.53,    11.35,    11.44,    14.36
      190.0,      13.40,    16.51,    11.34,    11.41,    14.32
      191.0,      13.37,    16.49,    11.33,    11.39,    14.28
      192.0,      13.35,    16.47,    11.32,    11.37,    14.24
      193.0,      13.33,    16.45,    11.31,    11.35,    14.19
      194.0,      13.30,    16.43,    11.30,    11.33,    14.15
      195.0,      13.28,    16.42,    11.28,    11.31,    14.11
      196.0,      13.26,    16.40,    11.27,    11.29,    14.07
      197.0,      13.23,    16.38,    11.26,    11.27,    14.03
      198.0,      13.21,    16.36,    11.25,    11.25,    13.99
      199.0,      13.19,    16.34,    11.24,    11.22,    13.95
      200.0,      13.17,    16.32,    11.23,    11.20,    13.91
      201.0,      13.14,    16.31,    11.21,    11.18,    13.87
      202.0,      13.12,    16.29,    11.20,    11.16,    13.83
      203.0,      13.10,    16.27,    11.19,    11.14,    13.79
      204.0,      13.07,    16.25,    11.18,    11.12,    13.75
      205.0,      13.05,    16.23,    11.17,    11.10,    13.71
      206.0,      13.03,    16.22,    11.16,    11.08,    13.67
      207.0,      13.01,    16.20,    11.14,    11.06,    13.63
      208.0,      12.98,    16.18,    11.13,    11.04,    13.59
      209.0,      12.96,    16.16,    11.12,    11.02,    13.55
      210.0,      12.94,    16.14,    11.11,    11.00,    13.51
      211.0,      12.92,    16.13,    11.10,    10.98,    13.47
      212.0,      12.90,    16.11,    11.09,    10.96,    13.43
      213.0,      12.87,    16.09,    11.08,    10.94,    13.39
      214.0,      12.85,    16.07,    11.07,    10.92,    13.35
      215.0,      12.83,    16.05,    11.05,    10.90,    13.31
      216.0,      12.81,    16.04,    11.04,    10.88,    13.28
      217.0,      12.79,    16.02,    11.03,    10.86,    13.24
      218.0,      12.76,    16.00,    11.02,    10.84,    13.20
      219.0,      12.74,    15.98,    11.01,    10.82,    13.16
      220.0,      12.72,    15.97,    11.00,    10.80,    13.12
      221.0,      12.70,    15.95,    10.99,    10.77,    13.08
      222.0,      12.68,    15.93,    10.98,    10.76,    13.05
      223.0,      12.66,    15.91,    10.96,    10.74,    13.01
      224.0,      12.63,    15.89,    10.95,    10.72,    12.97
      225.0,      12.61,    15.88,    10.94,    10.70,    12.93
      226.0,      12.59,    15.86,    10.93,    10.68,    12.90
      227.0,      12.57,    15.84,    10.92,    10.66,    12.86
      228.0,      12.55,    15.82,    10.91,    10.64,    12.82
      229.0,      12.53,    15.81,    10.90,    10.62,    12.78
      230.0,      12.51,    15.79,    10.89,    10.60,    12.75
      231.0,      12.48,    15.77,    10.88,    10.58,    12.71
      232.0,      12.46,    15.76,    10.86,    10.56,    12.67
      233.0,      12.44,    15.74,    10.85,    10.54,    12.64
      234.0,      12.42,    15.72,    10.84,    10.52,    12.60
      235.0,      12.40,    15.70,    10.83,    10.50,    12.56
      236.0,      12.38,    15.69,    10.82,    10.48,    12.53
      237.0,      12.36,    15.67,    10.81,    10.46,    12.49
      238.0,      12.34,    15.65,    10.80,    10.44,    12.45
      239.0,      12.32,    15.63,    10.79,    10.42,    12.42
      240.0,      12.29,    15.62,    10.78,    10.40,    12.38
      241.0,      12.27,    15.60,    10.77,    10.38,    12.35
      242.0,      12.25,    15.58,    10.76,    10.36,    12.31
      243.0,      12.23,    15.57,    10.75,    10.34,    12.27
      244.0,      12.21,    15.55,    10.73,    10.33,    12.24
      245.0,      12.19,    15.53,    10.72,    10.31,    12.20
      246.0,      12.17,    15.51,    10.71,    10.29,    12.17
      247.0,      12.15,    15.50,    10.70,    10.27,    12.13
      248.0,      12.13,    15.48,    10.69,    10.25,    12.10
      249.0,      12.11,    15.46,    10.68,    10.23,    12.06
      250.0,      12.09,    15.45,    10.67,    10.21,    12.03
      251.0,      12.07,    15.43,    10.66,    10.19,    11.99
      252.0,      12.05,    15.41,    10.65,    10.17,    11.96
      253.0,      12.03,    15.40,    10.64,    10.15,    11.92
      254.0,      12.01,    15.38,    10.63,    10.14,    11.89
      255.0,      11.99,    15.36,    10.62,    10.12,    11.85
      256.0,      11.97,    15.35,    10.61,    10.10,    11.82
      257.0,      11.95,    15.33,    10.60,    10.08,    11.79
      258.0,      11.93,    15.31,    10.58,    10.06,    11.75
      259.0,      11.91,    15.30,    10.57,    10.04,    11.72
      260.0,      11.89,    15.28,    10.56,    10.02,    11.68
      261.0,      11.87,    15.26,    10.55,    10.00,    11.65
      262.0,      11.85,    15.24,    10.54,     9.99,    11.62
      263.0,      11.83,    15.23,    10.53,     9.97,    11.58
      264.0,      11.81,    15.21,    10.52,     9.95,    11.55
      265.0,      11.79,    15.19,    10.51,     9.93,    11.52
      266.0,      11.77,    15.18,    10.50,     9.91,    11.48
      267.0,      11.75,    15.16,    10.49,     9.89,    11.45
      268.0,      11.73,    15.15,    10.48,     9.88,    11.42
      269.0,      11.71,    15.13,    10.47,     9.86,    11.38
      270.0,      11.69,    15.11,    10.46,     9.84,    11.35
      271.0,      11.67,    15.10,    10.45,     9.82,    11.32
      272.0,      11.65,    15.08,    10.44,     9.80,    11.28
      273.0,      11.63,    15.06,    10.43,     9.78,    11.25
      274.0,      11.61,    15.05,    10.42,     9.77,    11.22
      275.0,      11.59,    15.03,    10.41,     9.75,    11.19
      276.0,      11.57,    15.01,    10.40,     9.73,    11.15
      277.0,      11.55,    15.00,    10.38,     9.71,    11.12
      278.0,      11.53,    14.98,    10.37,     9.69,    11.09
      279.0,      11.52,    14.96,    10.36,     9.68,    11.06
      280.0,      11.50,    14.95,    10.35,     9.66,    11.03
      281.0,      11.48,    14.93,    10.34,     9.64,    10.99
      282.0,      11.46,    14.91,    10.33,     9.62,    10.96
      283.0,      11.44,    14.90,    10.32,     9.61,    10.93
      284.0,      11.42,    14.88,    10.31,     9.59,    10.90
      285.0,      11.40,    14.87,    10.30,     9.57,    10.87
      286.0,      11.38,    14.85,    10.29,     9.55,    10.84
      287.0,      11.36,    14.83,    10.28,     9.53,    10.80
      288.0,      11.34,    14.82,    10.27,     9.52,    10.77
      289.0,      11.33,    14.80,    10.26,     9.50,    10.74
      290.0,      11.31,    14.78,    10.25,     9.48,    10.71
      291.0,      11.29,    14.77,    10.24,     9.46,    10.68
      292.0,      11.27,    14.75,    10.23,     9.45,    10.65
      293.0,      11.25,    14.74,    10.22,     9.43,    10.62
      294.0,      11.23,    14.72,    10.21,     9.41,    10.59
      295.0,      11.21,    14.70,    10.20,     9.39,    10.56
      296.0,      11.19,    14.69,    10.19,     9.38,    10.53
      297.0,      11.18,    14.67,    10.18,     9.36,    10.50
      298.0,      11.16,    14.66,    10.17,     9.34,    10.46
      299.0,      11.14,    14.64,    10.16,     9.32,    10.43
      300.0,      11.12,    14.62,    10.15,     9.31,    10.40
      301.0,      11.10,    14.61,    10.14,     9.29,    10.37
      302.0,      11.08,    14.59,    10.13,     9.27,    10.34
      303.0,      11.07,    14.58,    10.12,     9.26,    10.31
      304.0,      11.05,    14.56,    10.11,     9.24,    10.28
      305.0,      11.03,    14.54,    10.10,     9.22,    10.25
      306.0,      11.01,    14.53,    10.09,     9.20,    10.22
      307.0,      10.99,    14.51,    10.08,     9.19,    10.20
      308.0,      10.98,    14.50,    10.07,     9.17,    10.17
      309.0,      10.96,    14.48,    10.06,     9.15,    10.14
      310.0,      10.94,    14.46,    10.05,     9.14,    10.11
