Radius (km), Mean (m/s), NE (m/s), SE (m/s), SW (m/s), NW (m/s)
        0.0,       0.00,     0.00,     0.00,     0.00,     0.00
        1.0,       2.57,     2.51,     2.63,     2.60,     2.54
        2.0,       4.02,     4.10,     4.02,     3.87,     4.10
        3.0,       5.23,     5.46,     5.15,     4.87,     5.43
        4.0,       6.30,     6.70,     6.15,     5.74,     6.63
        5.0,       7.29,     7.84,     7.05,     6.52,     7.73
        6.0,       8.20,     8.93,     7.88,     7.24,     8.77
        7.0,       9.07,     9.96,     8.67,     7.90,     9.75
        8.0,       9.89,    10.95,     9.41,     8.53,    10.70
        9.0,      10.68,    11.90,    10.11,     9.12,    11.60
       10.0,      11.44,    12.82,    10.79,     9.69,    12.48
       11.0,      12.18,    13.72,    11.44,    10.23,    13.33
       12.0,      12.89,    14.59,    12.07,    10.75,    14.15
       13.0,      13.58,    15.44,    12.67,    11.25,    14.96
       14.0,      14.26,    16.29,    13.27,    11.74,    15.75
       15.0,      14.94,    17.17,    13.87,    12.22,    16.52
       16.0,      15.65,    18.09,    14.50,    12.70,    17.30
       17.0,      16.39,    19.10,    15.17,    13.19,    18.11
       18.0,      17.19,    20.20,    15.90,    13.71,    18.96
       19.0,      18.04,    21.38,    16.68,    14.26,    19.85
       20.0,      18.92,    22.59,    17.50,    14.82,    20.79
       21.0,      19.81,    23.79,    18.31,    15.38,    21.75
       22.0,      20.66,    24.92,    19.08,    15.93,    22.70
       23.0,      21.43,    25.90,    19.77,    16.44,    23.59
       24.0,      22.08,    26.71,    20.33,    16.89,    24.38
       25.0,      22.59,    27.29,    20.75,    17.26,    25.05
       26.0,      22.95,    27.65,    21.01,    17.55,    25.57
       27.0,      23.15,    27.79,    21.11,    17.74,    25.94
       28.0,      23.21,    27.75,    21.08,    17.86,    26.15
       29.0,      23.16,    27.57,    20.94,    17.90,    26.24
       30.0,      23.03,    27.29,    20.73,    17.89,    26.22
       31.0,      22.86,    26.96,    20.47,    17.85,    26.14
       32.0,      22.66,    26.62,    20.19,    17.79,    26.02
       33.0,      22.46,    26.28,    19.92,    17.73,    25.90
       34.0,      22.26,    25.96,    19.65,    17.67,    25.77
       35.0,      22.08,    25.66,    19.40,    17.62,    25.66
       36.0,      21.91,    25.36,    19.16,    17.56,    25.55
       37.0,      21.74,    25.08,    18.92,    17.51,    25.45
       38.0,      21.57,    24.80,    18.69,    17.46,    25.35
       39.0,      21.41,    24.52,    18.46,    17.41,    25.25
       40.0,      21.25,    24.26,    18.24,    17.36,    25.14
       41.0,      21.09,    24.00,    18.02,    17.31,    25.04
       42.0,      20.94,    23.75,    17.80,    17.27,    24.94
       43.0,      20.79,    23.50,    17.59,    17.22,    24.84
       44.0,      20.64,    23.27,    17.39,    17.17,    24.75
       45.0,      20.50,    23.03,    17.19,    17.12,    24.65
       46.0,      20.35,    22.81,    16.99,    17.07,    24.55
       47.0,      20.21,    22.59,    16.80,    17.02,    24.45
       48.0,      20.08,    22.37,    16.61,    16.97,    24.35
       49.0,      19.94,    22.16,    16.43,    16.92,    24.26
       50.0,      19.81,    21.96,    16.25,    16.87,    24.16
       51.0,      19.68,    21.76,    16.07,    16.83,    24.06
       52.0,      19.55,    21.56,    15.90,    16.78,    23.97
       53.0,      19.43,    21.38,    15.73,    16.73,    23.87
       54.0,      19.30,    21.19,    15.56,    16.68,    23.78
       55.0,      19.18,    21.01,    15.40,    16.63,    23.68
       56.0,      19.06,    20.84,    15.24,    16.59,    23.59
       57.0,      18.94,    20.67,    15.08,    16.54,    23.49
       58.0,      18.83,    20.50,    14.93,    16.49,    23.40
       59.0,      18.72,    20.34,    14.78,    16.45,    23.30
       60.0,      18.61,    20.18,    14.63,    16.40,    23.21
       61.0,      18.50,    20.02,    14.49,    16.35,    23.12
       62.0,      18.39,    19.87,    14.35,    16.30,    23.03
       63.0,      18.28,    19.73,    14.21,    16.26,    22.94
       64.0,      18.18,    19.58,    14.07,    16.21,    22.84
       65.0,      18.08,    19.44,    13.94,    16.17,    22.75
       66.0,      17.98,    19.31,    13.81,    16.12,    22.66
       67.0,      17.88,    19.18,    13.69,    16.07,    22.57
       68.0,      17.78,    19.05,    13.56,    16.03,    22.48
       69.0,      17.68,    18.92,    13.44,    15.98,    22.39
       70.0,      17.59,    18.80,    13.32,    15.94,    22.30
       71.0,      17.50,    18.67,    13.20,    15.89,    22.21
       72.0,      17.40,    18.56,    13.09,    15.85,    22.12
       73.0,      17.31,    18.44,    12.98,    15.80,    22.04
       74.0,      17.22,    18.33,    12.87,    15.76,    21.95
       75.0,      17.14,    18.22,    12.76,    15.71,    21.86
       76.0,      17.05,    18.11,    12.65,    15.67,    21.77
       77.0,      16.97,    18.01,    12.55,    15.62,    21.69
       78.0,      16.88,    17.91,    12.45,    15.58,    21.60
       79.0,      16.80,    17.81,    12.35,    15.53,    21.51
       80.0,      16.72,    17.71,    12.25,    15.49,    21.43
       81.0,      16.64,    17.61,    12.15,    15.44,    21.34
       82.0,      16.56,    17.52,    12.06,    15.40,    21.26
       83.0,      16.48,    17.43,    11.97,    15.36,    21.17
       84.0,      16.41,    17.34,    11.88,    15.31,    21.09
       85.0,      16.33,    17.25,    11.79,    15.27,    21.00
       86.0,      16.25,    17.17,    11.70,    15.23,    20.92
       87.0,      16.18,    17.09,    11.62,    15.18,    20.84
       88.0,      16.11,    17.00,    11.54,    15.14,    20.75
       89.0,      16.04,    16.92,    11.46,    15.10,    20.67
       90.0,      15.97,    16.85,    11.38,    15.05,    20.59
       91.0,      15.90,    16.77,    11.30,    15.01,    20.51
       92.0,      15.83,    16.70,    11.22,    14.97,    20.42
       93.0,      15.76,    16.62,    11.15,    14.92,    20.34
       94.0,      15.69,    16.55,    11.07,    14.88,    20.26
       95.0,      15.63,    16.48,    11.00,    14.84,    20.18
       96.0,      15.56,    16.41,    10.93,    14.80,    20.10
       97.0,      15.50,    16.35,    10.86,    14.75,    20.02
       98.0,      15.43,    16.28,    10.79,    14.71,    19.94
       99.0,      15.37,    16.22,    10.72,    14.67,    19.86
      100.0,      15.31,    16.15,    10.66,    14.63,    19.78
      101.0,      15.24,    16.09,    10.59,    14.59,    19.70
      102.0,      15.18,    16.03,    10.53,    14.55,    19.62
      103.0,      15.12,    15.97,    10.47,    14.50,    19.55
      104.0,      15.06,    15.91,    10.41,    14.46,    19.47
      105.0,      15.00,    15.86,    10.35,    14.42,    19.39
      106.0,      14.95,    15.80,    10.29,    14.38,    19.31
      107.0,      14.89,    15.75,    10.23,    14.34,    19.24
      108.0,      14.83,    15.69,    10.18,    14.30,    19.16
      109.0,      14.78,    15.64,    10.12,    14.26,    19.08
      110.0,      14.72,    15.59,    10.07,    14.22,    19.01
      111.0,      14.67,    15.54,    10.01,    14.18,    18.93
      112.0,      14.61,    15.49,     9.96,    14.14,    18.86
      113.0,      14.56,    15.44,     9.91,    14.10,    18.78
      114.0,      14.50,    15.39,     9.86,    14.06,    18.71
      115.0,      14.45,    15.34,     9.81,    14.02,    18.63
      116.0,      14.40,    15.30,     9.76,    13.98,    18.56
      117.0,      14.35,    15.25,     9.71,    13.94,    18.48
      118.0,      14.30,    15.21,     9.67,    13.90,    18.41
      119.0,      14.25,    15.16,     9.62,    13.86,    18.34
      120.0,      14.19,    15.12,     9.58,    13.82,    18.26
      121.0,      14.15,    15.08,     9.53,    13.78,    18.19
      122.0,      14.10,    15.04,     9.49,    13.74,    18.12
      123.0,      14.05,    14.99,     9.45,    13.70,    18.05
      124.0,      14.00,    14.95,     9.40,    13.66,    17.97
      125.0,      13.95,    14.91,     9.36,    13.62,    17.90
      126.0,      13.90,    14.88,     9.32,    13.59,    17.83
      127.0,      13.86,    14.84,     9.28,    13.55,    17.76
      128.0,      13.81,    14.80,     9.24,    13.51,    17.69
      129.0,      13.76,    14.76,     9.21,    13.47,    17.62
      130.0,      13.72,    14.73,     9.17,    13.43,    17.55
      131.0,      13.67,    14.69,     9.13,    13.39,    17.48
      132.0,      13.63,    14.65,     9.09,    13.36,    17.41
      133.0,      13.58,    14.62,     9.06,    13.32,    17.34
      134.0,      13.54,    14.58,     9.02,    13.28,    17.27
      135.0,      13.50,    14.55,     8.99,    13.24,    17.20
      136.0,      13.45,    14.52,     8.96,    13.21,    17.13
      137.0,      13.41,    14.48,     8.92,    13.17,    17.06
      138.0,      13.37,    14.45,     8.89,    13.13,    17.00
      139.0,      13.32,    14.42,     8.86,    13.09,    16.93
      140.0,      13.28,    14.39,     8.83,    13.06,    16.86
      141.0,      13.24,    14.35,     8.79,    13.02,    16.79
      142.0,      13.20,    14.32,     8.76,    12.98,    16.73
      143.0,      13.16,    14.29,     8.73,    12.95,    16.66
      144.0,      13.12,    14.26,     8.70,    12.91,    16.59
      145.0,      13.08,    14.23,     8.67,    12.87,    16.53
      146.0,      13.04,    14.20,     8.65,    12.84,    16.46
      147.0,      13.00,    14.17,     8.62,    12.80,    16.40
      148.0,      12.96,    14.14,     8.59,    12.76,    16.33
      149.0,      12.92,    14.12,     8.56,    12.73,    16.27
      150.0,      12.88,    14.09,     8.54,    12.69,    16.20
      151.0,      12.84,    14.06,     8.51,    12.66,    16.14
      152.0,      12.80,    14.03,     8.48,    12.62,    16.07
      153.0,      12.76,    14.01,     8.46,    12.58,    16.01
      154.0,      12.73,    13.98,     8.43,    12.55,    15.94
      155.0,      12.69,    13.95,     8.41,    12.51,    15.88
      156.0,      12.65,    13.93,     8.38,    12.48,    15.82
      157.0,      12.61,    13.90,     8.36,    12.44,    15.75
      158.0,      12.58,    13.87,     8.33,    12.41,    15.69
      159.0,      12.54,    13.85,     8.31,    12.37,    15.63
      160.0,      12.50,    13.82,     8.29,    12.34,    15.57
      161.0,      12.47,    13.80,     8.27,    12.30,    15.50
      162.0,      12.43,    13.77,     8.24,    12.27,    15.44
      163.0,      12.40,    13.75,     8.22,    12.23,    15.38
      164.0,      12.36,    13.72,     8.20,    12.20,    15.32
      165.0,      12.33,    13.70,     8.18,    12.16,    15.26
      166.0,      12.29,    13.68,     8.16,    12.13,    15.20
      167.0,      12.26,    13.65,     8.14,    12.09,    15.14
      168.0,      12.22,    13.63,     8.12,    12.06,    15.08
      169.0,      12.19,    13.61,     8.10,    12.03,    15.02
      170.0,      12.15,    13.58,     8.08,    11.99,    14.96
      171.0,      12.12,    13.56,     8.06,    11.96,    14.90
      172.0,      12.08,    13.54,     8.04,    11.92,    14.84
      173.0,      12.05,    13.52,     8.02,    11.89,    14.78
      174.0,      12.02,    13.49,     8.00,    11.86,    14.72
      175.0,      11.98,    13.47,     7.98,    11.82,    14.66
      176.0,      11.95,    13.45,     7.96,    11.79,    14.60
      177.0,      11.92,    13.43,     7.94,    11.76,    14.55
      178.0,      11.89,    13.41,     7.93,    11.72,    14.49
      179.0,      11.85,    13.38,     7.91,    11.69,    14.43
      180.0,      11.82,    13.36,     7.89,    11.66,    14.37
      181.0,      11.79,    13.34,     7.87,    11.62,    14.31
      182.0,      11.76,    13.32,     7.86,    11.59,    14.26
      183.0,      11.72,    13.30,     7.84,    11.56,    14.20
      184.0,      11.69,    13.28,     7.82,    11.53,    14.14
      185.0,      11.66,    13.26,     7.81,    11.49,    14.09
      186.0,      11.63,    13.24,     7.79,    11.46,    14.03
      187.0,      11.60,    13.22,     7.77,    11.43,    13.98
      188.0,      11.57,    13.20,     7.76,    11.40,    13.92
      189.0,      11.54,    13.18,     7.74,    11.36,    13.86
      190.0,      11.51,    13.16,     7.73,    11.33,    13.81
      191.0,      11.48,    13.14,     7.71,    11.30,    13.75
      192.0,      11.45,    13.12,     7.70,    11.27,    13.70
      193.0,      11.42,    13.10,     7.68,    11.24,    13.65
      194.0,      11.39,    13.08,     7.67,    11.20,    13.59
      195.0,      11.36,    13.06,     7.65,    11.17,    13.54
      196.0,      11.33,    13.04,     7.64,    11.14,    13.48
      197.0,      11.30,    13.02,     7.62,    11.11,    13.43
      198.0,      11.27,    13.00,     7.61,    11.08,    13.38
      199.0,      11.24,    12.98,     7.60,    11.05,    13.32
      200.0,      11.21,    12.96,     7.58,    11.02,    13.27
      201.0,      11.18,    12.94,     7.57,    10.98,    13.22
      202.0,      11.15,    12.93,     7.56,    10.95,    13.16
      203.0,      11.12,    12.91,     7.54,    10.92,    13.11
      204.0,      11.09,    12.89,     7.53,    10.89,    13.06
      205.0,      11.06,    12.87,     7.52,    10.86,    13.01
      206.0,      11.04,    12.85,     7.50,    10.83,    12.96
      207.0,      11.01,    12.83,     7.49,    10.80,    12.90
      208.0,      10.98,    12.82,     7.48,    10.77,    12.85
      209.0,      10.95,    12.80,     7.47,    10.74,    12.80
      210.0,      10.92,    12.78,     7.45,    10.71,    12.75
      211.0,      10.90,    12.76,     7.44,    10.68,    12.70
      212.0,      10.87,    12.74,     7.43,    10.65,    12.65
      213.0,      10.84,    12.73,     7.42,    10.62,    12.60
      214.0,      10.81,    12.71,     7.41,    10.59,    12.55
      215.0,      10.79,    12.69,     7.39,    10.56,    12.50
      216.0,      10.76,    12.67,     7.38,    10.53,    12.45
      217.0,      10.73,    12.65,     7.37,    10.50,    12.40
      218.0,      10.70,    12.64,     7.36,    10.47,    12.35
      219.0,      10.68,    12.62,     7.35,    10.44,    12.30
      220.0,      10.65,    12.60,     7.34,    10.41,    12.25
      221.0,      10.62,    12.58,     7.32,    10.38,    12.20
      222.0,      10.60,    12.57,     7.31,    10.35,    12.15
      223.0,      10.57,    12.55,     7.30,    10.32,    12.11
      224.0,      10.54,    12.53,     7.29,    10.29,    12.06
      225.0,      10.52,    12.52,     7.28,    10.27,    12.01
      226.0,      10.49,    12.50,     7.27,    10.24,    11.96
      227.0,      10.47,    12.48,     7.26,    10.21,    11.91
      228.0,      10.44,    12.46,     7.25,    10.18,    11.87
      229.0,      10.41,    12.45,     7.24,    10.15,    11.82
      230.0,      10.39,    12.43,     7.23,    10.12,    11.77
      231.0,      10.36,    12.41,     7.22,    10.09,    11.73
      232.0,      10.34,    12.40,     7.21,    10.06,    11.68
      233.0,      10.31,    12.38,     7.20,    10.04,    11.63
      234.0,      10.29,    12.36,     7.19,    10.01,    11.59
      235.0,      10.26,    12.35,     7.18,     9.98,    11.54
      236.0,      10.24,    12.33,     7.17,     9.95,    11.49
      237.0,      10.21,    12.31,     7.16,     9.92,    11.45
      238.0,      10.19,    12.30,     7.15,     9.90,    11.40
      239.0,      10.16,    12.28,     7.14,     9.87,    11.36
      240.0,      10.14,    12.27,     7.13,     9.84,    11.31
      241.0,      10.11,    12.25,     7.12,     9.81,    11.27
      242.0,      10.09,    12.23,     7.11,     9.78,    11.22
      243.0,      10.06,    12.22,     7.10,     9.76,    11.18
      244.0,      10.04,    12.20,     7.09,     9.73,    11.13
      245.0,      10.01,    12.18,     7.08,     9.70,    11.09
      246.0,       9.99,    12.17,     7.07,     9.68,    11.04
      247.0,       9.97,    12.15,     7.06,     9.65,    11.00
      248.0,       9.94,    12.14,     7.05,     9.62,    10.96
      249.0,       9.92,    12.12,     7.04,     9.59,    10.91
      250.0,       9.89,    12.10,     7.03,     9.57,    10.87
      251.0,       9.87,    12.09,     7.03,     9.54,    10.83
      252.0,       9.85,    12.07,     7.02,     9.51,    10.78
      253.0,       9.82,    12.06,     7.01,     9.49,    10.74
      254.0,       9.80,    12.04,     7.00,     9.46,    10.70
      255.0,       9.78,    12.02,     6.99,     9.43,    10.66
      256.0,       9.75,    12.01,     6.98,     9.41,    10.61
      257.0,       9.73,    11.99,     6.97,     9.38,    10.57
      258.0,       9.71,    11.98,     6.96,     9.35,    10.53
      259.0,       9.68,    11.96,     6.95,     9.33,    10.49
      260.0,       9.66,    11.95,     6.95,     9.30,    10.45
      261.0,       9.64,    11.93,     6.94,     9.28,    10.40
      262.0,       9.61,    11.91,     6.93,     9.25,    10.36
      263.0,       9.59,    11.90,     6.92,     9.22,    10.32
      264.0,       9.57,    11.88,     6.91,     9.20,    10.28
      265.0,       9.55,    11.87,     6.90,     9.17,    10.24
      266.0,       9.52,    11.85,     6.90,     9.15,    10.20
      267.0,       9.50,    11.84,     6.89,     9.12,    10.16
      268.0,       9.48,    11.82,     6.88,     9.09,    10.12
      269.0,       9.46,    11.81,     6.87,     9.07,    10.08
      270.0,       9.43,    11.79,     6.86,     9.04,    10.04
      271.0,       9.41,    11.78,     6.85,     9.02,    10.00
      272.0,       9.39,    11.76,     6.85,     8.99,     9.96
      273.0,       9.37,    11.75,     6.84,     8.97,     9.92
      274.0,       9.35,    11.73,     6.83,     8.94,     9.88
      275.0,       9.32,    11.72,     6.82,     8.92,     9.84
      276.0,       9.30,    11.70,     6.81,     8.89,     9.80
      277.0,       9.28,    11.69,     6.81,     8.87,     9.76
      278.0,       9.26,    11.67,     6.80,     8.84,     9.72
      279.0,       9.24,    11.65,     6.79,     8.82,     9.68
      280.0,       9.21,    11.64,     6.78,     8.79,     9.64
      281.0,       9.19,    11.62,     6.77,     8.77,     9.61
      282.0,       9.17,    11.61,     6.77,     8.74,     9.57
      283.0,       9.15,    11.59,     6.76,     8.72,     9.53
      284.0,       9.13,    11.58,     6.75,     8.69,     9.49
      285.0,       9.11,    11.56,     6.74,     8.67,     9.45
      286.0,       9.09,    11.55,     6.74,     8.65,     9.42
      287.0,       9.07,    11.54,     6.73,     8.62,     9.38
      288.0,       9.05,    11.52,     6.72,     8.60,     9.34
      289.0,       9.02,    11.51,     6.71,     8.57,     9.30
      290.0,       9.00,    11.49,     6.71,     8.55,     9.27
      291.0,       8.98,    11.48,     6.70,     8.52,     9.23
      292.0,       8.96,    11.46,     6.69,     8.50,     9.19
      293.0,       8.94,    11.45,     6.68,     8.48,     9.16
      294.0,       8.92,    11.43,     6.68,     8.45,     9.12
      295.0,       8.90,    11.42,     6.67,     8.43,     9.08
      296.0,       8.88,    11.40,     6.66,     8.41,     9.05
      297.0,       8.86,    11.39,     6.65,     8.38,     9.01
      298.0,       8.84,    11.37,     6.65,     8.36,     8.98
      299.0,       8.82,    11.36,     6.64,     8.34,     8.94
      300.0,       8.80,    11.34,     6.63,     8.31,     8.91
      301.0,       8.78,    11.33,     6.62,     8.29,     8.87
      302.0,       8.76,    11.32,     6.62,     8.27,     8.84
      303.0,       8.74,    11.30,     6.61,     8.24,     8.80
      304.0,       8.72,    11.29,     6.60,     8.22,     8.76
      305.0,       8.70,    11.27,     6.60,     8.20,     8.73
      306.0,       8.68,    11.26,     6.59,     8.17,     8.70
      307.0,       8.66,    11.24,     6.58,     8.15,     8.66
      308.0,       8.64,    11.23,     6.57,     8.13,     8.63
      309.0,       8.62,    11.21,     6.57,     8.10,     8.59
      310.0,       8.60,    11.20,     6.56,     8.08,     8.56
