Radius (km), Mean (m/s), NE (m/s), SE (m/s), SW (m/s), NW (m/s)
        0.0,       0.00,     0.00,     0.00,     0.00,     0.00
        1.0,       1.55,     1.46,     1.55,     1.65,     1.55
        2.0,       2.83,     2.71,     2.83,     2.94,     2.83
        3.0,       4.02,     3.90,     4.02,     4.13,     4.02
        4.0,       5.16,     5.05,     5.16,     5.26,     5.16
        5.0,       6.25,     6.17,     6.26,     6.33,     6.26
        6.0,       7.33,     7.26,     7.33,     7.38,     7.33
        7.0,       8.37,     8.34,     8.38,     8.39,     8.38
        8.0,       9.40,     9.40,     9.41,     9.39,     9.41
        9.0,      10.41,    10.45,    10.42,    10.36,    10.42
       10.0,      11.40,    11.48,    11.41,    11.31,    11.41
       11.0,      12.39,    12.51,    12.39,    12.25,    12.39
       12.0,      13.36,    13.52,    13.36,    13.17,    13.36
       13.0,      14.32,    14.53,    14.32,    14.09,    14.32
       14.0,      15.27,    15.53,    15.27,    14.99,    15.27
       15.0,      16.21,    16.52,    16.22,    15.88,    16.22
       16.0,      17.14,    17.50,    17.15,    16.76,    17.15
       17.0,      18.06,    18.48,    18.07,    17.63,    18.07
       18.0,      18.98,    19.45,    18.99,    18.50,    18.99
       19.0,      19.89,    20.41,    19.90,    19.35,    19.90
       20.0,      20.80,    21.38,    20.81,    20.20,    20.81
       21.0,      21.70,    22.33,    21.70,    21.04,    21.70
       22.0,      22.59,    23.28,    22.60,    21.88,    22.60
       23.0,      23.48,    24.23,    23.49,    22.70,    23.49
       24.0,      24.36,    25.17,    24.37,    23.53,    24.37
       25.0,      25.24,    26.11,    25.25,    24.34,    25.25
       26.0,      26.11,    27.04,    26.12,    25.16,    26.12
       27.0,      26.98,    27.97,    26.99,    25.96,    26.99
       28.0,      27.84,    28.90,    27.85,    26.77,    27.85
       29.0,      28.71,    29.83,    28.72,    27.57,    28.73
       30.0,      29.60,    30.79,    29.60,    28.37,    29.63
       31.0,      30.53,    31.80,    30.52,    29.21,    30.59
       32.0,      31.53,    32.88,    31.51,    30.10,    31.63
       33.0,      32.61,    34.04,    32.57,    31.06,    32.75
       34.0,      33.75,    35.27,    33.71,    32.08,    33.94
       35.0,      34.94,    36.55,    34.89,    33.15,    35.15
       36.0,      36.12,    37.82,    36.08,    34.23,    36.35
       37.0,      37.24,    39.03,    37.21,    35.27,    37.47
       38.0,      38.26,    40.12,    38.24,    36.22,    38.46
       39.0,      39.11,    41.04,    39.11,    37.04,    39.28
       40.0,      39.78,    41.76,    39.78,    37.68,    39.90
       41.0,      40.23,    42.25,    40.24,    38.13,    40.31
       42.0,      40.49,    42.54,    40.50,    38.39,    40.52
       43.0,      40.57,    42.65,    40.57,    38.48,    40.57
       44.0,      40.51,    42.61,    40.49,    38.43,    40.50
       45.0,      40.35,    42.47,    40.32,    38.27,    40.34
       46.0,      40.14,    42.28,    40.09,    38.06,    40.14
       47.0,      39.92,    42.07,    39.84,    37.83,    39.93
       48.0,      39.70,    41.87,    39.59,    37.59,    39.73
       49.0,      39.49,    41.69,    39.37,    37.38,    39.55
       50.0,      39.30,    41.52,    39.15,    37.17,    39.37
       51.0,      39.12,    41.35,    38.95,    36.98,    39.20
       52.0,      38.94,    41.19,    38.75,    36.79,    39.03
       53.0,      38.76,    41.03,    38.56,    36.61,    38.86
       54.0,      38.59,    40.87,    38.36,    36.42,    38.69
       55.0,      38.41,    40.71,    38.17,    36.24,    38.52
       56.0,      38.23,    40.54,    37.98,    36.06,    38.35
       57.0,      38.06,    40.39,    37.79,    35.88,    38.18
       58.0,      37.89,    40.23,    37.61,    35.69,    38.02
       59.0,      37.71,    40.07,    37.42,    35.51,    37.85
       60.0,      37.54,    39.91,    37.24,    35.34,    37.69
       61.0,      37.37,    39.75,    37.05,    35.16,    37.52
       62.0,      37.20,    39.60,    36.87,    34.98,    37.36
       63.0,      37.04,    39.44,    36.69,    34.81,    37.20
       64.0,      36.87,    39.28,    36.52,    34.63,    37.04
       65.0,      36.70,    39.13,    36.34,    34.46,    36.88
       66.0,      36.54,    38.98,    36.17,    34.29,    36.72
       67.0,      36.37,    38.82,    35.99,    34.12,    36.56
       68.0,      36.21,    38.67,    35.82,    33.95,    36.40
       69.0,      36.05,    38.52,    35.65,    33.78,    36.24
       70.0,      35.89,    38.37,    35.48,    33.61,    36.09
       71.0,      35.73,    38.22,    35.32,    33.44,    35.93
       72.0,      35.57,    38.07,    35.15,    33.28,    35.78
       73.0,      35.41,    37.92,    34.99,    33.11,    35.62
       74.0,      35.25,    37.77,    34.82,    32.95,    35.47
       75.0,      35.09,    37.62,    34.66,    32.78,    35.31
       76.0,      34.94,    37.47,    34.50,    32.62,    35.16
       77.0,      34.78,    37.32,    34.34,    32.46,    35.01
       78.0,      34.63,    37.18,    34.18,    32.30,    34.86
       79.0,      34.48,    37.03,    34.03,    32.14,    34.71
       80.0,      34.32,    36.89,    33.87,    31.98,    34.56
       81.0,      34.17,    36.74,    33.72,    31.82,    34.41
       82.0,      34.02,    36.60,    33.56,    31.67,    34.27
       83.0,      33.87,    36.45,    33.41,    31.51,    34.12
       84.0,      33.72,    36.31,    33.26,    31.36,    33.97
       85.0,      33.58,    36.17,    33.11,    31.20,    33.83
       86.0,      33.43,    36.03,    32.96,    31.05,    33.68
       87.0,      33.28,    35.88,    32.81,    30.90,    33.54
       88.0,      33.14,    35.74,    32.66,    30.75,    33.40
       89.0,      32.99,    35.60,    32.52,    30.60,    33.25
       90.0,      32.85,    35.46,    32.37,    30.45,    33.11
       91.0,      32.71,    35.32,    32.23,    30.30,    32.97
       92.0,      32.56,    35.19,    32.09,    30.15,    32.83
       93.0,      32.42,    35.05,    31.94,    30.00,    32.69
       94.0,      32.28,    34.91,    31.80,    29.86,    32.55
       95.0,      32.14,    34.77,    31.66,    29.71,    32.41
       96.0,      32.00,    34.64,    31.52,    29.57,    32.28
       97.0,      31.86,    34.50,    31.39,    29.42,    32.14
       98.0,      31.72,    34.37,    31.25,    29.28,    32.00
       99.0,      31.59,    34.23,    31.11,    29.14,    31.87
      100.0,      31.45,    34.10,    30.98,    29.00,    31.73
      101.0,      31.32,    33.97,    30.84,    28.86,    31.60
      102.0,      31.18,    33.83,    30.71,    28.72,    31.47
      103.0,      31.05,    33.70,    30.58,    28.58,    31.33
      104.0,      30.91,    33.57,    30.44,    28.44,    31.20
      105.0,      30.78,    33.44,    30.31,    28.30,    31.07
      106.0,      30.65,    33.31,    30.18,    28.17,    30.94
      107.0,      30.52,    33.18,    30.05,    28.03,    30.81
      108.0,      30.39,    33.05,    29.93,    27.89,    30.68
      109.0,      30.26,    32.92,    29.80,    27.76,    30.55
      110.0,      30.13,    32.79,    29.67,    27.63,    30.42
      111.0,      30.00,    32.66,    29.54,    27.49,    30.29
      112.0,      29.87,    32.53,    29.42,    27.36,    30.17
      113.0,      29.74,    32.41,    29.29,    27.23,    30.04
      114.0,      29.62,    32.28,    29.17,    27.10,    29.91
      115.0,      29.49,    32.15,    29.05,    26.97,    29.79
      116.0,      29.36,    32.03,    28.92,    26.84,    29.66
      117.0,      29.24,    31.90,    28.80,    26.71,    29.54
      118.0,      29.12,    31.78,    28.68,    26.59,    29.42
      119.0,      28.99,    31.65,    28.56,    26.46,    29.29
      120.0,      28.87,    31.53,    28.44,    26.33,    29.17
      121.0,      28.75,    31.41,    28.32,    26.21,    29.05
      122.0,      28.62,    31.28,    28.20,    26.08,    28.93
      123.0,      28.50,    31.16,    28.08,    25.96,    28.81
      124.0,      28.38,    31.04,    27.97,    25.84,    28.69
      125.0,      28.26,    30.92,    27.85,    25.71,    28.57
      126.0,      28.14,    30.80,    27.73,    25.59,    28.45
      127.0,      28.03,    30.68,    27.62,    25.47,    28.33
      128.0,      27.91,    30.56,    27.50,    25.35,    28.22
      129.0,      27.79,    30.44,    27.39,    25.23,    28.10
      130.0,      27.67,    30.32,    27.28,    25.11,    27.98
      131.0,      27.56,    30.20,    27.16,    24.99,    27.87
      132.0,      27.44,    30.09,    27.05,    24.87,    27.75
      133.0,      27.33,    29.97,    26.94,    24.75,    27.64
      134.0,      27.21,    29.85,    26.83,    24.64,    27.52
      135.0,      27.10,    29.74,    26.72,    24.52,    27.41
      136.0,      26.98,    29.62,    26.61,    24.41,    27.30
      137.0,      26.87,    29.51,    26.50,    24.29,    27.19
      138.0,      26.76,    29.39,    26.39,    24.18,    27.07
      139.0,      26.65,    29.28,    26.28,    24.06,    26.96
      140.0,      26.53,    29.16,    26.17,    23.95,    26.85
      141.0,      26.42,    29.05,    26.07,    23.84,    26.74
      142.0,      26.31,    28.94,    25.96,    23.73,    26.63
      143.0,      26.20,    28.82,    25.85,    23.62,    26.52
      144.0,      26.10,    28.71,    25.75,    23.50,    26.41
      145.0,      25.99,    28.60,    25.64,    23.39,    26.31
      146.0,      25.88,    28.49,    25.54,    23.29,    26.20
      147.0,      25.77,    28.38,    25.44,    23.18,    26.09
      148.0,      25.66,    28.27,    25.33,    23.07,    25.99
      149.0,      25.56,    28.16,    25.23,    22.96,    25.88
      150.0,      25.45,    28.05,    25.13,    22.85,    25.77
      151.0,      25.35,    27.94,    25.03,    22.75,    25.67
      152.0,      25.24,    27.83,    24.92,    22.64,    25.57
      153.0,      25.14,    27.72,    24.82,    22.54,    25.46
      154.0,      25.03,    27.62,    24.72,    22.43,    25.36
      155.0,      24.93,    27.51,    24.62,    22.33,    25.26
      156.0,      24.83,    27.40,    24.52,    22.22,    25.15
      157.0,      24.72,    27.30,    24.42,    22.12,    25.05
      158.0,      24.62,    27.19,    24.33,    22.02,    24.95
      159.0,      24.52,    27.08,    24.23,    21.92,    24.85
      160.0,      24.42,    26.98,    24.13,    21.81,    24.75
      161.0,      24.32,    26.88,    24.03,    21.71,    24.65
      162.0,      24.22,    26.77,    23.94,    21.61,    24.55
      163.0,      24.12,    26.67,    23.84,    21.51,    24.45
      164.0,      24.02,    26.56,    23.74,    21.41,    24.35
      165.0,      23.92,    26.46,    23.65,    21.32,    24.25
      166.0,      23.82,    26.36,    23.55,    21.22,    24.16
      167.0,      23.72,    26.26,    23.46,    21.12,    24.06
      168.0,      23.63,    26.15,    23.37,    21.02,    23.96
      169.0,      23.53,    26.05,    23.27,    20.93,    23.87
      170.0,      23.43,    25.95,    23.18,    20.83,    23.77
      171.0,      23.34,    25.85,    23.09,    20.73,    23.68
      172.0,      23.24,    25.75,    22.99,    20.64,    23.58
      173.0,      23.15,    25.65,    22.90,    20.54,    23.49
      174.0,      23.05,    25.55,    22.81,    20.45,    23.39
      175.0,      22.96,    25.45,    22.72,    20.36,    23.30
      176.0,      22.86,    25.36,    22.63,    20.26,    23.21
      177.0,      22.77,    25.26,    22.54,    20.17,    23.12
      178.0,      22.68,    25.16,    22.45,    20.08,    23.02
      179.0,      22.59,    25.06,    22.36,    19.99,    22.93
      180.0,      22.49,    24.97,    22.27,    19.89,    22.84
      181.0,      22.40,    24.87,    22.18,    19.80,    22.75
      182.0,      22.31,    24.77,    22.09,    19.71,    22.66
      183.0,      22.22,    24.68,    22.01,    19.62,    22.57
      184.0,      22.13,    24.58,    21.92,    19.53,    22.48
      185.0,      22.04,    24.49,    21.83,    19.44,    22.39
      186.0,      21.95,    24.39,    21.74,    19.36,    22.31
      187.0,      21.86,    24.30,    21.66,    19.27,    22.22
      188.0,      21.77,    24.21,    21.57,    19.18,    22.13
      189.0,      21.68,    24.11,    21.49,    19.09,    22.04
      190.0,      21.60,    24.02,    21.40,    19.01,    21.96
      191.0,      21.51,    23.93,    21.32,    18.92,    21.87
      192.0,      21.42,    23.83,    21.23,    18.83,    21.78
      193.0,      21.33,    23.74,    21.15,    18.75,    21.70
      194.0,      21.25,    23.65,    21.06,    18.66,    21.61
      195.0,      21.16,    23.56,    20.98,    18.58,    21.53
      196.0,      21.08,    23.47,    20.90,    18.50,    21.44
      197.0,      20.99,    23.38,    20.82,    18.41,    21.36
      198.0,      20.91,    23.29,    20.73,    18.33,    21.28
      199.0,      20.82,    23.20,    20.65,    18.25,    21.19
      200.0,      20.74,    23.11,    20.57,    18.16,    21.11
      201.0,      20.65,    23.02,    20.49,    18.08,    21.03
      202.0,      20.57,    22.93,    20.41,    18.00,    20.95
      203.0,      20.49,    22.84,    20.33,    17.92,    20.87
      204.0,      20.41,    22.75,    20.25,    17.84,    20.79
      205.0,      20.32,    22.67,    20.17,    17.76,    20.70
      206.0,      20.24,    22.58,    20.09,    17.68,    20.62
      207.0,      20.16,    22.49,    20.01,    17.60,    20.54
      208.0,      20.08,    22.41,    19.93,    17.52,    20.47
      209.0,      20.00,    22.32,    19.85,    17.44,    20.39
      210.0,      19.92,    22.23,    19.77,    17.36,    20.31
      211.0,      19.84,    22.15,    19.70,    17.28,    20.23
      212.0,      19.76,    22.06,    19.62,    17.21,    20.15
      213.0,      19.68,    21.98,    19.54,    17.13,    20.07
      214.0,      19.60,    21.89,    19.46,    17.05,    20.00
      215.0,      19.52,    21.81,    19.39,    16.98,    19.92
      216.0,      19.45,    21.73,    19.31,    16.90,    19.84
      217.0,      19.37,    21.64,    19.23,    16.83,    19.77
      218.0,      19.29,    21.56,    19.16,    16.75,    19.69
      219.0,      19.21,    21.48,    19.08,    16.68,    19.62
      220.0,      19.14,    21.39,    19.01,    16.60,    19.54
      221.0,      19.06,    21.31,    18.93,    16.53,    19.47
      222.0,      18.98,    21.23,    18.86,    16.45,    19.39
      223.0,      18.91,    21.15,    18.79,    16.38,    19.32
      224.0,      18.83,    21.07,    18.71,    16.31,    19.24
      225.0,      18.76,    20.99,    18.64,    16.23,    19.17
      226.0,      18.68,    20.91,    18.57,    16.16,    19.10
      227.0,      18.61,    20.83,    18.49,    16.09,    19.03
      228.0,      18.53,    20.75,    18.42,    16.02,    18.95
      229.0,      18.46,    20.67,    18.35,    15.95,    18.88
      230.0,      18.39,    20.59,    18.28,    15.88,    18.81
      231.0,      18.31,    20.51,    18.20,    15.81,    18.74
      232.0,      18.24,    20.43,    18.13,    15.74,    18.67
      233.0,      18.17,    20.35,    18.06,    15.67,    18.60
      234.0,      18.10,    20.27,    17.99,    15.60,    18.53
      235.0,      18.03,    20.19,    17.92,    15.53,    18.46
      236.0,      17.95,    20.12,    17.85,    15.46,    18.39
      237.0,      17.88,    20.04,    17.78,    15.39,    18.32
      238.0,      17.81,    19.96,    17.71,    15.32,    18.25
      239.0,      17.74,    19.89,    17.64,    15.25,    18.18
      240.0,      17.67,    19.81,    17.57,    15.19,    18.11
      241.0,      17.60,    19.74,    17.50,    15.12,    18.05
      242.0,      17.53,    19.66,    17.43,    15.05,    17.98
      243.0,      17.46,    19.58,    17.37,    14.99,    17.91
      244.0,      17.39,    19.51,    17.30,    14.92,    17.85
      245.0,      17.32,    19.43,    17.23,    14.86,    17.78
      246.0,      17.26,    19.36,    17.16,    14.79,    17.71
      247.0,      17.19,    19.29,    17.10,    14.72,    17.65
      248.0,      17.12,    19.21,    17.03,    14.66,    17.58
      249.0,      17.05,    19.14,    16.96,    14.60,    17.52
      250.0,      16.99,    19.07,    16.90,    14.53,    17.45
      251.0,      16.92,    18.99,    16.83,    14.47,    17.39
      252.0,      16.85,    18.92,    16.76,    14.40,    17.32
      253.0,      16.79,    18.85,    16.70,    14.34,    17.26
      254.0,      16.72,    18.78,    16.63,    14.28,    17.19
      255.0,      16.65,    18.70,    16.57,    14.21,    17.13
      256.0,      16.59,    18.63,    16.50,    14.15,    17.07
      257.0,      16.52,    18.56,    16.44,    14.09,    17.00
      258.0,      16.46,    18.49,    16.37,    14.03,    16.94
      259.0,      16.39,    18.42,    16.31,    13.97,    16.88
      260.0,      16.33,    18.35,    16.25,    13.91,    16.82
      261.0,      16.27,    18.28,    16.18,    13.85,    16.76
      262.0,      16.20,    18.21,    16.12,    13.78,    16.69
      263.0,      16.14,    18.14,    16.06,    13.72,    16.63
      264.0,      16.08,    18.07,    15.99,    13.66,    16.57
      265.0,      16.01,    18.00,    15.93,    13.60,    16.51
      266.0,      15.95,    17.93,    15.87,    13.55,    16.45
      267.0,      15.89,    17.87,    15.81,    13.49,    16.39
      268.0,      15.83,    17.80,    15.75,    13.43,    16.33
      269.0,      15.76,    17.73,    15.68,    13.37,    16.27
      270.0,      15.70,    17.66,    15.62,    13.31,    16.21
      271.0,      15.64,    17.59,    15.56,    13.25,    16.15
      272.0,      15.58,    17.53,    15.50,    13.19,    16.10
      273.0,      15.52,    17.46,    15.44,    13.14,    16.04
      274.0,      15.46,    17.39,    15.38,    13.08,    15.98
      275.0,      15.40,    17.33,    15.32,    13.02,    15.92
      276.0,      15.34,    17.26,    15.26,    12.97,    15.86
      277.0,      15.28,    17.20,    15.20,    12.91,    15.81
      278.0,      15.22,    17.13,    15.14,    12.85,    15.75
      279.0,      15.16,    17.06,    15.08,    12.80,    15.69
      280.0,      15.10,    17.00,    15.02,    12.74,    15.64
      281.0,      15.04,    16.94,    14.97,    12.69,    15.58
      282.0,      14.98,    16.87,    14.91,    12.63,    15.53
      283.0,      14.93,    16.81,    14.85,    12.58,    15.47
      284.0,      14.87,    16.74,    14.79,    12.52,    15.41
      285.0,      14.81,    16.68,    14.73,    12.47,    15.36
      286.0,      14.75,    16.62,    14.68,    12.42,    15.30
      287.0,      14.70,    16.55,    14.62,    12.36,    15.25
      288.0,      14.64,    16.49,    14.56,    12.31,    15.20
      289.0,      14.58,    16.43,    14.50,    12.25,    15.14
      290.0,      14.53,    16.36,    14.45,    12.20,    15.09
      291.0,      14.47,    16.30,    14.39,    12.15,    15.03
      292.0,      14.41,    16.24,    14.34,    12.10,    14.98
      293.0,      14.36,    16.18,    14.28,    12.04,    14.93
      294.0,      14.30,    16.12,    14.22,    11.99,    14.88
      295.0,      14.25,    16.06,    14.17,    11.94,    14.82
      296.0,      14.19,    15.99,    14.11,    11.89,    14.77
      297.0,      14.14,    15.93,    14.06,    11.84,    14.72
      298.0,      14.08,    15.87,    14.00,    11.79,    14.67
      299.0,      14.03,    15.81,    13.95,    11.74,    14.61
      300.0,      13.97,    15.75,    13.89,    11.69,    14.56
      301.0,      13.92,    15.69,    13.84,    11.64,    14.51
      302.0,      13.87,    15.63,    13.79,    11.59,    14.46
      303.0,      13.81,    15.57,    13.73,    11.54,    14.41
      304.0,      13.76,    15.52,    13.68,    11.49,    14.36
      305.0,      13.71,    15.46,    13.63,    11.44,    14.31
      306.0,      13.65,    15.40,    13.57,    11.39,    14.26
      307.0,      13.60,    15.34,    13.52,    11.34,    14.21
      308.0,      13.55,    15.28,    13.47,    11.29,    14.16
      309.0,      13.50,    15.22,    13.42,    11.24,    14.11
      310.0,      13.45,    15.17,    13.36,    11.19,    14.06
