Radius (km), Mean (m/s), NE (m/s), SE (m/s), SW (m/s), NW (m/s)
        0.0,       0.00,     0.00,     0.00,     0.00,     0.00
        1.0,       2.32,     2.28,     2.28,     2.44,     2.28
        2.0,       3.99,     3.97,     3.97,     4.06,     3.97
        3.0,       5.48,     5.49,     5.49,     5.46,     5.49
        4.0,       6.87,     6.91,     6.91,     6.75,     6.91
        5.0,       8.18,     8.25,     8.25,     7.95,     8.25
        6.0,       9.43,     9.55,     9.55,     9.08,     9.55
        7.0,      10.64,    10.80,    10.80,    10.17,    10.80
        8.0,      11.81,    12.01,    12.01,    11.22,    12.01
        9.0,      12.95,    13.19,    13.19,    12.23,    13.19
       10.0,      14.07,    14.35,    14.35,    13.21,    14.35
       11.0,      15.16,    15.48,    15.48,    14.17,    15.48
       12.0,      16.23,    16.61,    16.60,    15.10,    16.60
       13.0,      17.30,    17.77,    17.70,    16.02,    17.72
       14.0,      18.41,    19.00,    18.83,    16.95,    18.88
       15.0,      19.60,    20.35,    20.03,    17.91,    20.11
       16.0,      20.90,    21.84,    21.34,    18.95,    21.45
       17.0,      22.32,    23.47,    22.80,    20.10,    22.90
       18.0,      23.84,    25.19,    24.38,    21.34,    24.45
       19.0,      25.41,    26.92,    26.03,    22.65,    26.03
       20.0,      26.95,    28.57,    27.69,    23.96,    27.59
       21.0,      28.39,    30.05,    29.26,    25.22,    29.04
       22.0,      29.64,    31.29,    30.64,    26.33,    30.30
       23.0,      30.63,    32.21,    31.74,    27.24,    31.31
       24.0,      31.31,    32.79,    32.51,    27.89,    32.05
       25.0,      31.68,    33.05,    32.93,    28.26,    32.49
       26.0,      31.76,    33.02,    33.00,    28.36,    32.66
       27.0,      31.59,    32.75,    32.77,    28.21,    32.60
       28.0,      31.22,    32.33,    32.31,    27.87,    32.37
       29.0,      30.73,    31.81,    31.69,    27.39,    32.02
       30.0,      30.18,    31.25,    30.99,    26.85,    31.62
       31.0,      29.62,    30.70,    30.28,    26.28,    31.21
       32.0,      29.07,    30.18,    29.58,    25.72,    30.80
       33.0,      28.56,    29.69,    28.93,    25.20,    30.42
       34.0,      28.08,    29.23,    28.32,    24.72,    30.06
       35.0,      27.62,    28.78,    27.74,    24.26,    29.71
       36.0,      27.18,    28.35,    27.19,    23.82,    29.37
       37.0,      26.76,    27.93,    26.66,    23.40,    29.03
       38.0,      26.34,    27.53,    26.14,    22.99,    28.71
       39.0,      25.95,    27.14,    25.65,    22.60,    28.39
       40.0,      25.56,    26.77,    25.17,    22.22,    28.08
       41.0,      25.19,    26.41,    24.72,    21.86,    27.77
       42.0,      24.83,    26.07,    24.27,    21.51,    27.47
       43.0,      24.48,    25.74,    23.85,    21.17,    27.18
       44.0,      24.15,    25.42,    23.44,    20.84,    26.90
       45.0,      23.82,    25.11,    23.04,    20.53,    26.62
       46.0,      23.51,    24.81,    22.66,    20.22,    26.34
       47.0,      23.21,    24.52,    22.30,    19.93,    26.08
       48.0,      22.91,    24.25,    21.94,    19.64,    25.82
       49.0,      22.63,    23.98,    21.60,    19.37,    25.56
       50.0,      22.36,    23.72,    21.27,    19.11,    25.31
       51.0,      22.09,    23.48,    20.96,    18.85,    25.07
       52.0,      21.83,    23.24,    20.65,    18.61,    24.83
       53.0,      21.58,    23.01,    20.36,    18.37,    24.60
       54.0,      21.34,    22.78,    20.07,    18.14,    24.37
       55.0,      21.11,    22.57,    19.80,    17.92,    24.15
       56.0,      20.88,    22.36,    19.54,    17.70,    23.93
       57.0,      20.66,    22.16,    19.28,    17.50,    23.72
       58.0,      20.45,    21.97,    19.03,    17.29,    23.51
       59.0,      20.25,    21.78,    18.80,    17.10,    23.30
       60.0,      20.05,    21.60,    18.57,    16.91,    23.10
       61.0,      19.85,    21.43,    18.35,    16.73,    22.91
       62.0,      19.67,    21.26,    18.13,    16.56,    22.72
       63.0,      19.48,    21.10,    17.92,    16.39,    22.53
       64.0,      19.31,    20.94,    17.73,    16.22,    22.34
       65.0,      19.14,    20.79,    17.53,    16.07,    22.16
       66.0,      18.97,    20.64,    17.35,    15.91,    21.99
       67.0,      18.81,    20.50,    17.17,    15.76,    21.82
       68.0,      18.65,    20.36,    16.99,    15.62,    21.65
       69.0,      18.50,    20.23,    16.82,    15.48,    21.48
       70.0,      18.36,    20.10,    16.66,    15.34,    21.32
       71.0,      18.21,    19.97,    16.50,    15.21,    21.16
       72.0,      18.07,    19.85,    16.35,    15.08,    21.01
       73.0,      17.94,    19.74,    16.20,    14.96,    20.86
       74.0,      17.81,    19.62,    16.06,    14.84,    20.71
       75.0,      17.68,    19.51,    15.92,    14.73,    20.56
       76.0,      17.56,    19.41,    15.79,    14.61,    20.42
       77.0,      17.44,    19.30,    15.66,    14.50,    20.28
       78.0,      17.32,    19.20,    15.53,    14.40,    20.14
       79.0,      17.20,    19.11,    15.41,    14.29,    20.01
       80.0,      17.09,    19.01,    15.29,    14.19,    19.87
       81.0,      16.98,    18.92,    15.18,    14.09,    19.75
       82.0,      16.88,    18.83,    15.07,    14.00,    19.62
       83.0,      16.78,    18.75,    14.96,    13.91,    19.49
       84.0,      16.68,    18.66,    14.85,    13.82,    19.37
       85.0,      16.58,    18.58,    14.75,    13.73,    19.25
       86.0,      16.48,    18.50,    14.65,    13.64,    19.14
       87.0,      16.39,    18.43,    14.56,    13.56,    19.02
       88.0,      16.30,    18.35,    14.47,    13.48,    18.91
       89.0,      16.21,    18.28,    14.38,    13.40,    18.80
       90.0,      16.13,    18.21,    14.29,    13.32,    18.69
       91.0,      16.04,    18.14,    14.20,    13.25,    18.58
       92.0,      15.96,    18.07,    14.12,    13.18,    18.48
       93.0,      15.88,    18.01,    14.04,    13.10,    18.38
       94.0,      15.80,    17.94,    13.96,    13.03,    18.28
       95.0,      15.73,    17.88,    13.88,    12.97,    18.18
       96.0,      15.65,    17.82,    13.81,    12.90,    18.08
       97.0,      15.58,    17.76,    13.74,    12.84,    17.98
       98.0,      15.51,    17.70,    13.66,    12.77,    17.89
       99.0,      15.44,    17.65,    13.60,    12.71,    17.80
      100.0,      15.37,    17.59,    13.53,    12.65,    17.71
      101.0,      15.30,    17.54,    13.46,    12.59,    17.62
      102.0,      15.24,    17.49,    13.40,    12.53,    17.53
      103.0,      15.17,    17.43,    13.34,    12.47,    17.45
      104.0,      15.11,    17.38,    13.27,    12.42,    17.36
      105.0,      15.05,    17.34,    13.21,    12.36,    17.28
      106.0,      14.99,    17.29,    13.16,    12.31,    17.20
      107.0,      14.93,    17.24,    13.10,    12.26,    17.12
      108.0,      14.87,    17.19,    13.04,    12.20,    17.04
      109.0,      14.81,    17.15,    12.99,    12.15,    16.96
      110.0,      14.76,    17.10,    12.94,    12.10,    16.89
      111.0,      14.70,    17.06,    12.88,    12.06,    16.81
      112.0,      14.65,    17.02,    12.83,    12.01,    16.74
      113.0,      14.60,    16.98,    12.78,    11.96,    16.67
      114.0,      14.54,    16.94,    12.73,    11.91,    16.60
      115.0,      14.49,    16.90,    12.68,    11.87,    16.53
      116.0,      14.44,    16.86,    12.64,    11.82,    16.46
      117.0,      14.39,    16.82,    12.59,    11.78,    16.39
      118.0,      14.35,    16.78,    12.54,    11.74,    16.32
      119.0,      14.30,    16.74,    12.50,    11.69,    16.26
      120.0,      14.25,    16.70,    12.46,    11.65,    16.19
      121.0,      14.20,    16.67,    12.41,    11.61,    16.13
      122.0,      14.16,    16.63,    12.37,    11.57,    16.07
      123.0,      14.11,    16.60,    12.33,    11.53,    16.01
      124.0,      14.07,    16.56,    12.29,    11.49,    15.95
      125.0,      14.03,    16.53,    12.25,    11.45,    15.89
      126.0,      13.98,    16.49,    12.21,    11.41,    15.83
      127.0,      13.94,    16.46,    12.17,    11.37,    15.77
      128.0,      13.90,    16.43,    12.13,    11.33,    15.71
      129.0,      13.86,    16.39,    12.09,    11.30,    15.65
      130.0,      13.82,    16.36,    12.05,    11.26,    15.60
      131.0,      13.78,    16.33,    12.02,    11.22,    15.54
      132.0,      13.74,    16.30,    11.98,    11.19,    15.49
      133.0,      13.70,    16.27,    11.94,    11.15,    15.44
      134.0,      13.66,    16.24,    11.91,    11.12,    15.38
      135.0,      13.62,    16.21,    11.87,    11.08,    15.33
      136.0,      13.59,    16.18,    11.84,    11.05,    15.28
      137.0,      13.55,    16.15,    11.80,    11.01,    15.23
      138.0,      13.51,    16.12,    11.77,    10.98,    15.18
      139.0,      13.48,    16.09,    11.74,    10.94,    15.13
      140.0,      13.44,    16.06,    11.70,    10.91,    15.08
      141.0,      13.40,    16.03,    11.67,    10.88,    15.03
      142.0,      13.37,    16.01,    11.64,    10.85,    14.98
      143.0,      13.33,    15.98,    11.61,    10.81,    14.94
      144.0,      13.30,    15.95,    11.58,    10.78,    14.89
      145.0,      13.27,    15.92,    11.54,    10.75,    14.84
      146.0,      13.23,    15.90,    11.51,    10.72,    14.80
      147.0,      13.20,    15.87,    11.48,    10.69,    14.75
      148.0,      13.17,    15.84,    11.45,    10.66,    14.71
      149.0,      13.13,    15.82,    11.42,    10.63,    14.67
      150.0,      13.10,    15.79,    11.39,    10.60,    14.62
      151.0,      13.07,    15.76,    11.36,    10.57,    14.58
      152.0,      13.04,    15.74,    11.33,    10.54,    14.54
      153.0,      13.00,    15.71,    11.31,    10.51,    14.50
      154.0,      12.97,    15.69,    11.28,    10.48,    14.45
      155.0,      12.94,    15.66,    11.25,    10.45,    14.41
      156.0,      12.91,    15.64,    11.22,    10.42,    14.37
      157.0,      12.88,    15.61,    11.19,    10.39,    14.33
      158.0,      12.85,    15.59,    11.16,    10.36,    14.29
      159.0,      12.82,    15.56,    11.14,    10.33,    14.25
      160.0,      12.79,    15.54,    11.11,    10.30,    14.22
      161.0,      12.76,    15.51,    11.08,    10.28,    14.18
      162.0,      12.73,    15.49,    11.06,    10.25,    14.14
      163.0,      12.70,    15.46,    11.03,    10.22,    14.10
      164.0,      12.67,    15.44,    11.00,    10.19,    14.06
      165.0,      12.65,    15.42,    10.98,    10.16,    14.03
      166.0,      12.62,    15.39,    10.95,    10.14,    13.99
      167.0,      12.59,    15.37,    10.92,    10.11,    13.95
      168.0,      12.56,    15.34,    10.90,    10.08,    13.92
      169.0,      12.53,    15.32,    10.87,    10.06,    13.88
      170.0,      12.50,    15.30,    10.85,    10.03,    13.85
      171.0,      12.48,    15.28,    10.82,    10.00,    13.81
      172.0,      12.45,    15.25,    10.79,     9.98,    13.78
      173.0,      12.42,    15.23,    10.77,     9.95,    13.74
      174.0,      12.40,    15.21,    10.74,     9.92,    13.71
      175.0,      12.37,    15.18,    10.72,     9.90,    13.67
      176.0,      12.34,    15.16,    10.69,     9.87,    13.64
      177.0,      12.31,    15.14,    10.67,     9.85,    13.61
      178.0,      12.29,    15.12,    10.64,     9.82,    13.57
      179.0,      12.26,    15.09,    10.62,     9.79,    13.54
      180.0,      12.24,    15.07,    10.60,     9.77,    13.51
      181.0,      12.21,    15.05,    10.57,     9.74,    13.48
      182.0,      12.18,    15.03,    10.55,     9.72,    13.44
      183.0,      12.16,    15.00,    10.52,     9.69,    13.41
      184.0,      12.13,    14.98,    10.50,     9.67,    13.38
      185.0,      12.11,    14.96,    10.48,     9.64,    13.35
      186.0,      12.08,    14.94,    10.45,     9.62,    13.32
      187.0,      12.06,    14.92,    10.43,     9.59,    13.29
      188.0,      12.03,    14.89,    10.40,     9.57,    13.26
      189.0,      12.01,    14.87,    10.38,     9.54,    13.23
      190.0,      11.98,    14.85,    10.36,     9.52,    13.20
      191.0,      11.96,    14.83,    10.33,     9.49,    13.17
      192.0,      11.93,    14.81,    10.31,     9.47,    13.14
      193.0,      11.91,    14.79,    10.29,     9.45,    13.11
      194.0,      11.88,    14.76,    10.27,     9.42,    13.08
      195.0,      11.86,    14.74,    10.24,     9.40,    13.05
      196.0,      11.83,    14.72,    10.22,     9.37,    13.02
      197.0,      11.81,    14.70,    10.20,     9.35,    12.99
      198.0,      11.78,    14.68,    10.17,     9.33,    12.96
      199.0,      11.76,    14.66,    10.15,     9.30,    12.93
      200.0,      11.74,    14.64,    10.13,     9.28,    12.90
      201.0,      11.71,    14.62,    10.11,     9.25,    12.87
      202.0,      11.69,    14.60,    10.08,     9.23,    12.85
      203.0,      11.67,    14.57,    10.06,     9.21,    12.82
      204.0,      11.64,    14.55,    10.04,     9.18,    12.79
      205.0,      11.62,    14.53,    10.02,     9.16,    12.76
      206.0,      11.60,    14.51,    10.00,     9.14,    12.74
      207.0,      11.57,    14.49,     9.97,     9.11,    12.71
      208.0,      11.55,    14.47,     9.95,     9.09,    12.68
      209.0,      11.53,    14.45,     9.93,     9.07,    12.65
      210.0,      11.50,    14.43,     9.91,     9.05,    12.63
      211.0,      11.48,    14.41,     9.89,     9.02,    12.60
      212.0,      11.46,    14.39,     9.86,     9.00,    12.57
      213.0,      11.43,    14.37,     9.84,     8.98,    12.55
      214.0,      11.41,    14.35,     9.82,     8.95,    12.52
      215.0,      11.39,    14.33,     9.80,     8.93,    12.50
      216.0,      11.37,    14.31,     9.78,     8.91,    12.47
      217.0,      11.34,    14.29,     9.76,     8.89,    12.44
      218.0,      11.32,    14.27,     9.74,     8.86,    12.42
      219.0,      11.30,    14.25,     9.71,     8.84,    12.39
      220.0,      11.28,    14.23,     9.69,     8.82,    12.37
      221.0,      11.25,    14.21,     9.67,     8.80,    12.34
      222.0,      11.23,    14.19,     9.65,     8.78,    12.32
      223.0,      11.21,    14.17,     9.63,     8.75,    12.29
      224.0,      11.19,    14.15,     9.61,     8.73,    12.26
      225.0,      11.17,    14.13,     9.59,     8.71,    12.24
      226.0,      11.14,    14.11,     9.57,     8.69,    12.21
      227.0,      11.12,    14.09,     9.55,     8.67,    12.19
      228.0,      11.10,    14.07,     9.53,     8.64,    12.17
      229.0,      11.08,    14.05,     9.50,     8.62,    12.14
      230.0,      11.06,    14.03,     9.48,     8.60,    12.12
      231.0,      11.04,    14.01,     9.46,     8.58,    12.09
      232.0,      11.01,    13.99,     9.44,     8.56,    12.07
      233.0,      10.99,    13.97,     9.42,     8.54,    12.04
      234.0,      10.97,    13.95,     9.40,     8.52,    12.02
      235.0,      10.95,    13.93,     9.38,     8.49,    12.00
      236.0,      10.93,    13.91,     9.36,     8.47,    11.97
      237.0,      10.91,    13.89,     9.34,     8.45,    11.95
      238.0,      10.89,    13.87,     9.32,     8.43,    11.92
      239.0,      10.86,    13.85,     9.30,     8.41,    11.90
      240.0,      10.84,    13.83,     9.28,     8.39,    11.88
      241.0,      10.82,    13.81,     9.26,     8.37,    11.85
      242.0,      10.80,    13.79,     9.24,     8.35,    11.83
      243.0,      10.78,    13.77,     9.22,     8.33,    11.81
      244.0,      10.76,    13.75,     9.20,     8.30,    11.78
      245.0,      10.74,    13.73,     9.18,     8.28,    11.76
      246.0,      10.72,    13.71,     9.16,     8.26,    11.74
      247.0,      10.70,    13.69,     9.14,     8.24,    11.71
      248.0,      10.68,    13.67,     9.12,     8.22,    11.69
      249.0,      10.66,    13.66,     9.10,     8.20,    11.67
      250.0,      10.64,    13.64,     9.08,     8.18,    11.65
      251.0,      10.62,    13.62,     9.06,     8.16,    11.62
      252.0,      10.60,    13.60,     9.04,     8.14,    11.60
      253.0,      10.57,    13.58,     9.02,     8.12,    11.58
      254.0,      10.55,    13.56,     9.00,     8.10,    11.55
      255.0,      10.53,    13.54,     8.98,     8.08,    11.53
      256.0,      10.51,    13.52,     8.96,     8.06,    11.51
      257.0,      10.49,    13.50,     8.95,     8.04,    11.49
      258.0,      10.47,    13.48,     8.93,     8.02,    11.47
      259.0,      10.45,    13.46,     8.91,     8.00,    11.44
      260.0,      10.43,    13.45,     8.89,     7.98,    11.42
      261.0,      10.41,    13.43,     8.87,     7.96,    11.40
      262.0,      10.39,    13.41,     8.85,     7.94,    11.38
      263.0,      10.37,    13.39,     8.83,     7.92,    11.36
      264.0,      10.35,    13.37,     8.81,     7.90,    11.33
      265.0,      10.33,    13.35,     8.79,     7.88,    11.31
      266.0,      10.31,    13.33,     8.77,     7.86,    11.29
      267.0,      10.29,    13.31,     8.75,     7.84,    11.27
      268.0,      10.27,    13.30,     8.74,     7.82,    11.25
      269.0,      10.26,    13.28,     8.72,     7.80,    11.23
      270.0,      10.24,    13.26,     8.70,     7.78,    11.20
      271.0,      10.22,    13.24,     8.68,     7.76,    11.18
      272.0,      10.20,    13.22,     8.66,     7.74,    11.16
      273.0,      10.18,    13.20,     8.64,     7.72,    11.14
      274.0,      10.16,    13.18,     8.62,     7.71,    11.12
      275.0,      10.14,    13.17,     8.60,     7.69,    11.10
      276.0,      10.12,    13.15,     8.59,     7.67,    11.08
      277.0,      10.10,    13.13,     8.57,     7.65,    11.06
      278.0,      10.08,    13.11,     8.55,     7.63,    11.03
      279.0,      10.06,    13.09,     8.53,     7.61,    11.01
      280.0,      10.04,    13.07,     8.51,     7.59,    10.99
      281.0,      10.02,    13.05,     8.49,     7.57,    10.97
      282.0,      10.00,    13.04,     8.48,     7.55,    10.95
      283.0,       9.99,    13.02,     8.46,     7.53,    10.93
      284.0,       9.97,    13.00,     8.44,     7.52,    10.91
      285.0,       9.95,    12.98,     8.42,     7.50,    10.89
      286.0,       9.93,    12.96,     8.40,     7.48,    10.87
      287.0,       9.91,    12.95,     8.38,     7.46,    10.85
      288.0,       9.89,    12.93,     8.37,     7.44,    10.83
      289.0,       9.87,    12.91,     8.35,     7.42,    10.81
      290.0,       9.85,    12.89,     8.33,     7.40,    10.79
      291.0,       9.83,    12.87,     8.31,     7.39,    10.77
      292.0,       9.82,    12.86,     8.30,     7.37,    10.75
      293.0,       9.80,    12.84,     8.28,     7.35,    10.73
      294.0,       9.78,    12.82,     8.26,     7.33,    10.71
      295.0,       9.76,    12.80,     8.24,     7.31,    10.69
      296.0,       9.74,    12.78,     8.22,     7.29,    10.67
      297.0,       9.72,    12.77,     8.21,     7.28,    10.65
      298.0,       9.70,    12.75,     8.19,     7.26,    10.63
      299.0,       9.69,    12.73,     8.17,     7.24,    10.61
      300.0,       9.67,    12.71,     8.15,     7.22,    10.59
      301.0,       9.65,    12.69,     8.14,     7.20,    10.57
      302.0,       9.63,    12.68,     8.12,     7.19,    10.55
      303.0,       9.61,    12.66,     8.10,     7.17,    10.53
      304.0,       9.60,    12.64,     8.08,     7.15,    10.51
      305.0,       9.58,    12.62,     8.07,     7.13,    10.49
      306.0,       9.56,    12.61,     8.05,     7.11,    10.47
      307.0,       9.54,    12.59,     8.03,     7.10,    10.45
      308.0,       9.52,    12.57,     8.01,     7.08,    10.43
      309.0,       9.50,    12.55,     8.00,     7.06,    10.41
      310.0,       9.49,    12.53,     7.98,     7.04,    10.39
