Radius (km), Mean (m/s), NE (m/s), SE (m/s), SW (m/s), NW (m/s)
        0.0,       0.00,     0.00,     0.00,     0.00,     0.00
        1.0,       2.42,     2.09,     2.62,     2.61,     2.35
        2.0,       5.00,     4.63,     5.24,     5.21,     4.93
        3.0,       7.74,     7.47,     7.96,     7.85,     7.67
        4.0,      10.71,    10.70,    10.89,    10.60,    10.66
        5.0,      14.02,    14.42,    14.11,    13.56,    13.98
        6.0,      17.71,    18.67,    17.68,    16.81,    17.70
        7.0,      21.80,    23.43,    21.59,    20.37,    21.81
        8.0,      26.20,    28.60,    25.74,    24.19,    26.25
        9.0,      30.75,    33.97,    29.99,    28.18,    30.87
       10.0,      35.27,    39.29,    34.14,    32.17,    35.47
       11.0,      39.52,    44.27,    37.98,    35.99,    39.82
       12.0,      43.29,    48.68,    41.34,    39.44,    43.72
       13.0,      46.43,    52.30,    44.06,    42.37,    46.99
       14.0,      48.82,    55.02,    46.08,    44.68,    49.52
       15.0,      50.45,    56.81,    47.38,    46.32,    51.28
       16.0,      51.35,    57.75,    48.03,    47.31,    52.30
       17.0,      51.64,    57.97,    48.13,    47.73,    52.71
       18.0,      51.46,    57.65,    47.84,    47.72,    52.63
       19.0,      50.98,    57.00,    47.29,    47.39,    52.24
       20.0,      50.34,    56.16,    46.62,    46.89,    51.67
       21.0,      49.64,    55.28,    45.91,    46.32,    51.05
       22.0,      48.95,    54.42,    45.22,    45.74,    50.43
       23.0,      48.30,    53.60,    44.56,    45.20,    49.84
       24.0,      47.67,    52.81,    43.93,    44.67,    49.27
       25.0,      47.06,    52.04,    43.31,    44.17,    48.71
       26.0,      46.46,    51.29,    42.70,    43.67,    48.17
       27.0,      45.87,    50.55,    42.11,    43.18,    47.63
       28.0,      45.29,    49.83,    41.53,    42.70,    47.09
       29.0,      44.72,    49.13,    40.96,    42.22,    46.57
       30.0,      44.16,    48.44,    40.41,    41.75,    46.05
       31.0,      43.62,    47.77,    39.87,    41.29,    45.55
       32.0,      43.08,    47.11,    39.33,    40.84,    45.04
       33.0,      42.55,    46.46,    38.81,    40.39,    44.55
       34.0,      42.04,    45.83,    38.31,    39.94,    44.06
       35.0,      41.53,    45.22,    37.81,    39.51,    43.58
       36.0,      41.03,    44.61,    37.32,    39.08,    43.11
       37.0,      40.54,    44.02,    36.85,    38.65,    42.65
       38.0,      40.06,    43.44,    36.38,    38.24,    42.19
       39.0,      39.59,    42.88,    35.92,    37.83,    41.73
       40.0,      39.13,    42.33,    35.48,    37.42,    41.29
       41.0,      38.67,    41.79,    35.04,    37.02,    40.85
       42.0,      38.23,    41.26,    34.61,    36.63,    40.41
       43.0,      37.79,    40.74,    34.20,    36.24,    39.99
       44.0,      37.36,    40.23,    33.79,    35.86,    39.57
       45.0,      36.94,    39.74,    33.39,    35.48,    39.15
       46.0,      36.52,    39.25,    32.99,    35.11,    38.74
       47.0,      36.12,    38.78,    32.61,    34.74,    38.34
       48.0,      35.72,    38.32,    32.24,    34.38,    37.94
       49.0,      35.33,    37.86,    31.87,    34.02,    37.55
       50.0,      34.94,    37.42,    31.51,    33.67,    37.17
       51.0,      34.56,    36.98,    31.16,    33.33,    36.79
       52.0,      34.19,    36.56,    30.81,    32.99,    36.41
       53.0,      33.83,    36.14,    30.48,    32.65,    36.04
       54.0,      33.47,    35.73,    30.15,    32.32,    35.68
       55.0,      33.12,    35.33,    29.82,    31.99,    35.32
       56.0,      32.77,    34.94,    29.51,    31.67,    34.97
       57.0,      32.43,    34.56,    29.20,    31.35,    34.62
       58.0,      32.10,    34.19,    28.90,    31.04,    34.28
       59.0,      31.77,    33.82,    28.60,    30.73,    33.94
       60.0,      31.45,    33.47,    28.31,    30.43,    33.60
       61.0,      31.14,    33.12,    28.03,    30.13,    33.27
       62.0,      30.83,    32.77,    27.75,    29.84,    32.95
       63.0,      30.52,    32.44,    27.48,    29.54,    32.63
       64.0,      30.22,    32.11,    27.21,    29.26,    32.32
       65.0,      29.93,    31.79,    26.95,    28.98,    32.01
       66.0,      29.64,    31.47,    26.69,    28.70,    31.70
       67.0,      29.36,    31.16,    26.44,    28.42,    31.40
       68.0,      29.08,    30.86,    26.20,    28.15,    31.10
       69.0,      28.80,    30.57,    25.96,    27.89,    30.81
       70.0,      28.54,    30.28,    25.73,    27.62,    30.52
       71.0,      28.27,    29.99,    25.50,    27.36,    30.23
       72.0,      28.01,    29.72,    25.27,    27.11,    29.95
       73.0,      27.76,    29.45,    25.05,    26.86,    29.68
       74.0,      27.51,    29.18,    24.83,    26.61,    29.40
       75.0,      27.26,    28.92,    24.62,    26.36,    29.13
       76.0,      27.02,    28.67,    24.42,    26.12,    28.87
       77.0,      26.78,    28.42,    24.21,    25.88,    28.61
       78.0,      26.55,    28.17,    24.02,    25.65,    28.35
       79.0,      26.32,    27.93,    23.82,    25.42,    28.10
       80.0,      26.09,    27.70,    23.63,    25.19,    27.85
       81.0,      25.87,    27.47,    23.44,    24.96,    27.60
       82.0,      25.65,    27.24,    23.26,    24.74,    27.36
       83.0,      25.44,    27.02,    23.08,    24.52,    27.12
       84.0,      25.23,    26.81,    22.91,    24.31,    26.88
       85.0,      25.02,    26.60,    22.74,    24.10,    26.65
       86.0,      24.82,    26.39,    22.57,    23.89,    26.42
       87.0,      24.62,    26.19,    22.40,    23.68,    26.19
       88.0,      24.42,    25.99,    22.24,    23.48,    25.97
       89.0,      24.23,    25.79,    22.08,    23.28,    25.75
       90.0,      24.04,    25.60,    21.93,    23.08,    25.53
       91.0,      23.85,    25.42,    21.78,    22.88,    25.32
       92.0,      23.66,    25.23,    21.63,    22.69,    25.11
       93.0,      23.48,    25.05,    21.48,    22.50,    24.90
       94.0,      23.31,    24.88,    21.34,    22.31,    24.69
       95.0,      23.13,    24.71,    21.20,    22.13,    24.49
       96.0,      22.96,    24.54,    21.06,    21.95,    24.29
       97.0,      22.79,    24.37,    20.93,    21.77,    24.09
       98.0,      22.62,    24.21,    20.80,    21.59,    23.90
       99.0,      22.46,    24.05,    20.67,    21.42,    23.71
      100.0,      22.30,    23.90,    20.54,    21.24,    23.52
      101.0,      22.14,    23.74,    20.42,    21.07,    23.33
      102.0,      21.99,    23.59,    20.29,    20.91,    23.15
      103.0,      21.83,    23.45,    20.17,    20.74,    22.97
      104.0,      21.68,    23.30,    20.06,    20.58,    22.79
      105.0,      21.53,    23.16,    19.94,    20.42,    22.62
      106.0,      21.39,    23.02,    19.83,    20.26,    22.44
      107.0,      21.25,    22.89,    19.72,    20.10,    22.27
      108.0,      21.11,    22.75,    19.61,    19.95,    22.10
      109.0,      20.97,    22.62,    19.50,    19.80,    21.94
      110.0,      20.83,    22.50,    19.40,    19.65,    21.78
      111.0,      20.70,    22.37,    19.30,    19.50,    21.61
      112.0,      20.56,    22.25,    19.20,    19.35,    21.45
      113.0,      20.43,    22.13,    19.10,    19.21,    21.30
      114.0,      20.31,    22.01,    19.00,    19.07,    21.14
      115.0,      20.18,    21.89,    18.91,    18.93,    20.99
      116.0,      20.06,    21.78,    18.82,    18.79,    20.84
      117.0,      19.93,    21.67,    18.72,    18.66,    20.69
      118.0,      19.81,    21.56,    18.64,    18.52,    20.54
      119.0,      19.70,    21.45,    18.55,    18.39,    20.40
      120.0,      19.58,    21.34,    18.46,    18.26,    20.26
      121.0,      19.47,    21.24,    18.38,    18.13,    20.12
      122.0,      19.35,    21.14,    18.29,    18.00,    19.98
      123.0,      19.24,    21.04,    18.21,    17.88,    19.84
      124.0,      19.13,    20.94,    18.13,    17.75,    19.71
      125.0,      19.03,    20.84,    18.05,    17.63,    19.57
      126.0,      18.92,    20.75,    17.98,    17.51,    19.44
      127.0,      18.82,    20.65,    17.90,    17.39,    19.31
      128.0,      18.71,    20.56,    17.83,    17.28,    19.18
      129.0,      18.61,    20.47,    17.75,    17.16,    19.06
      130.0,      18.51,    20.38,    17.68,    17.05,    18.93
      131.0,      18.41,    20.30,    17.61,    16.93,    18.81
      132.0,      18.32,    20.21,    17.54,    16.82,    18.69
      133.0,      18.22,    20.13,    17.47,    16.71,    18.57
      134.0,      18.13,    20.05,    17.41,    16.61,    18.45
      135.0,      18.04,    19.97,    17.34,    16.50,    18.34
      136.0,      17.95,    19.89,    17.28,    16.39,    18.22
      137.0,      17.86,    19.81,    17.21,    16.29,    18.11
      138.0,      17.77,    19.73,    17.15,    16.19,    18.00
      139.0,      17.68,    19.66,    17.09,    16.09,    17.89
      140.0,      17.60,    19.58,    17.03,    15.99,    17.78
      141.0,      17.51,    19.51,    16.97,    15.89,    17.67
      142.0,      17.43,    19.44,    16.91,    15.79,    17.57
      143.0,      17.35,    19.37,    16.86,    15.70,    17.46
      144.0,      17.27,    19.30,    16.80,    15.60,    17.36
      145.0,      17.19,    19.23,    16.75,    15.51,    17.26
      146.0,      17.11,    19.16,    16.69,    15.42,    17.16
      147.0,      17.03,    19.10,    16.64,    15.33,    17.06
      148.0,      16.95,    19.03,    16.58,    15.24,    16.96
      149.0,      16.88,    18.97,    16.53,    15.15,    16.87
      150.0,      16.81,    18.91,    16.48,    15.06,    16.77
      151.0,      16.73,    18.84,    16.43,    14.97,    16.68
      152.0,      16.66,    18.78,    16.38,    14.89,    16.59
      153.0,      16.59,    18.72,    16.33,    14.80,    16.50
      154.0,      16.52,    18.66,    16.29,    14.72,    16.41
      155.0,      16.45,    18.61,    16.24,    14.64,    16.32
      156.0,      16.38,    18.55,    16.19,    14.56,    16.23
      157.0,      16.32,    18.49,    16.15,    14.48,    16.14
      158.0,      16.25,    18.44,    16.10,    14.40,    16.06
      159.0,      16.18,    18.38,    16.06,    14.32,    15.97
      160.0,      16.12,    18.33,    16.02,    14.25,    15.89
      161.0,      16.06,    18.28,    15.97,    14.17,    15.81
      162.0,      15.99,    18.22,    15.93,    14.09,    15.73
      163.0,      15.93,    18.17,    15.89,    14.02,    15.65
      164.0,      15.87,    18.12,    15.85,    13.95,    15.57
      165.0,      15.81,    18.07,    15.81,    13.88,    15.49
      166.0,      15.75,    18.02,    15.77,    13.80,    15.41
      167.0,      15.69,    17.97,    15.73,    13.73,    15.34
      168.0,      15.64,    17.93,    15.69,    13.66,    15.26
      169.0,      15.58,    17.88,    15.65,    13.60,    15.19
      170.0,      15.52,    17.83,    15.61,    13.53,    15.12
      171.0,      15.47,    17.79,    15.58,    13.46,    15.05
      172.0,      15.41,    17.74,    15.54,    13.40,    14.97
      173.0,      15.36,    17.70,    15.50,    13.33,    14.90
      174.0,      15.31,    17.65,    15.47,    13.27,    14.83
      175.0,      15.25,    17.61,    15.43,    13.20,    14.77
      176.0,      15.20,    17.57,    15.40,    13.14,    14.70
      177.0,      15.15,    17.52,    15.37,    13.08,    14.63
      178.0,      15.10,    17.48,    15.33,    13.02,    14.57
      179.0,      15.05,    17.44,    15.30,    12.96,    14.50
      180.0,      15.00,    17.40,    15.27,    12.90,    14.44
      181.0,      14.95,    17.36,    15.23,    12.84,    14.37
      182.0,      14.90,    17.32,    15.20,    12.78,    14.31
      183.0,      14.86,    17.28,    15.17,    12.72,    14.25
      184.0,      14.81,    17.24,    15.14,    12.66,    14.19
      185.0,      14.76,    17.21,    15.11,    12.61,    14.13
      186.0,      14.72,    17.17,    15.08,    12.55,    14.07
      187.0,      14.67,    17.13,    15.05,    12.50,    14.01
      188.0,      14.63,    17.09,    15.02,    12.44,    13.95
      189.0,      14.58,    17.06,    14.99,    12.39,    13.89
      190.0,      14.54,    17.02,    14.96,    12.34,    13.84
      191.0,      14.50,    16.99,    14.93,    12.28,    13.78
      192.0,      14.45,    16.95,    14.90,    12.23,    13.72
      193.0,      14.41,    16.91,    14.88,    12.18,    13.67
      194.0,      14.37,    16.88,    14.85,    12.13,    13.62
      195.0,      14.33,    16.85,    14.82,    12.08,    13.56
      196.0,      14.29,    16.81,    14.79,    12.03,    13.51
      197.0,      14.25,    16.78,    14.77,    11.98,    13.46
      198.0,      14.21,    16.75,    14.74,    11.93,    13.41
      199.0,      14.17,    16.71,    14.71,    11.89,    13.36
      200.0,      14.13,    16.68,    14.69,    11.84,    13.31
      201.0,      14.09,    16.65,    14.66,    11.79,    13.26
      202.0,      14.05,    16.62,    14.64,    11.75,    13.21
      203.0,      14.01,    16.59,    14.61,    11.70,    13.16
      204.0,      13.98,    16.56,    14.59,    11.66,    13.11
      205.0,      13.94,    16.52,    14.56,    11.61,    13.06
      206.0,      13.90,    16.49,    14.54,    11.57,    13.02
      207.0,      13.87,    16.46,    14.52,    11.52,    12.97
      208.0,      13.83,    16.43,    14.49,    11.48,    12.92
      209.0,      13.80,    16.41,    14.47,    11.44,    12.88
      210.0,      13.76,    16.38,    14.44,    11.40,    12.83
      211.0,      13.73,    16.35,    14.42,    11.36,    12.79
      212.0,      13.69,    16.32,    14.40,    11.31,    12.75
      213.0,      13.66,    16.29,    14.38,    11.27,    12.70
      214.0,      13.63,    16.26,    14.35,    11.23,    12.66
      215.0,      13.59,    16.23,    14.33,    11.19,    12.62
      216.0,      13.56,    16.21,    14.31,    11.15,    12.58
      217.0,      13.53,    16.18,    14.29,    11.12,    12.54
      218.0,      13.50,    16.15,    14.27,    11.08,    12.50
      219.0,      13.47,    16.12,    14.24,    11.04,    12.46
      220.0,      13.43,    16.10,    14.22,    11.00,    12.42
      221.0,      13.40,    16.07,    14.20,    10.96,    12.38
      222.0,      13.37,    16.04,    14.18,    10.93,    12.34
      223.0,      13.34,    16.02,    14.16,    10.89,    12.30
      224.0,      13.31,    15.99,    14.14,    10.85,    12.26
      225.0,      13.28,    15.97,    14.12,    10.82,    12.22
      226.0,      13.25,    15.94,    14.10,    10.78,    12.19
      227.0,      13.22,    15.92,    14.08,    10.75,    12.15
      228.0,      13.19,    15.89,    14.06,    10.71,    12.11
      229.0,      13.16,    15.87,    14.04,    10.68,    12.08
      230.0,      13.14,    15.84,    14.02,    10.65,    12.04
      231.0,      13.11,    15.82,    14.00,    10.61,    12.01
      232.0,      13.08,    15.79,    13.98,    10.58,    11.97
      233.0,      13.05,    15.77,    13.96,    10.55,    11.94
      234.0,      13.02,    15.74,    13.94,    10.51,    11.90
      235.0,      13.00,    15.72,    13.92,    10.48,    11.87
      236.0,      12.97,    15.69,    13.90,    10.45,    11.83
      237.0,      12.94,    15.67,    13.88,    10.42,    11.80
      238.0,      12.92,    15.65,    13.87,    10.39,    11.77
      239.0,      12.89,    15.62,    13.85,    10.36,    11.74
      240.0,      12.87,    15.60,    13.83,    10.33,    11.70
      241.0,      12.84,    15.58,    13.81,    10.30,    11.67
      242.0,      12.81,    15.56,    13.79,    10.27,    11.64
      243.0,      12.79,    15.53,    13.77,    10.24,    11.61
      244.0,      12.76,    15.51,    13.76,    10.21,    11.58
      245.0,      12.74,    15.49,    13.74,    10.18,    11.55
      246.0,      12.71,    15.46,    13.72,    10.15,    11.52
      247.0,      12.69,    15.44,    13.70,    10.12,    11.49
      248.0,      12.66,    15.42,    13.69,    10.09,    11.46
      249.0,      12.64,    15.40,    13.67,    10.06,    11.43
      250.0,      12.62,    15.38,    13.65,    10.04,    11.40
      251.0,      12.59,    15.36,    13.63,    10.01,    11.37
      252.0,      12.57,    15.33,    13.62,     9.98,    11.35
      253.0,      12.55,    15.31,    13.60,     9.95,    11.32
      254.0,      12.52,    15.29,    13.58,     9.93,    11.29
      255.0,      12.50,    15.27,    13.57,     9.90,    11.26
      256.0,      12.48,    15.25,    13.55,     9.87,    11.23
      257.0,      12.45,    15.23,    13.53,     9.85,    11.21
      258.0,      12.43,    15.21,    13.52,     9.82,    11.18
      259.0,      12.41,    15.19,    13.50,     9.80,    11.15
      260.0,      12.39,    15.16,    13.48,     9.77,    11.13
      261.0,      12.37,    15.14,    13.47,     9.75,    11.10
      262.0,      12.34,    15.12,    13.45,     9.72,    11.08
      263.0,      12.32,    15.10,    13.44,     9.70,    11.05
      264.0,      12.30,    15.08,    13.42,     9.67,    11.03
      265.0,      12.28,    15.06,    13.40,     9.65,    11.00
      266.0,      12.26,    15.04,    13.39,     9.63,    10.98
      267.0,      12.24,    15.02,    13.37,     9.60,    10.95
      268.0,      12.22,    15.00,    13.36,     9.58,    10.93
      269.0,      12.19,    14.98,    13.34,     9.55,    10.90
      270.0,      12.17,    14.96,    13.32,     9.53,    10.88
      271.0,      12.15,    14.94,    13.31,     9.51,    10.86
      272.0,      12.13,    14.92,    13.29,     9.49,    10.83
      273.0,      12.11,    14.90,    13.28,     9.46,    10.81
      274.0,      12.09,    14.88,    13.26,     9.44,    10.79
      275.0,      12.07,    14.86,    13.25,     9.42,    10.76
      276.0,      12.05,    14.84,    13.23,     9.40,    10.74
      277.0,      12.03,    14.83,    13.22,     9.37,    10.72
      278.0,      12.01,    14.81,    13.20,     9.35,    10.70
      279.0,      11.99,    14.79,    13.19,     9.33,    10.67
      280.0,      11.98,    14.77,    13.17,     9.31,    10.65
      281.0,      11.96,    14.75,    13.16,     9.29,    10.63
      282.0,      11.94,    14.73,    13.14,     9.27,    10.61
      283.0,      11.92,    14.71,    13.13,     9.25,    10.59
      284.0,      11.90,    14.69,    13.11,     9.23,    10.57
      285.0,      11.88,    14.67,    13.10,     9.21,    10.55
      286.0,      11.86,    14.65,    13.08,     9.19,    10.53
      287.0,      11.84,    14.64,    13.07,     9.17,    10.51
      288.0,      11.83,    14.62,    13.05,     9.15,    10.48
      289.0,      11.81,    14.60,    13.04,     9.13,    10.46
      290.0,      11.79,    14.58,    13.02,     9.11,    10.44
      291.0,      11.77,    14.56,    13.01,     9.09,    10.42
      292.0,      11.75,    14.54,    13.00,     9.07,    10.41
      293.0,      11.73,    14.53,    12.98,     9.05,    10.39
      294.0,      11.72,    14.51,    12.97,     9.03,    10.37
      295.0,      11.70,    14.49,    12.95,     9.01,    10.35
      296.0,      11.68,    14.47,    12.94,     8.99,    10.33
      297.0,      11.66,    14.45,    12.92,     8.97,    10.31
      298.0,      11.65,    14.44,    12.91,     8.95,    10.29
      299.0,      11.63,    14.42,    12.90,     8.94,    10.27
      300.0,      11.61,    14.40,    12.88,     8.92,    10.25
      301.0,      11.60,    14.38,    12.87,     8.90,    10.23
      302.0,      11.58,    14.36,    12.85,     8.88,    10.22
      303.0,      11.56,    14.35,    12.84,     8.86,    10.20
      304.0,      11.54,    14.33,    12.83,     8.84,    10.18
      305.0,      11.53,    14.31,    12.81,     8.83,    10.16
      306.0,      11.51,    14.29,    12.80,     8.81,    10.14
      307.0,      11.49,    14.28,    12.78,     8.79,    10.13
      308.0,      11.48,    14.26,    12.77,     8.78,    10.11
      309.0,      11.46,    14.24,    12.76,     8.76,    10.09
      310.0,      11.45,    14.22,    12.74,     8.74,    10.07
