Radius (km), Mean (m/s), NE (m/s), SE (m/s), SW (m/s), NW (m/s)
        0.0,       0.00,     0.00,     0.00,     0.00,     0.00
        1.0,       2.49,     2.44,     2.55,     2.53,     2.46
        2.0,       3.89,     3.96,     3.89,     3.75,     3.96
        3.0,       5.05,     5.25,     4.98,     4.72,     5.24
        4.0,       6.07,     6.42,     5.93,     5.56,     6.38
        5.0,       7.01,     7.50,     6.80,     6.32,     7.44
        6.0,       7.89,     8.52,     7.60,     7.01,     8.43
        7.0,       8.71,     9.48,     8.35,     7.65,     9.37
        8.0,       9.50,    10.41,     9.06,     8.25,    10.27
        9.0,      10.25,    11.30,     9.73,     8.83,    11.13
       10.0,      10.97,    12.16,    10.38,     9.37,    11.97
       11.0,      11.67,    12.99,    11.00,     9.90,    12.78
       12.0,      12.34,    13.80,    11.60,    10.40,    13.57
       13.0,      13.00,    14.60,    12.18,    10.88,    14.33
       14.0,      13.64,    15.37,    12.75,    11.35,    15.08
       15.0,      14.26,    16.13,    13.30,    11.81,    15.81
       16.0,      14.88,    16.90,    13.84,    12.25,    16.54
       17.0,      15.52,    17.71,    14.40,    12.70,    17.26
       18.0,      16.19,    18.58,    15.00,    13.16,    18.01
       19.0,      16.91,    19.53,    15.64,    13.65,    18.80
       20.0,      17.68,    20.56,    16.35,    14.16,    19.64
       21.0,      18.49,    21.64,    17.09,    14.69,    20.53
       22.0,      19.32,    22.75,    17.86,    15.23,    21.44
       23.0,      20.13,    23.81,    18.62,    15.76,    22.35
       24.0,      20.89,    24.78,    19.32,    16.25,    23.22
       25.0,      21.56,    25.61,    19.92,    16.70,    24.00
       26.0,      22.10,    26.25,    20.39,    17.08,    24.67
       27.0,      22.50,    26.69,    20.71,    17.38,    25.21
       28.0,      22.75,    26.92,    20.88,    17.59,    25.59
       29.0,      22.86,    26.96,    20.91,    17.73,    25.83
       30.0,      22.85,    26.85,    20.81,    17.79,    25.94
       31.0,      22.76,    26.63,    20.63,    17.81,    25.96
       32.0,      22.60,    26.35,    20.38,    17.79,    25.90
       33.0,      22.42,    26.03,    20.10,    17.74,    25.79
       34.0,      22.22,    25.71,    19.81,    17.70,    25.68
       35.0,      22.04,    25.40,    19.54,    17.65,    25.56
       36.0,      21.86,    25.11,    19.27,    17.60,    25.45
       37.0,      21.69,    24.82,    19.01,    17.56,    25.34
       38.0,      21.52,    24.55,    18.77,    17.52,    25.24
       39.0,      21.36,    24.28,    18.53,    17.48,    25.15
       40.0,      21.20,    24.02,    18.29,    17.44,    25.05
       41.0,      21.05,    23.77,    18.06,    17.40,    24.95
       42.0,      20.89,    23.53,    17.83,    17.36,    24.85
       43.0,      20.75,    23.29,    17.61,    17.33,    24.76
       44.0,      20.60,    23.05,    17.40,    17.29,    24.66
       45.0,      20.46,    22.82,    17.19,    17.25,    24.57
       46.0,      20.32,    22.60,    16.98,    17.21,    24.47
       47.0,      20.18,    22.38,    16.78,    17.17,    24.38
       48.0,      20.04,    22.17,    16.58,    17.13,    24.28
       49.0,      19.91,    21.97,    16.39,    17.09,    24.19
       50.0,      19.78,    21.77,    16.20,    17.05,    24.10
       51.0,      19.65,    21.57,    16.01,    17.01,    24.01
       52.0,      19.53,    21.38,    15.83,    16.98,    23.91
       53.0,      19.40,    21.19,    15.66,    16.94,    23.82
       54.0,      19.28,    21.01,    15.48,    16.90,    23.73
       55.0,      19.16,    20.84,    15.31,    16.86,    23.64
       56.0,      19.05,    20.66,    15.15,    16.82,    23.55
       57.0,      18.93,    20.50,    14.99,    16.79,    23.46
       58.0,      18.82,    20.33,    14.83,    16.75,    23.37
       59.0,      18.71,    20.17,    14.67,    16.71,    23.28
       60.0,      18.60,    20.02,    14.52,    16.67,    23.19
       61.0,      18.49,    19.86,    14.37,    16.64,    23.11
       62.0,      18.39,    19.72,    14.23,    16.60,    23.02
       63.0,      18.29,    19.57,    14.09,    16.56,    22.93
       64.0,      18.19,    19.43,    13.95,    16.52,    22.84
       65.0,      18.09,    19.29,    13.81,    16.49,    22.76
       66.0,      17.99,    19.16,    13.68,    16.45,    22.67
       67.0,      17.89,    19.03,    13.55,    16.41,    22.59
       68.0,      17.80,    18.90,    13.42,    16.38,    22.50
       69.0,      17.71,    18.77,    13.30,    16.34,    22.42
       70.0,      17.61,    18.65,    13.18,    16.30,    22.33
       71.0,      17.53,    18.53,    13.06,    16.27,    22.25
       72.0,      17.44,    18.41,    12.94,    16.23,    22.16
       73.0,      17.35,    18.30,    12.83,    16.19,    22.08
       74.0,      17.26,    18.19,    12.71,    16.16,    22.00
       75.0,      17.18,    18.08,    12.61,    16.12,    21.92
       76.0,      17.10,    17.97,    12.50,    16.08,    21.83
       77.0,      17.02,    17.87,    12.39,    16.05,    21.75
       78.0,      16.94,    17.77,    12.29,    16.01,    21.67
       79.0,      16.86,    17.67,    12.19,    15.98,    21.59
       80.0,      16.78,    17.57,    12.09,    15.94,    21.51
       81.0,      16.70,    17.48,    12.00,    15.90,    21.43
       82.0,      16.63,    17.39,    11.90,    15.87,    21.35
       83.0,      16.55,    17.30,    11.81,    15.83,    21.27
       84.0,      16.48,    17.21,    11.72,    15.80,    21.19
       85.0,      16.41,    17.12,    11.63,    15.76,    21.11
       86.0,      16.34,    17.04,    11.55,    15.73,    21.04
       87.0,      16.27,    16.96,    11.46,    15.69,    20.96
       88.0,      16.20,    16.88,    11.38,    15.66,    20.88
       89.0,      16.13,    16.80,    11.30,    15.62,    20.80
       90.0,      16.06,    16.72,    11.22,    15.59,    20.73
       91.0,      16.00,    16.65,    11.14,    15.55,    20.65
       92.0,      15.93,    16.57,    11.06,    15.52,    20.58
       93.0,      15.87,    16.50,    10.99,    15.48,    20.50
       94.0,      15.80,    16.43,    10.91,    15.45,    20.42
       95.0,      15.74,    16.36,    10.84,    15.41,    20.35
       96.0,      15.68,    16.29,    10.77,    15.38,    20.28
       97.0,      15.62,    16.22,    10.70,    15.34,    20.20
       98.0,      15.56,    16.16,    10.64,    15.31,    20.13
       99.0,      15.50,    16.10,    10.57,    15.28,    20.05
      100.0,      15.44,    16.03,    10.51,    15.24,    19.98
      101.0,      15.38,    15.97,    10.44,    15.21,    19.91
      102.0,      15.33,    15.91,    10.38,    15.17,    19.84
      103.0,      15.27,    15.85,    10.32,    15.14,    19.76
      104.0,      15.21,    15.80,    10.26,    15.11,    19.69
      105.0,      15.16,    15.74,    10.20,    15.07,    19.62
      106.0,      15.10,    15.68,    10.14,    15.04,    19.55
      107.0,      15.05,    15.63,    10.09,    15.01,    19.48
      108.0,      15.00,    15.58,    10.03,    14.97,    19.41
      109.0,      14.95,    15.52,     9.98,    14.94,    19.34
      110.0,      14.89,    15.47,     9.93,    14.91,    19.27
      111.0,      14.84,    15.42,     9.87,    14.87,    19.20
      112.0,      14.79,    15.37,     9.82,    14.84,    19.13
      113.0,      14.74,    15.32,     9.77,    14.81,    19.06
      114.0,      14.69,    15.28,     9.73,    14.77,    18.99
      115.0,      14.64,    15.23,     9.68,    14.74,    18.92
      116.0,      14.59,    15.18,     9.63,    14.71,    18.86
      117.0,      14.55,    15.14,     9.58,    14.67,    18.79
      118.0,      14.50,    15.10,     9.54,    14.64,    18.72
      119.0,      14.45,    15.05,     9.49,    14.61,    18.65
      120.0,      14.41,    15.01,     9.45,    14.58,    18.59
      121.0,      14.36,    14.97,     9.41,    14.54,    18.52
      122.0,      14.31,    14.93,     9.37,    14.51,    18.46
      123.0,      14.27,    14.88,     9.33,    14.48,    18.39
      124.0,      14.23,    14.85,     9.29,    14.45,    18.32
      125.0,      14.18,    14.81,     9.25,    14.42,    18.26
      126.0,      14.14,    14.77,     9.21,    14.38,    18.19
      127.0,      14.09,    14.73,     9.17,    14.35,    18.13
      128.0,      14.05,    14.69,     9.13,    14.32,    18.07
      129.0,      14.01,    14.65,     9.09,    14.29,    18.00
      130.0,      13.97,    14.62,     9.06,    14.26,    17.94
      131.0,      13.93,    14.58,     9.02,    14.22,    17.88
      132.0,      13.89,    14.55,     8.99,    14.19,    17.81
      133.0,      13.84,    14.51,     8.95,    14.16,    17.75
      134.0,      13.80,    14.48,     8.92,    14.13,    17.69
      135.0,      13.76,    14.44,     8.89,    14.10,    17.62
      136.0,      13.72,    14.41,     8.86,    14.07,    17.56
      137.0,      13.68,    14.38,     8.82,    14.04,    17.50
      138.0,      13.65,    14.35,     8.79,    14.00,    17.44
      139.0,      13.61,    14.32,     8.76,    13.97,    17.38
      140.0,      13.57,    14.28,     8.73,    13.94,    17.32
      141.0,      13.53,    14.25,     8.70,    13.91,    17.26
      142.0,      13.49,    14.22,     8.67,    13.88,    17.20
      143.0,      13.46,    14.19,     8.64,    13.85,    17.14
      144.0,      13.42,    14.16,     8.62,    13.82,    17.08
      145.0,      13.38,    14.13,     8.59,    13.79,    17.02
      146.0,      13.35,    14.10,     8.56,    13.76,    16.96
      147.0,      13.31,    14.08,     8.53,    13.73,    16.90
      148.0,      13.27,    14.05,     8.51,    13.70,    16.84
      149.0,      13.24,    14.02,     8.48,    13.67,    16.78
      150.0,      13.20,    13.99,     8.46,    13.64,    16.73
      151.0,      13.17,    13.96,     8.43,    13.61,    16.67
      152.0,      13.13,    13.94,     8.41,    13.58,    16.61
      153.0,      13.10,    13.91,     8.38,    13.55,    16.55
      154.0,      13.06,    13.88,     8.36,    13.52,    16.50
      155.0,      13.03,    13.86,     8.34,    13.49,    16.44
      156.0,      13.00,    13.83,     8.31,    13.46,    16.38
      157.0,      12.96,    13.81,     8.29,    13.43,    16.33
      158.0,      12.93,    13.78,     8.27,    13.40,    16.27
      159.0,      12.90,    13.76,     8.25,    13.37,    16.21
      160.0,      12.86,    13.73,     8.22,    13.34,    16.16
      161.0,      12.83,    13.71,     8.20,    13.31,    16.10
      162.0,      12.80,    13.68,     8.18,    13.28,    16.05
      163.0,      12.77,    13.66,     8.16,    13.25,    15.99
      164.0,      12.73,    13.64,     8.14,    13.22,    15.94
      165.0,      12.70,    13.61,     8.12,    13.19,    15.88
      166.0,      12.67,    13.59,     8.10,    13.16,    15.83
      167.0,      12.64,    13.57,     8.08,    13.13,    15.78
      168.0,      12.61,    13.54,     8.06,    13.10,    15.72
      169.0,      12.58,    13.52,     8.04,    13.07,    15.67
      170.0,      12.55,    13.50,     8.02,    13.05,    15.62
      171.0,      12.52,    13.48,     8.01,    13.02,    15.56
      172.0,      12.49,    13.45,     7.99,    12.99,    15.51
      173.0,      12.46,    13.43,     7.97,    12.96,    15.46
      174.0,      12.43,    13.41,     7.95,    12.93,    15.41
      175.0,      12.40,    13.39,     7.93,    12.90,    15.35
      176.0,      12.37,    13.37,     7.92,    12.87,    15.30
      177.0,      12.34,    13.35,     7.90,    12.85,    15.25
      178.0,      12.31,    13.33,     7.88,    12.82,    15.20
      179.0,      12.28,    13.31,     7.87,    12.79,    15.15
      180.0,      12.25,    13.28,     7.85,    12.76,    15.10
      181.0,      12.22,    13.26,     7.83,    12.73,    15.05
      182.0,      12.19,    13.24,     7.82,    12.70,    15.00
      183.0,      12.16,    13.22,     7.80,    12.68,    14.95
      184.0,      12.13,    13.20,     7.79,    12.65,    14.90
      185.0,      12.11,    13.18,     7.77,    12.62,    14.85
      186.0,      12.08,    13.16,     7.76,    12.59,    14.80
      187.0,      12.05,    13.14,     7.74,    12.57,    14.75
      188.0,      12.02,    13.12,     7.73,    12.54,    14.70
      189.0,      11.99,    13.10,     7.71,    12.51,    14.65
      190.0,      11.97,    13.09,     7.70,    12.48,    14.60
      191.0,      11.94,    13.07,     7.68,    12.46,    14.55
      192.0,      11.91,    13.05,     7.67,    12.43,    14.50
      193.0,      11.89,    13.03,     7.66,    12.40,    14.46
      194.0,      11.86,    13.01,     7.64,    12.37,    14.41
      195.0,      11.83,    12.99,     7.63,    12.35,    14.36
      196.0,      11.80,    12.97,     7.62,    12.32,    14.31
      197.0,      11.78,    12.95,     7.60,    12.29,    14.27
      198.0,      11.75,    12.93,     7.59,    12.26,    14.22
      199.0,      11.73,    12.92,     7.58,    12.24,    14.17
      200.0,      11.70,    12.90,     7.56,    12.21,    14.13
      201.0,      11.67,    12.88,     7.55,    12.18,    14.08
      202.0,      11.65,    12.86,     7.54,    12.16,    14.03
      203.0,      11.62,    12.84,     7.52,    12.13,    13.99
      204.0,      11.60,    12.83,     7.51,    12.10,    13.94
      205.0,      11.57,    12.81,     7.50,    12.08,    13.90
      206.0,      11.54,    12.79,     7.49,    12.05,    13.85
      207.0,      11.52,    12.77,     7.48,    12.02,    13.80
      208.0,      11.49,    12.76,     7.46,    12.00,    13.76
      209.0,      11.47,    12.74,     7.45,    11.97,    13.71
      210.0,      11.44,    12.72,     7.44,    11.95,    13.67
      211.0,      11.42,    12.70,     7.43,    11.92,    13.63
      212.0,      11.39,    12.69,     7.42,    11.89,    13.58
      213.0,      11.37,    12.67,     7.41,    11.87,    13.54
      214.0,      11.35,    12.65,     7.40,    11.84,    13.49
      215.0,      11.32,    12.63,     7.38,    11.81,    13.45
      216.0,      11.30,    12.62,     7.37,    11.79,    13.41
      217.0,      11.27,    12.60,     7.36,    11.76,    13.36
      218.0,      11.25,    12.58,     7.35,    11.74,    13.32
      219.0,      11.22,    12.57,     7.34,    11.71,    13.28
      220.0,      11.20,    12.55,     7.33,    11.69,    13.23
      221.0,      11.18,    12.53,     7.32,    11.66,    13.19
      222.0,      11.15,    12.52,     7.31,    11.63,    13.15
      223.0,      11.13,    12.50,     7.30,    11.61,    13.11
      224.0,      11.10,    12.48,     7.29,    11.58,    13.06
      225.0,      11.08,    12.47,     7.28,    11.56,    13.02
      226.0,      11.06,    12.45,     7.27,    11.53,    12.98
      227.0,      11.03,    12.44,     7.26,    11.51,    12.94
      228.0,      11.01,    12.42,     7.25,    11.48,    12.90
      229.0,      10.99,    12.40,     7.24,    11.46,    12.86
      230.0,      10.97,    12.39,     7.23,    11.43,    12.81
      231.0,      10.94,    12.37,     7.22,    11.41,    12.77
      232.0,      10.92,    12.35,     7.21,    11.38,    12.73
      233.0,      10.90,    12.34,     7.20,    11.36,    12.69
      234.0,      10.87,    12.32,     7.19,    11.33,    12.65
      235.0,      10.85,    12.31,     7.18,    11.31,    12.61
      236.0,      10.83,    12.29,     7.17,    11.28,    12.57
      237.0,      10.81,    12.28,     7.16,    11.26,    12.53
      238.0,      10.78,    12.26,     7.15,    11.23,    12.49
      239.0,      10.76,    12.24,     7.14,    11.21,    12.45
      240.0,      10.74,    12.23,     7.13,    11.18,    12.41
      241.0,      10.72,    12.21,     7.12,    11.16,    12.37
      242.0,      10.70,    12.20,     7.11,    11.14,    12.33
      243.0,      10.67,    12.18,     7.10,    11.11,    12.29
      244.0,      10.65,    12.17,     7.10,    11.09,    12.26
      245.0,      10.63,    12.15,     7.09,    11.06,    12.22
      246.0,      10.61,    12.13,     7.08,    11.04,    12.18
      247.0,      10.59,    12.12,     7.07,    11.01,    12.14
      248.0,      10.56,    12.10,     7.06,    10.99,    12.10
      249.0,      10.54,    12.09,     7.05,    10.97,    12.06
      250.0,      10.52,    12.07,     7.04,    10.94,    12.03
      251.0,      10.50,    12.06,     7.03,    10.92,    11.99
      252.0,      10.48,    12.04,     7.03,    10.89,    11.95
      253.0,      10.46,    12.03,     7.02,    10.87,    11.91
      254.0,      10.44,    12.01,     7.01,    10.85,    11.88
      255.0,      10.42,    12.00,     7.00,    10.82,    11.84
      256.0,      10.39,    11.98,     6.99,    10.80,    11.80
      257.0,      10.37,    11.97,     6.98,    10.78,    11.77
      258.0,      10.35,    11.95,     6.97,    10.75,    11.73
      259.0,      10.33,    11.94,     6.97,    10.73,    11.69
      260.0,      10.31,    11.92,     6.96,    10.71,    11.66
      261.0,      10.29,    11.91,     6.95,    10.68,    11.62
      262.0,      10.27,    11.89,     6.94,    10.66,    11.58
      263.0,      10.25,    11.88,     6.93,    10.64,    11.55
      264.0,      10.23,    11.86,     6.93,    10.61,    11.51
      265.0,      10.21,    11.85,     6.92,    10.59,    11.48
      266.0,      10.19,    11.83,     6.91,    10.57,    11.44
      267.0,      10.17,    11.82,     6.90,    10.54,    11.41
      268.0,      10.15,    11.80,     6.89,    10.52,    11.37
      269.0,      10.13,    11.79,     6.89,    10.50,    11.34
      270.0,      10.11,    11.77,     6.88,    10.47,    11.30
      271.0,      10.09,    11.76,     6.87,    10.45,    11.27
      272.0,      10.07,    11.75,     6.86,    10.43,    11.23
      273.0,      10.05,    11.73,     6.85,    10.41,    11.20
      274.0,      10.03,    11.72,     6.85,    10.38,    11.16
      275.0,      10.01,    11.70,     6.84,    10.36,    11.13
      276.0,       9.99,    11.69,     6.83,    10.34,    11.09
      277.0,       9.97,    11.67,     6.82,    10.32,    11.06
      278.0,       9.95,    11.66,     6.82,    10.29,    11.03
      279.0,       9.93,    11.64,     6.81,    10.27,    10.99
      280.0,       9.91,    11.63,     6.80,    10.25,    10.96
      281.0,       9.89,    11.62,     6.79,    10.23,    10.93
      282.0,       9.87,    11.60,     6.78,    10.20,    10.89
      283.0,       9.85,    11.59,     6.78,    10.18,    10.86
      284.0,       9.83,    11.57,     6.77,    10.16,    10.83
      285.0,       9.81,    11.56,     6.76,    10.14,    10.79
      286.0,       9.79,    11.54,     6.75,    10.12,    10.76
      287.0,       9.77,    11.53,     6.75,    10.09,    10.73
      288.0,       9.76,    11.52,     6.74,    10.07,    10.69
      289.0,       9.74,    11.50,     6.73,    10.05,    10.66
      290.0,       9.72,    11.49,     6.72,    10.03,    10.63
      291.0,       9.70,    11.47,     6.72,    10.01,    10.60
      292.0,       9.68,    11.46,     6.71,     9.98,    10.57
      293.0,       9.66,    11.45,     6.70,     9.96,    10.53
      294.0,       9.64,    11.43,     6.70,     9.94,    10.50
      295.0,       9.62,    11.42,     6.69,     9.92,    10.47
      296.0,       9.61,    11.40,     6.68,     9.90,    10.44
      297.0,       9.59,    11.39,     6.67,     9.88,    10.41
      298.0,       9.57,    11.38,     6.67,     9.86,    10.38
      299.0,       9.55,    11.36,     6.66,     9.83,    10.35
      300.0,       9.53,    11.35,     6.65,     9.81,    10.31
      301.0,       9.51,    11.33,     6.64,     9.79,    10.28
      302.0,       9.49,    11.32,     6.64,     9.77,    10.25
      303.0,       9.48,    11.31,     6.63,     9.75,    10.22
      304.0,       9.46,    11.29,     6.62,     9.73,    10.19
      305.0,       9.44,    11.28,     6.62,     9.71,    10.16
      306.0,       9.42,    11.26,     6.61,     9.69,    10.13
      307.0,       9.40,    11.25,     6.60,     9.66,    10.10
      308.0,       9.39,    11.24,     6.60,     9.64,    10.07
      309.0,       9.37,    11.22,     6.59,     9.62,    10.04
      310.0,       9.35,    11.21,     6.58,     9.60,    10.01
