Radius (km), Mean (m/s), NE (m/s), SE (m/s), SW (m/s), NW (m/s)
        0.0,       0.00,     0.00,     0.00,     0.00,     0.00
        1.0,       3.46,     3.45,     3.47,     3.45,     3.48
        2.0,       5.57,     5.72,     5.66,     5.24,     5.67
        3.0,       7.40,     7.75,     7.55,     6.71,     7.59
        4.0,       9.14,     9.74,     9.33,     8.05,     9.43
        5.0,      10.88,    11.78,    11.09,     9.35,    11.29
        6.0,      12.69,    13.93,    12.92,    10.66,    13.23
        7.0,      14.57,    16.18,    14.85,    11.99,    15.27
        8.0,      16.51,    18.48,    16.85,    13.32,    17.37
        9.0,      18.44,    20.76,    18.89,    14.63,    19.48
       10.0,      20.30,    22.92,    20.89,    15.88,    21.51
       11.0,      21.99,    24.84,    22.75,    17.01,    23.34
       12.0,      23.43,    26.46,    24.38,    17.98,    24.92
       13.0,      24.58,    27.70,    25.71,    18.76,    26.15
       14.0,      25.40,    28.54,    26.69,    19.34,    27.02
       15.0,      25.89,    29.01,    27.30,    19.72,    27.53
       16.0,      26.08,    29.14,    27.57,    19.91,    27.70
       17.0,      26.03,    29.00,    27.54,    19.96,    27.60
       18.0,      25.79,    28.67,    27.29,    19.90,    27.30
       19.0,      25.44,    28.24,    26.88,    19.77,    26.87
       20.0,      25.04,    27.75,    26.39,    19.61,    26.39
       21.0,      24.62,    27.27,    25.88,    19.43,    25.90
       22.0,      24.22,    26.80,    25.38,    19.26,    25.42
       23.0,      23.83,    26.36,    24.91,    19.09,    24.97
       24.0,      23.47,    25.94,    24.46,    18.93,    24.54
       25.0,      23.12,    25.54,    24.04,    18.77,    24.13
       26.0,      22.78,    25.15,    23.63,    18.62,    23.74
       27.0,      22.46,    24.77,    23.24,    18.46,    23.36
       28.0,      22.14,    24.41,    22.86,    18.31,    22.99
       29.0,      21.84,    24.06,    22.50,    18.17,    22.64
       30.0,      21.55,    23.73,    22.15,    18.02,    22.30
       31.0,      21.27,    23.41,    21.81,    17.88,    21.98
       32.0,      21.00,    23.10,    21.48,    17.74,    21.66
       33.0,      20.73,    22.80,    21.17,    17.60,    21.36
       34.0,      20.48,    22.51,    20.86,    17.47,    21.07
       35.0,      20.23,    22.24,    20.57,    17.33,    20.79
       36.0,      20.00,    21.97,    20.29,    17.20,    20.52
       37.0,      19.77,    21.72,    20.02,    17.07,    20.26
       38.0,      19.55,    21.47,    19.76,    16.95,    20.01
       39.0,      19.33,    21.23,    19.51,    16.82,    19.77
       40.0,      19.13,    21.00,    19.27,    16.70,    19.54
       41.0,      18.93,    20.78,    19.03,    16.58,    19.31
       42.0,      18.73,    20.57,    18.81,    16.46,    19.09
       43.0,      18.55,    20.36,    18.59,    16.35,    18.89
       44.0,      18.37,    20.17,    18.38,    16.23,    18.69
       45.0,      18.19,    19.98,    18.17,    16.12,    18.49
       46.0,      18.02,    19.79,    17.98,    16.01,    18.31
       47.0,      17.86,    19.62,    17.79,    15.90,    18.13
       48.0,      17.70,    19.44,    17.61,    15.79,    17.95
       49.0,      17.55,    19.28,    17.43,    15.69,    17.78
       50.0,      17.40,    19.12,    17.26,    15.59,    17.62
       51.0,      17.25,    18.97,    17.09,    15.48,    17.47
       52.0,      17.11,    18.82,    16.94,    15.38,    17.32
       53.0,      16.98,    18.68,    16.78,    15.29,    17.17
       54.0,      16.85,    18.54,    16.63,    15.19,    17.03
       55.0,      16.72,    18.41,    16.49,    15.09,    16.89
       56.0,      16.60,    18.28,    16.35,    15.00,    16.76
       57.0,      16.48,    18.16,    16.22,    14.91,    16.64
       58.0,      16.36,    18.04,    16.09,    14.82,    16.52
       59.0,      16.25,    17.92,    15.96,    14.73,    16.40
       60.0,      16.14,    17.81,    15.84,    14.64,    16.28
       61.0,      16.04,    17.70,    15.72,    14.55,    16.17
       62.0,      15.94,    17.60,    15.61,    14.47,    16.07
       63.0,      15.84,    17.50,    15.50,    14.38,    15.96
       64.0,      15.74,    17.40,    15.39,    14.30,    15.86
       65.0,      15.65,    17.31,    15.29,    14.22,    15.77
       66.0,      15.55,    17.22,    15.19,    14.14,    15.68
       67.0,      15.47,    17.13,    15.09,    14.06,    15.59
       68.0,      15.38,    17.05,    14.99,    13.99,    15.50
       69.0,      15.30,    16.96,    14.90,    13.91,    15.41
       70.0,      15.22,    16.88,    14.81,    13.83,    15.33
       71.0,      15.14,    16.81,    14.73,    13.76,    15.25
       72.0,      15.06,    16.73,    14.64,    13.69,    15.17
       73.0,      14.98,    16.66,    14.56,    13.62,    15.10
       74.0,      14.91,    16.59,    14.48,    13.55,    15.03
       75.0,      14.84,    16.52,    14.41,    13.48,    14.96
       76.0,      14.77,    16.46,    14.33,    13.41,    14.89
       77.0,      14.70,    16.39,    14.26,    13.34,    14.82
       78.0,      14.64,    16.33,    14.19,    13.28,    14.76
       79.0,      14.57,    16.27,    14.12,    13.21,    14.70
       80.0,      14.51,    16.21,    14.05,    13.15,    14.64
       81.0,      14.45,    16.16,    13.99,    13.08,    14.58
       82.0,      14.39,    16.10,    13.92,    13.02,    14.52
       83.0,      14.33,    16.05,    13.86,    12.96,    14.47
       84.0,      14.28,    16.00,    13.80,    12.90,    14.41
       85.0,      14.22,    15.95,    13.74,    12.84,    14.36
       86.0,      14.17,    15.90,    13.69,    12.78,    14.31
       87.0,      14.12,    15.85,    13.63,    12.73,    14.26
       88.0,      14.07,    15.80,    13.58,    12.67,    14.21
       89.0,      14.02,    15.76,    13.52,    12.61,    14.16
       90.0,      13.97,    15.71,    13.47,    12.56,    14.12
       91.0,      13.92,    15.67,    13.42,    12.51,    14.07
       92.0,      13.87,    15.63,    13.37,    12.45,    14.03
       93.0,      13.82,    15.59,    13.32,    12.40,    13.99
       94.0,      13.78,    15.55,    13.28,    12.35,    13.95
       95.0,      13.74,    15.51,    13.23,    12.30,    13.91
       96.0,      13.69,    15.47,    13.18,    12.25,    13.87
       97.0,      13.65,    15.44,    13.14,    12.20,    13.83
       98.0,      13.61,    15.40,    13.10,    12.15,    13.79
       99.0,      13.57,    15.37,    13.05,    12.10,    13.75
      100.0,      13.53,    15.33,    13.01,    12.05,    13.72
      101.0,      13.49,    15.30,    12.97,    12.01,    13.68
      102.0,      13.45,    15.27,    12.93,    11.96,    13.65
      103.0,      13.41,    15.23,    12.89,    11.92,    13.61
      104.0,      13.38,    15.20,    12.85,    11.87,    13.58
      105.0,      13.34,    15.17,    12.82,    11.83,    13.55
      106.0,      13.30,    15.14,    12.78,    11.78,    13.52
      107.0,      13.27,    15.11,    12.74,    11.74,    13.49
      108.0,      13.24,    15.08,    12.71,    11.70,    13.45
      109.0,      13.20,    15.06,    12.67,    11.66,    13.42
      110.0,      13.17,    15.03,    12.64,    11.62,    13.40
      111.0,      13.14,    15.00,    12.60,    11.58,    13.37
      112.0,      13.10,    14.97,    12.57,    11.54,    13.34
      113.0,      13.07,    14.95,    12.53,    11.50,    13.31
      114.0,      13.04,    14.92,    12.50,    11.46,    13.28
      115.0,      13.01,    14.90,    12.47,    11.42,    13.26
      116.0,      12.98,    14.87,    12.44,    11.38,    13.23
      117.0,      12.95,    14.85,    12.41,    11.34,    13.20
      118.0,      12.92,    14.82,    12.38,    11.31,    13.18
      119.0,      12.89,    14.80,    12.35,    11.27,    13.15
      120.0,      12.86,    14.78,    12.32,    11.24,    13.13
      121.0,      12.84,    14.75,    12.29,    11.20,    13.10
      122.0,      12.81,    14.73,    12.26,    11.17,    13.08
      123.0,      12.78,    14.71,    12.23,    11.13,    13.05
      124.0,      12.75,    14.69,    12.20,    11.10,    13.03
      125.0,      12.73,    14.67,    12.17,    11.06,    13.01
      126.0,      12.70,    14.64,    12.14,    11.03,    12.98
      127.0,      12.67,    14.62,    12.12,    11.00,    12.96
      128.0,      12.65,    14.60,    12.09,    10.97,    12.94
      129.0,      12.62,    14.58,    12.06,    10.93,    12.92
      130.0,      12.60,    14.56,    12.03,    10.90,    12.90
      131.0,      12.57,    14.54,    12.01,    10.87,    12.87
      132.0,      12.55,    14.52,    11.98,    10.84,    12.85
      133.0,      12.53,    14.50,    11.96,    10.81,    12.83
      134.0,      12.50,    14.48,    11.93,    10.78,    12.81
      135.0,      12.48,    14.46,    11.90,    10.75,    12.79
      136.0,      12.45,    14.44,    11.88,    10.72,    12.77
      137.0,      12.43,    14.43,    11.85,    10.70,    12.75
      138.0,      12.41,    14.41,    11.83,    10.67,    12.73
      139.0,      12.39,    14.39,    11.80,    10.64,    12.71
      140.0,      12.36,    14.37,    11.78,    10.61,    12.69
      141.0,      12.34,    14.35,    11.76,    10.58,    12.67
      142.0,      12.32,    14.33,    11.73,    10.56,    12.65
      143.0,      12.30,    14.32,    11.71,    10.53,    12.63
      144.0,      12.28,    14.30,    11.68,    10.50,    12.61
      145.0,      12.25,    14.28,    11.66,    10.48,    12.59
      146.0,      12.23,    14.26,    11.64,    10.45,    12.58
      147.0,      12.21,    14.25,    11.61,    10.43,    12.56
      148.0,      12.19,    14.23,    11.59,    10.40,    12.54
      149.0,      12.17,    14.21,    11.57,    10.38,    12.52
      150.0,      12.15,    14.20,    11.55,    10.35,    12.50
      151.0,      12.13,    14.18,    11.52,    10.33,    12.48
      152.0,      12.11,    14.16,    11.50,    10.30,    12.47
      153.0,      12.09,    14.15,    11.48,    10.28,    12.45
      154.0,      12.07,    14.13,    11.46,    10.26,    12.43
      155.0,      12.05,    14.11,    11.43,    10.23,    12.41
      156.0,      12.03,    14.10,    11.41,    10.21,    12.40
      157.0,      12.01,    14.08,    11.39,    10.19,    12.38
      158.0,      11.99,    14.07,    11.37,    10.17,    12.36
      159.0,      11.97,    14.05,    11.35,    10.14,    12.34
      160.0,      11.95,    14.04,    11.33,    10.12,    12.33
      161.0,      11.93,    14.02,    11.30,    10.10,    12.31
      162.0,      11.91,    14.00,    11.28,    10.08,    12.29
      163.0,      11.90,    13.99,    11.26,    10.06,    12.28
      164.0,      11.88,    13.97,    11.24,    10.04,    12.26
      165.0,      11.86,    13.96,    11.22,    10.02,    12.24
      166.0,      11.84,    13.94,    11.20,    10.00,    12.23
      167.0,      11.82,    13.93,    11.18,     9.98,    12.21
      168.0,      11.80,    13.91,    11.16,     9.96,    12.19
      169.0,      11.79,    13.90,    11.14,     9.94,    12.18
      170.0,      11.77,    13.88,    11.12,     9.92,    12.16
      171.0,      11.75,    13.87,    11.10,     9.90,    12.14
      172.0,      11.73,    13.85,    11.08,     9.88,    12.13
      173.0,      11.72,    13.84,    11.06,     9.86,    12.11
      174.0,      11.70,    13.82,    11.04,     9.84,    12.09
      175.0,      11.68,    13.81,    11.01,     9.82,    12.08
      176.0,      11.66,    13.79,    10.99,     9.80,    12.06
      177.0,      11.65,    13.78,    10.97,     9.78,    12.05
      178.0,      11.63,    13.76,    10.95,     9.76,    12.03
      179.0,      11.61,    13.75,    10.93,     9.75,    12.01
      180.0,      11.59,    13.73,    10.92,     9.73,    12.00
      181.0,      11.58,    13.72,    10.90,     9.71,    11.98
      182.0,      11.56,    13.71,    10.88,     9.69,    11.97
      183.0,      11.54,    13.69,    10.86,     9.68,    11.95
      184.0,      11.53,    13.68,    10.84,     9.66,    11.94
      185.0,      11.51,    13.66,    10.82,     9.64,    11.92
      186.0,      11.49,    13.65,    10.80,     9.62,    11.91
      187.0,      11.48,    13.63,    10.78,     9.61,    11.89
      188.0,      11.46,    13.62,    10.76,     9.59,    11.87
      189.0,      11.44,    13.61,    10.74,     9.57,    11.86
      190.0,      11.43,    13.59,    10.72,     9.56,    11.84
      191.0,      11.41,    13.58,    10.70,     9.54,    11.83
      192.0,      11.40,    13.56,    10.68,     9.53,    11.81
      193.0,      11.38,    13.55,    10.66,     9.51,    11.80
      194.0,      11.36,    13.54,    10.64,     9.49,    11.78
      195.0,      11.35,    13.52,    10.62,     9.48,    11.77
      196.0,      11.33,    13.51,    10.61,     9.46,    11.75
      197.0,      11.32,    13.49,    10.59,     9.45,    11.74
      198.0,      11.30,    13.48,    10.57,     9.43,    11.72
      199.0,      11.29,    13.47,    10.55,     9.42,    11.71
      200.0,      11.27,    13.45,    10.53,     9.40,    11.69
      201.0,      11.25,    13.44,    10.51,     9.39,    11.68
      202.0,      11.24,    13.42,    10.49,     9.37,    11.66
      203.0,      11.22,    13.41,    10.47,     9.36,    11.65
      204.0,      11.21,    13.40,    10.46,     9.34,    11.63
      205.0,      11.19,    13.38,    10.44,     9.33,    11.62
      206.0,      11.18,    13.37,    10.42,     9.31,    11.60
      207.0,      11.16,    13.36,    10.40,     9.30,    11.59
      208.0,      11.15,    13.34,    10.38,     9.29,    11.57
      209.0,      11.13,    13.33,    10.36,     9.27,    11.56
      210.0,      11.12,    13.32,    10.35,     9.26,    11.54
      211.0,      11.10,    13.30,    10.33,     9.24,    11.53
      212.0,      11.09,    13.29,    10.31,     9.23,    11.52
      213.0,      11.07,    13.28,    10.29,     9.22,    11.50
      214.0,      11.06,    13.26,    10.27,     9.20,    11.49
      215.0,      11.04,    13.25,    10.26,     9.19,    11.47
      216.0,      11.03,    13.23,    10.24,     9.18,    11.46
      217.0,      11.01,    13.22,    10.22,     9.16,    11.44
      218.0,      11.00,    13.21,    10.20,     9.15,    11.43
      219.0,      10.98,    13.19,    10.18,     9.14,    11.41
      220.0,      10.97,    13.18,    10.17,     9.12,    11.40
      221.0,      10.95,    13.17,    10.15,     9.11,    11.38
      222.0,      10.94,    13.15,    10.13,     9.10,    11.37
      223.0,      10.92,    13.14,    10.11,     9.08,    11.36
      224.0,      10.91,    13.13,    10.09,     9.07,    11.34
      225.0,      10.89,    13.11,    10.08,     9.06,    11.33
      226.0,      10.88,    13.10,    10.06,     9.05,    11.31
      227.0,      10.87,    13.09,    10.04,     9.03,    11.30
      228.0,      10.85,    13.08,    10.02,     9.02,    11.28
      229.0,      10.84,    13.06,    10.01,     9.01,    11.27
      230.0,      10.82,    13.05,     9.99,     9.00,    11.26
      231.0,      10.81,    13.04,     9.97,     8.98,    11.24
      232.0,      10.79,    13.02,     9.95,     8.97,    11.23
      233.0,      10.78,    13.01,     9.94,     8.96,    11.21
      234.0,      10.77,    13.00,     9.92,     8.95,    11.20
      235.0,      10.75,    12.98,     9.90,     8.94,    11.19
      236.0,      10.74,    12.97,     9.88,     8.92,    11.17
      237.0,      10.72,    12.96,     9.87,     8.91,    11.16
      238.0,      10.71,    12.94,     9.85,     8.90,    11.14
      239.0,      10.70,    12.93,     9.83,     8.89,    11.13
      240.0,      10.68,    12.92,     9.81,     8.88,    11.12
      241.0,      10.67,    12.91,     9.80,     8.87,    11.10
      242.0,      10.65,    12.89,     9.78,     8.85,    11.09
      243.0,      10.64,    12.88,     9.76,     8.84,    11.07
      244.0,      10.63,    12.87,     9.75,     8.83,    11.06
      245.0,      10.61,    12.85,     9.73,     8.82,    11.05
      246.0,      10.60,    12.84,     9.71,     8.81,    11.03
      247.0,      10.58,    12.83,     9.70,     8.80,    11.02
      248.0,      10.57,    12.81,     9.68,     8.79,    11.00
      249.0,      10.56,    12.80,     9.66,     8.78,    10.99
      250.0,      10.54,    12.79,     9.64,     8.76,    10.98
      251.0,      10.53,    12.78,     9.63,     8.75,    10.96
      252.0,      10.52,    12.76,     9.61,     8.74,    10.95
      253.0,      10.50,    12.75,     9.59,     8.73,    10.94
      254.0,      10.49,    12.74,     9.58,     8.72,    10.92
      255.0,      10.48,    12.73,     9.56,     8.71,    10.91
      256.0,      10.46,    12.71,     9.54,     8.70,    10.89
      257.0,      10.45,    12.70,     9.53,     8.69,    10.88
      258.0,      10.44,    12.69,     9.51,     8.68,    10.87
      259.0,      10.42,    12.67,     9.49,     8.67,    10.85
      260.0,      10.41,    12.66,     9.48,     8.66,    10.84
      261.0,      10.40,    12.65,     9.46,     8.65,    10.83
      262.0,      10.38,    12.64,     9.44,     8.64,    10.81
      263.0,      10.37,    12.62,     9.43,     8.63,    10.80
      264.0,      10.36,    12.61,     9.41,     8.62,    10.79
      265.0,      10.34,    12.60,     9.40,     8.60,    10.77
      266.0,      10.33,    12.59,     9.38,     8.59,    10.76
      267.0,      10.32,    12.57,     9.36,     8.58,    10.75
      268.0,      10.30,    12.56,     9.35,     8.57,    10.73
      269.0,      10.29,    12.55,     9.33,     8.56,    10.72
      270.0,      10.28,    12.54,     9.31,     8.55,    10.71
      271.0,      10.26,    12.52,     9.30,     8.54,    10.69
      272.0,      10.25,    12.51,     9.28,     8.53,    10.68
      273.0,      10.24,    12.50,     9.26,     8.52,    10.66
      274.0,      10.22,    12.49,     9.25,     8.51,    10.65
      275.0,      10.21,    12.47,     9.23,     8.50,    10.64
      276.0,      10.20,    12.46,     9.22,     8.49,    10.62
      277.0,      10.19,    12.45,     9.20,     8.48,    10.61
      278.0,      10.17,    12.44,     9.18,     8.47,    10.60
      279.0,      10.16,    12.42,     9.17,     8.46,    10.59
      280.0,      10.15,    12.41,     9.15,     8.45,    10.57
      281.0,      10.13,    12.40,     9.14,     8.44,    10.56
      282.0,      10.12,    12.39,     9.12,     8.43,    10.55
      283.0,      10.11,    12.37,     9.10,     8.43,    10.53
      284.0,      10.10,    12.36,     9.09,     8.42,    10.52
      285.0,      10.08,    12.35,     9.07,     8.41,    10.51
      286.0,      10.07,    12.34,     9.06,     8.40,    10.49
      287.0,      10.06,    12.32,     9.04,     8.39,    10.48
      288.0,      10.05,    12.31,     9.03,     8.38,    10.47
      289.0,      10.03,    12.30,     9.01,     8.37,    10.45
      290.0,      10.02,    12.29,     8.99,     8.36,    10.44
      291.0,      10.01,    12.27,     8.98,     8.35,    10.43
      292.0,       9.99,    12.26,     8.96,     8.34,    10.41
      293.0,       9.98,    12.25,     8.95,     8.33,    10.40
      294.0,       9.97,    12.24,     8.93,     8.32,    10.39
      295.0,       9.96,    12.23,     8.92,     8.31,    10.38
      296.0,       9.94,    12.21,     8.90,     8.30,    10.36
      297.0,       9.93,    12.20,     8.88,     8.29,    10.35
      298.0,       9.92,    12.19,     8.87,     8.28,    10.34
      299.0,       9.91,    12.18,     8.85,     8.27,    10.32
      300.0,       9.89,    12.16,     8.84,     8.27,    10.31
      301.0,       9.88,    12.15,     8.82,     8.26,    10.30
      302.0,       9.87,    12.14,     8.81,     8.25,    10.28
      303.0,       9.86,    12.13,     8.79,     8.24,    10.27
      304.0,       9.85,    12.12,     8.78,     8.23,    10.26
      305.0,       9.83,    12.10,     8.76,     8.22,    10.25
      306.0,       9.82,    12.09,     8.75,     8.21,    10.23
      307.0,       9.81,    12.08,     8.73,     8.20,    10.22
      308.0,       9.80,    12.07,     8.72,     8.19,    10.21
      309.0,       9.78,    12.06,     8.70,     8.18,    10.20
      310.0,       9.77,    12.04,     8.69,     8.17,    10.18
