Radius (km), Mean (m/s), NE (m/s), SE (m/s), SW (m/s), NW (m/s)
        0.0,       0.00,     0.00,     0.00,     0.00,     0.00
        1.0,       2.43,     2.39,     2.47,     2.46,     2.39
        2.0,       3.77,     3.84,     3.77,     3.64,     3.84
        3.0,       4.88,     5.06,     4.82,     4.59,     5.06
        4.0,       5.86,     6.16,     5.74,     5.40,     6.16
        5.0,       6.76,     7.18,     6.57,     6.13,     7.17
        6.0,       7.60,     8.13,     7.33,     6.80,     8.13
        7.0,       8.39,     9.04,     8.05,     7.42,     9.03
        8.0,       9.13,     9.90,     8.73,     8.00,     9.89
        9.0,       9.85,    10.74,     9.38,     8.56,    10.72
       10.0,      10.54,    11.54,    10.00,     9.08,    11.52
       11.0,      11.20,    12.32,    10.60,     9.59,    12.30
       12.0,      11.84,    13.07,    11.17,    10.08,    13.05
       13.0,      12.47,    13.81,    11.73,    10.54,    13.79
       14.0,      13.07,    14.53,    12.27,    11.00,    14.50
       15.0,      13.66,    15.23,    12.79,    11.44,    15.20
       16.0,      14.24,    15.92,    13.30,    11.86,    15.89
       17.0,      14.81,    16.60,    13.80,    12.28,    16.56
       18.0,      15.38,    17.31,    14.31,    12.69,    17.23
       19.0,      15.98,    18.06,    14.83,    13.11,    17.91
       20.0,      16.61,    18.88,    15.41,    13.55,    18.62
       21.0,      17.30,    19.77,    16.03,    14.01,    19.37
       22.0,      18.03,    20.73,    16.71,    14.49,    20.17
       23.0,      18.79,    21.72,    17.43,    14.99,    21.01
       24.0,      19.56,    22.71,    18.15,    15.50,    21.86
       25.0,      20.29,    23.64,    18.84,    15.98,    22.70
       26.0,      20.96,    24.47,    19.47,    16.44,    23.48
       27.0,      21.54,    25.14,    19.99,    16.83,    24.18
       28.0,      21.98,    25.64,    20.37,    17.16,    24.76
       29.0,      22.29,    25.95,    20.61,    17.40,    25.20
       30.0,      22.46,    26.07,    20.69,    17.57,    25.51
       31.0,      22.51,    26.04,    20.65,    17.67,    25.68
       32.0,      22.46,    25.89,    20.50,    17.71,    25.74
       33.0,      22.34,    25.66,    20.27,    17.71,    25.71
       34.0,      22.17,    25.37,    19.99,    17.68,    25.63
       35.0,      21.98,    25.08,    19.70,    17.63,    25.52
       36.0,      21.80,    24.79,    19.41,    17.58,    25.41
       37.0,      21.62,    24.51,    19.13,    17.54,    25.29
       38.0,      21.44,    24.24,    18.86,    17.49,    25.18
       39.0,      21.28,    23.98,    18.60,    17.45,    25.08
       40.0,      21.12,    23.73,    18.35,    17.41,    24.99
       41.0,      20.96,    23.49,    18.10,    17.37,    24.89
       42.0,      20.81,    23.25,    17.87,    17.34,    24.79
       43.0,      20.66,    23.02,    17.63,    17.30,    24.70
       44.0,      20.51,    22.79,    17.40,    17.26,    24.60
       45.0,      20.37,    22.57,    17.18,    17.22,    24.51
       46.0,      20.23,    22.36,    16.96,    17.18,    24.41
       47.0,      20.09,    22.15,    16.75,    17.14,    24.32
       48.0,      19.95,    21.94,    16.54,    17.10,    24.22
       49.0,      19.82,    21.74,    16.34,    17.06,    24.13
       50.0,      19.69,    21.55,    16.14,    17.02,    24.04
       51.0,      19.56,    21.36,    15.95,    16.99,    23.95
       52.0,      19.43,    21.17,    15.76,    16.95,    23.85
       53.0,      19.31,    20.99,    15.58,    16.91,    23.76
       54.0,      19.19,    20.82,    15.40,    16.87,    23.67
       55.0,      19.07,    20.64,    15.22,    16.83,    23.58
       56.0,      18.95,    20.48,    15.05,    16.80,    23.49
       57.0,      18.84,    20.31,    14.88,    16.76,    23.40
       58.0,      18.73,    20.15,    14.72,    16.72,    23.31
       59.0,      18.61,    20.00,    14.56,    16.68,    23.22
       60.0,      18.51,    19.84,    14.40,    16.64,    23.13
       61.0,      18.40,    19.70,    14.25,    16.61,    23.05
       62.0,      18.29,    19.55,    14.10,    16.57,    22.96
       63.0,      18.19,    19.41,    13.95,    16.53,    22.87
       64.0,      18.09,    19.27,    13.81,    16.50,    22.78
       65.0,      17.99,    19.14,    13.67,    16.46,    22.70
       66.0,      17.89,    19.00,    13.54,    16.42,    22.61
       67.0,      17.80,    18.87,    13.40,    16.38,    22.53
       68.0,      17.70,    18.75,    13.27,    16.35,    22.44
       69.0,      17.61,    18.63,    13.15,    16.31,    22.36
       70.0,      17.52,    18.51,    13.02,    16.27,    22.27
       71.0,      17.43,    18.39,    12.90,    16.24,    22.19
       72.0,      17.34,    18.27,    12.78,    16.20,    22.11
       73.0,      17.25,    18.16,    12.67,    16.16,    22.02
       74.0,      17.17,    18.05,    12.55,    16.13,    21.94
       75.0,      17.08,    17.95,    12.44,    16.09,    21.86
       76.0,      17.00,    17.84,    12.33,    16.06,    21.78
       77.0,      16.92,    17.74,    12.23,    16.02,    21.70
       78.0,      16.84,    17.64,    12.12,    15.98,    21.61
       79.0,      16.76,    17.54,    12.02,    15.95,    21.53
       80.0,      16.68,    17.45,    11.92,    15.91,    21.45
       81.0,      16.61,    17.36,    11.83,    15.88,    21.37
       82.0,      16.53,    17.26,    11.73,    15.84,    21.29
       83.0,      16.46,    17.18,    11.64,    15.81,    21.22
       84.0,      16.39,    17.09,    11.55,    15.77,    21.14
       85.0,      16.31,    17.00,    11.46,    15.74,    21.06
       86.0,      16.24,    16.92,    11.38,    15.70,    20.98
       87.0,      16.17,    16.84,    11.29,    15.66,    20.90
       88.0,      16.11,    16.76,    11.21,    15.63,    20.83
       89.0,      16.04,    16.68,    11.13,    15.59,    20.75
       90.0,      15.97,    16.60,    11.05,    15.56,    20.67
       91.0,      15.91,    16.53,    10.97,    15.52,    20.60
       92.0,      15.84,    16.46,    10.90,    15.49,    20.52
       93.0,      15.78,    16.39,    10.82,    15.46,    20.44
       94.0,      15.71,    16.32,    10.75,    15.42,    20.37
       95.0,      15.65,    16.25,    10.68,    15.39,    20.30
       96.0,      15.59,    16.18,    10.61,    15.35,    20.22
       97.0,      15.53,    16.11,    10.54,    15.32,    20.15
       98.0,      15.47,    16.05,    10.48,    15.28,    20.07
       99.0,      15.41,    15.99,    10.41,    15.25,    20.00
      100.0,      15.35,    15.92,    10.35,    15.22,    19.93
      101.0,      15.30,    15.86,    10.29,    15.18,    19.85
      102.0,      15.24,    15.80,    10.23,    15.15,    19.78
      103.0,      15.18,    15.75,    10.17,    15.11,    19.71
      104.0,      15.13,    15.69,    10.11,    15.08,    19.64
      105.0,      15.07,    15.63,    10.05,    15.05,    19.57
      106.0,      15.02,    15.58,    10.00,    15.01,    19.50
      107.0,      14.97,    15.52,     9.94,    14.98,    19.43
      108.0,      14.91,    15.47,     9.89,    14.95,    19.36
      109.0,      14.86,    15.42,     9.84,    14.91,    19.29
      110.0,      14.81,    15.37,     9.78,    14.88,    19.22
      111.0,      14.76,    15.32,     9.73,    14.85,    19.15
      112.0,      14.71,    15.27,     9.68,    14.81,    19.08
      113.0,      14.66,    15.22,     9.64,    14.78,    19.01
      114.0,      14.61,    15.17,     9.59,    14.75,    18.94
      115.0,      14.56,    15.13,     9.54,    14.71,    18.87
      116.0,      14.52,    15.08,     9.50,    14.68,    18.80
      117.0,      14.47,    15.04,     9.45,    14.65,    18.74
      118.0,      14.42,    14.99,     9.41,    14.62,    18.67
      119.0,      14.38,    14.95,     9.37,    14.58,    18.60
      120.0,      14.33,    14.91,     9.33,    14.55,    18.54
      121.0,      14.28,    14.87,     9.28,    14.52,    18.47
      122.0,      14.24,    14.83,     9.24,    14.49,    18.40
      123.0,      14.20,    14.78,     9.20,    14.45,    18.34
      124.0,      14.15,    14.75,     9.17,    14.42,    18.27
      125.0,      14.11,    14.71,     9.13,    14.39,    18.21
      126.0,      14.07,    14.67,     9.09,    14.36,    18.14
      127.0,      14.02,    14.63,     9.06,    14.33,    18.08
      128.0,      13.98,    14.59,     9.02,    14.29,    18.02
      129.0,      13.94,    14.56,     8.98,    14.26,    17.95
      130.0,      13.90,    14.52,     8.95,    14.23,    17.89
      131.0,      13.86,    14.49,     8.92,    14.20,    17.83
      132.0,      13.82,    14.45,     8.88,    14.17,    17.76
      133.0,      13.78,    14.42,     8.85,    14.14,    17.70
      134.0,      13.74,    14.38,     8.82,    14.10,    17.64
      135.0,      13.70,    14.35,     8.79,    14.07,    17.58
      136.0,      13.66,    14.32,     8.76,    14.04,    17.51
      137.0,      13.62,    14.28,     8.73,    14.01,    17.45
      138.0,      13.58,    14.25,     8.70,    13.98,    17.39
      139.0,      13.54,    14.22,     8.67,    13.95,    17.33
      140.0,      13.50,    14.19,     8.64,    13.92,    17.27
      141.0,      13.47,    14.16,     8.61,    13.89,    17.21
      142.0,      13.43,    14.13,     8.58,    13.86,    17.15
      143.0,      13.39,    14.10,     8.56,    13.82,    17.09
      144.0,      13.36,    14.07,     8.53,    13.79,    17.03
      145.0,      13.32,    14.04,     8.51,    13.76,    16.97
      146.0,      13.28,    14.01,     8.48,    13.73,    16.91
      147.0,      13.25,    13.98,     8.45,    13.70,    16.85
      148.0,      13.21,    13.96,     8.43,    13.67,    16.79
      149.0,      13.18,    13.93,     8.41,    13.64,    16.74
      150.0,      13.14,    13.90,     8.38,    13.61,    16.68
      151.0,      13.11,    13.87,     8.36,    13.58,    16.62
      152.0,      13.07,    13.85,     8.33,    13.55,    16.56
      153.0,      13.04,    13.82,     8.31,    13.52,    16.51
      154.0,      13.01,    13.80,     8.29,    13.49,    16.45
      155.0,      12.97,    13.77,     8.27,    13.46,    16.39
      156.0,      12.94,    13.74,     8.25,    13.43,    16.34
      157.0,      12.91,    13.72,     8.23,    13.40,    16.28
      158.0,      12.87,    13.70,     8.20,    13.37,    16.22
      159.0,      12.84,    13.67,     8.18,    13.34,    16.17
      160.0,      12.81,    13.65,     8.16,    13.31,    16.11
      161.0,      12.78,    13.62,     8.14,    13.28,    16.06
      162.0,      12.74,    13.60,     8.12,    13.25,    16.00
      163.0,      12.71,    13.58,     8.10,    13.23,    15.95
      164.0,      12.68,    13.55,     8.09,    13.20,    15.89
      165.0,      12.65,    13.53,     8.07,    13.17,    15.84
      166.0,      12.62,    13.51,     8.05,    13.14,    15.78
      167.0,      12.59,    13.48,     8.03,    13.11,    15.73
      168.0,      12.56,    13.46,     8.01,    13.08,    15.68
      169.0,      12.53,    13.44,     7.99,    13.05,    15.62
      170.0,      12.50,    13.42,     7.98,    13.02,    15.57
      171.0,      12.47,    13.40,     7.96,    12.99,    15.52
      172.0,      12.44,    13.37,     7.94,    12.96,    15.47
      173.0,      12.41,    13.35,     7.93,    12.94,    15.41
      174.0,      12.38,    13.33,     7.91,    12.91,    15.36
      175.0,      12.35,    13.31,     7.89,    12.88,    15.31
      176.0,      12.32,    13.29,     7.88,    12.85,    15.26
      177.0,      12.29,    13.27,     7.86,    12.82,    15.21
      178.0,      12.26,    13.25,     7.85,    12.79,    15.16
      179.0,      12.23,    13.23,     7.83,    12.77,    15.10
      180.0,      12.20,    13.21,     7.81,    12.74,    15.05
      181.0,      12.18,    13.19,     7.80,    12.71,    15.00
      182.0,      12.15,    13.17,     7.78,    12.68,    14.95
      183.0,      12.12,    13.15,     7.77,    12.65,    14.90
      184.0,      12.09,    13.13,     7.76,    12.63,    14.85
      185.0,      12.06,    13.11,     7.74,    12.60,    14.80
      186.0,      12.04,    13.09,     7.73,    12.57,    14.75
      187.0,      12.01,    13.07,     7.71,    12.54,    14.70
      188.0,      11.98,    13.05,     7.70,    12.51,    14.66
      189.0,      11.95,    13.03,     7.69,    12.49,    14.61
      190.0,      11.93,    13.02,     7.67,    12.46,    14.56
      191.0,      11.90,    13.00,     7.66,    12.43,    14.51
      192.0,      11.87,    12.98,     7.65,    12.40,    14.46
      193.0,      11.85,    12.96,     7.63,    12.38,    14.41
      194.0,      11.82,    12.94,     7.62,    12.35,    14.37
      195.0,      11.79,    12.92,     7.61,    12.32,    14.32
      196.0,      11.77,    12.91,     7.59,    12.30,    14.27
      197.0,      11.74,    12.89,     7.58,    12.27,    14.22
      198.0,      11.71,    12.87,     7.57,    12.24,    14.18
      199.0,      11.69,    12.85,     7.56,    12.21,    14.13
      200.0,      11.66,    12.83,     7.55,    12.19,    14.08
      201.0,      11.64,    12.82,     7.53,    12.16,    14.04
      202.0,      11.61,    12.80,     7.52,    12.13,    13.99
      203.0,      11.59,    12.78,     7.51,    12.11,    13.94
      204.0,      11.56,    12.77,     7.50,    12.08,    13.90
      205.0,      11.54,    12.75,     7.49,    12.05,    13.85
      206.0,      11.51,    12.73,     7.48,    12.03,    13.81
      207.0,      11.49,    12.71,     7.46,    12.00,    13.76
      208.0,      11.46,    12.70,     7.45,    11.98,    13.72
      209.0,      11.44,    12.68,     7.44,    11.95,    13.67
      210.0,      11.41,    12.66,     7.43,    11.92,    13.63
      211.0,      11.39,    12.65,     7.42,    11.90,    13.58
      212.0,      11.36,    12.63,     7.41,    11.87,    13.54
      213.0,      11.34,    12.61,     7.40,    11.84,    13.50
      214.0,      11.31,    12.60,     7.39,    11.82,    13.45
      215.0,      11.29,    12.58,     7.38,    11.79,    13.41
      216.0,      11.27,    12.56,     7.37,    11.77,    13.36
      217.0,      11.24,    12.55,     7.36,    11.74,    13.32
      218.0,      11.22,    12.53,     7.35,    11.72,    13.28
      219.0,      11.19,    12.52,     7.34,    11.69,    13.24
      220.0,      11.17,    12.50,     7.33,    11.66,    13.19
      221.0,      11.15,    12.48,     7.32,    11.64,    13.15
      222.0,      11.12,    12.47,     7.31,    11.61,    13.11
      223.0,      11.10,    12.45,     7.30,    11.59,    13.07
      224.0,      11.08,    12.44,     7.29,    11.56,    13.02
      225.0,      11.05,    12.42,     7.28,    11.54,    12.98
      226.0,      11.03,    12.41,     7.27,    11.51,    12.94
      227.0,      11.01,    12.39,     7.26,    11.49,    12.90
      228.0,      10.99,    12.37,     7.25,    11.46,    12.86
      229.0,      10.96,    12.36,     7.24,    11.44,    12.82
      230.0,      10.94,    12.34,     7.23,    11.41,    12.77
      231.0,      10.92,    12.33,     7.22,    11.39,    12.73
      232.0,      10.89,    12.31,     7.21,    11.36,    12.69
      233.0,      10.87,    12.30,     7.20,    11.34,    12.65
      234.0,      10.85,    12.28,     7.19,    11.31,    12.61
      235.0,      10.83,    12.27,     7.18,    11.29,    12.57
      236.0,      10.80,    12.25,     7.17,    11.26,    12.53
      237.0,      10.78,    12.24,     7.17,    11.24,    12.49
      238.0,      10.76,    12.22,     7.16,    11.21,    12.45
      239.0,      10.74,    12.21,     7.15,    11.19,    12.41
      240.0,      10.72,    12.19,     7.14,    11.16,    12.37
      241.0,      10.69,    12.18,     7.13,    11.14,    12.33
      242.0,      10.67,    12.16,     7.12,    11.11,    12.30
      243.0,      10.65,    12.15,     7.11,    11.09,    12.26
      244.0,      10.63,    12.13,     7.10,    11.07,    12.22
      245.0,      10.61,    12.12,     7.10,    11.04,    12.18
      246.0,      10.59,    12.10,     7.09,    11.02,    12.14
      247.0,      10.57,    12.09,     7.08,    10.99,    12.10
      248.0,      10.54,    12.07,     7.07,    10.97,    12.06
      249.0,      10.52,    12.06,     7.06,    10.95,    12.03
      250.0,      10.50,    12.04,     7.05,    10.92,    11.99
      251.0,      10.48,    12.03,     7.04,    10.90,    11.95
      252.0,      10.46,    12.01,     7.04,    10.87,    11.91
      253.0,      10.44,    12.00,     7.03,    10.85,    11.88
      254.0,      10.42,    11.99,     7.02,    10.83,    11.84
      255.0,      10.40,    11.97,     7.01,    10.80,    11.80
      256.0,      10.38,    11.96,     7.00,    10.78,    11.77
      257.0,      10.36,    11.94,     7.00,    10.76,    11.73
      258.0,      10.34,    11.93,     6.99,    10.73,    11.69
      259.0,      10.31,    11.91,     6.98,    10.71,    11.66
      260.0,      10.29,    11.90,     6.97,    10.69,    11.62
      261.0,      10.27,    11.89,     6.96,    10.66,    11.58
      262.0,      10.25,    11.87,     6.96,    10.64,    11.55
      263.0,      10.23,    11.86,     6.95,    10.62,    11.51
      264.0,      10.21,    11.84,     6.94,    10.59,    11.48
      265.0,      10.19,    11.83,     6.93,    10.57,    11.44
      266.0,      10.17,    11.82,     6.92,    10.55,    11.41
      267.0,      10.15,    11.80,     6.92,    10.52,    11.37
      268.0,      10.13,    11.79,     6.91,    10.50,    11.33
      269.0,      10.11,    11.77,     6.90,    10.48,    11.30
      270.0,      10.09,    11.76,     6.89,    10.45,    11.26
      271.0,      10.07,    11.75,     6.88,    10.43,    11.23
      272.0,      10.05,    11.73,     6.88,    10.41,    11.20
      273.0,      10.03,    11.72,     6.87,    10.39,    11.16
      274.0,      10.01,    11.70,     6.86,    10.36,    11.13
      275.0,       9.99,    11.69,     6.85,    10.34,    11.09
      276.0,       9.98,    11.68,     6.85,    10.32,    11.06
      277.0,       9.96,    11.66,     6.84,    10.30,    11.02
      278.0,       9.94,    11.65,     6.83,    10.27,    10.99
      279.0,       9.92,    11.64,     6.82,    10.25,    10.96
      280.0,       9.90,    11.62,     6.82,    10.23,    10.92
      281.0,       9.88,    11.61,     6.81,    10.21,    10.89
      282.0,       9.86,    11.59,     6.80,    10.18,    10.86
      283.0,       9.84,    11.58,     6.79,    10.16,    10.82
      284.0,       9.82,    11.57,     6.79,    10.14,    10.79
      285.0,       9.80,    11.55,     6.78,    10.12,    10.76
      286.0,       9.78,    11.54,     6.77,    10.10,    10.73
      287.0,       9.76,    11.53,     6.77,    10.07,    10.69
      288.0,       9.75,    11.51,     6.76,    10.05,    10.66
      289.0,       9.73,    11.50,     6.75,    10.03,    10.63
      290.0,       9.71,    11.49,     6.74,    10.01,    10.60
      291.0,       9.69,    11.47,     6.74,     9.99,    10.56
      292.0,       9.67,    11.46,     6.73,     9.97,    10.53
      293.0,       9.65,    11.45,     6.72,     9.94,    10.50
      294.0,       9.63,    11.43,     6.71,     9.92,    10.47
      295.0,       9.62,    11.42,     6.71,     9.90,    10.44
      296.0,       9.60,    11.41,     6.70,     9.88,    10.41
      297.0,       9.58,    11.39,     6.69,     9.86,    10.37
      298.0,       9.56,    11.38,     6.69,     9.84,    10.34
      299.0,       9.54,    11.37,     6.68,     9.81,    10.31
      300.0,       9.52,    11.35,     6.67,     9.79,    10.28
      301.0,       9.51,    11.34,     6.67,     9.77,    10.25
      302.0,       9.49,    11.33,     6.66,     9.75,    10.22
      303.0,       9.47,    11.31,     6.65,     9.73,    10.19
      304.0,       9.45,    11.30,     6.64,     9.71,    10.16
      305.0,       9.43,    11.29,     6.64,     9.69,    10.13
      306.0,       9.42,    11.27,     6.63,     9.67,    10.10
      307.0,       9.40,    11.26,     6.62,     9.65,    10.07
      308.0,       9.38,    11.25,     6.62,     9.62,    10.04
      309.0,       9.36,    11.23,     6.61,     9.60,    10.01
      310.0,       9.35,    11.22,     6.60,     9.58,     9.98
