Radius (km), Mean (m/s), NE (m/s), SE (m/s), SW (m/s), NW (m/s)
        0.0,       0.00,     0.00,     0.00,     0.00,     0.00
        1.0,       2.14,     2.03,     2.03,     2.48,     2.03
        2.0,       3.90,     3.80,     3.80,     4.20,     3.80
        3.0,       5.54,     5.48,     5.48,     5.71,     5.48
        4.0,       7.10,     7.11,     7.11,     7.10,     7.11
        5.0,       8.62,     8.69,     8.69,     8.40,     8.69
        6.0,      10.10,    10.25,    10.25,     9.65,    10.25
        7.0,      11.55,    11.79,    11.79,    10.84,    11.79
        8.0,      12.97,    13.30,    13.30,    12.00,    13.30
        9.0,      14.37,    14.79,    14.79,    13.12,    14.79
       10.0,      15.75,    16.27,    16.27,    14.21,    16.27
       11.0,      17.12,    17.73,    17.73,    15.27,    17.73
       12.0,      18.47,    19.19,    19.19,    16.31,    19.20
       13.0,      19.83,    20.64,    20.66,    17.34,    20.69
       14.0,      21.25,    22.14,    22.20,    18.40,    22.28
       15.0,      22.78,    23.72,    23.87,    19.52,    24.01
       16.0,      24.45,    25.43,    25.71,    20.75,    25.91
       17.0,      26.27,    27.27,    27.73,    22.11,    27.98
       18.0,      28.22,    29.23,    29.89,    23.58,    30.18
       19.0,      30.23,    31.25,    32.13,    25.11,    32.42
       20.0,      32.21,    33.27,    34.33,    26.63,    34.60
       21.0,      34.06,    35.19,    36.39,    28.06,    36.60
       22.0,      35.68,    36.92,    38.18,    29.31,    38.32
       23.0,      36.99,    38.38,    39.61,    30.29,    39.68
       24.0,      37.94,    39.52,    40.64,    30.97,    40.63
       25.0,      38.51,    40.32,    41.23,    31.32,    41.18
       26.0,      38.73,    40.80,    41.42,    31.36,    41.36
       27.0,      38.65,    40.98,    41.27,    31.13,    41.23
       28.0,      38.35,    40.95,    40.86,    30.69,    40.88
       29.0,      37.89,    40.76,    40.29,    30.12,    40.39
       30.0,      37.36,    40.49,    39.63,    29.48,    39.83
       31.0,      36.81,    40.19,    38.96,    28.82,    39.27
       32.0,      36.28,    39.89,    38.31,    28.18,    38.72
       33.0,      35.77,    39.61,    37.69,    27.59,    38.19
       34.0,      35.29,    39.35,    37.10,    27.03,    37.69
       35.0,      34.83,    39.10,    36.53,    26.49,    37.20
       36.0,      34.38,    38.85,    35.98,    25.98,    36.71
       37.0,      33.94,    38.61,    35.44,    25.49,    36.24
       38.0,      33.52,    38.37,    34.91,    25.02,    35.77
       39.0,      33.10,    38.13,    34.39,    24.56,    35.32
       40.0,      32.69,    37.89,    33.89,    24.12,    34.87
       41.0,      32.29,    37.66,    33.40,    23.69,    34.43
       42.0,      31.91,    37.43,    32.92,    23.28,    34.00
       43.0,      31.53,    37.20,    32.45,    22.89,    33.57
       44.0,      31.16,    36.97,    31.99,    22.50,    33.16
       45.0,      30.79,    36.74,    31.55,    22.14,    32.75
       46.0,      30.44,    36.52,    31.11,    21.78,    32.35
       47.0,      30.10,    36.30,    30.69,    21.44,    31.96
       48.0,      29.76,    36.08,    30.27,    21.11,    31.57
       49.0,      29.43,    35.87,    29.87,    20.79,    31.19
       50.0,      29.11,    35.66,    29.47,    20.48,    30.82
       51.0,      28.79,    35.45,    29.09,    20.19,    30.45
       52.0,      28.49,    35.24,    28.71,    19.90,    30.09
       53.0,      28.19,    35.03,    28.35,    19.62,    29.74
       54.0,      27.89,    34.82,    27.99,    19.36,    29.40
       55.0,      27.60,    34.62,    27.64,    19.10,    29.06
       56.0,      27.32,    34.42,    27.29,    18.85,    28.73
       57.0,      27.05,    34.22,    26.96,    18.61,    28.40
       58.0,      26.78,    34.03,    26.63,    18.38,    28.08
       59.0,      26.52,    33.83,    26.32,    18.16,    27.76
       60.0,      26.26,    33.64,    26.00,    17.94,    27.46
       61.0,      26.01,    33.45,    25.70,    17.73,    27.15
       62.0,      25.76,    33.26,    25.40,    17.53,    26.85
       63.0,      25.52,    33.07,    25.11,    17.33,    26.56
       64.0,      25.28,    32.89,    24.83,    17.15,    26.28
       65.0,      25.05,    32.70,    24.55,    16.96,    25.99
       66.0,      24.83,    32.52,    24.28,    16.79,    25.72
       67.0,      24.61,    32.34,    24.02,    16.62,    25.45
       68.0,      24.39,    32.16,    23.76,    16.45,    25.18
       69.0,      24.18,    31.99,    23.51,    16.29,    24.92
       70.0,      23.97,    31.81,    23.27,    16.14,    24.66
       71.0,      23.77,    31.64,    23.03,    15.99,    24.41
       72.0,      23.57,    31.47,    22.79,    15.84,    24.16
       73.0,      23.37,    31.30,    22.56,    15.70,    23.92
       74.0,      23.18,    31.13,    22.34,    15.57,    23.68
       75.0,      22.99,    30.96,    22.12,    15.44,    23.45
       76.0,      22.81,    30.80,    21.90,    15.31,    23.22
       77.0,      22.63,    30.64,    21.70,    15.19,    22.99
       78.0,      22.45,    30.47,    21.49,    15.07,    22.77
       79.0,      22.28,    30.31,    21.29,    14.95,    22.55
       80.0,      22.11,    30.15,    21.10,    14.84,    22.34
       81.0,      21.94,    30.00,    20.90,    14.73,    22.13
       82.0,      21.78,    29.84,    20.72,    14.63,    21.92
       83.0,      21.62,    29.68,    20.54,    14.52,    21.72
       84.0,      21.46,    29.53,    20.36,    14.42,    21.52
       85.0,      21.30,    29.38,    20.18,    14.33,    21.32
       86.0,      21.15,    29.23,    20.01,    14.23,    21.13
       87.0,      21.00,    29.08,    19.85,    14.14,    20.94
       88.0,      20.86,    28.93,    19.68,    14.06,    20.76
       89.0,      20.71,    28.78,    19.52,    13.97,    20.58
       90.0,      20.57,    28.64,    19.37,    13.89,    20.40
       91.0,      20.43,    28.50,    19.21,    13.81,    20.22
       92.0,      20.30,    28.35,    19.07,    13.73,    20.05
       93.0,      20.17,    28.21,    18.92,    13.65,    19.88
       94.0,      20.03,    28.07,    18.78,    13.58,    19.72
       95.0,      19.91,    27.93,    18.64,    13.50,    19.55
       96.0,      19.78,    27.79,    18.50,    13.43,    19.39
       97.0,      19.66,    27.66,    18.37,    13.36,    19.23
       98.0,      19.53,    27.52,    18.23,    13.30,    19.08
       99.0,      19.41,    27.39,    18.11,    13.23,    18.93
      100.0,      19.30,    27.25,    17.98,    13.17,    18.78
      101.0,      19.18,    27.12,    17.86,    13.10,    18.63
      102.0,      19.07,    26.99,    17.74,    13.04,    18.49
      103.0,      18.95,    26.86,    17.62,    12.98,    18.35
      104.0,      18.84,    26.73,    17.50,    12.93,    18.21
      105.0,      18.73,    26.60,    17.39,    12.87,    18.07
      106.0,      18.63,    26.48,    17.28,    12.82,    17.94
      107.0,      18.52,    26.35,    17.17,    12.76,    17.81
      108.0,      18.42,    26.23,    17.07,    12.71,    17.68
      109.0,      18.32,    26.10,    16.96,    12.66,    17.55
      110.0,      18.22,    25.98,    16.86,    12.61,    17.42
      111.0,      18.12,    25.86,    16.76,    12.56,    17.30
      112.0,      18.02,    25.74,    16.66,    12.51,    17.18
      113.0,      17.93,    25.62,    16.57,    12.46,    17.06
      114.0,      17.83,    25.50,    16.47,    12.42,    16.95
      115.0,      17.74,    25.38,    16.38,    12.37,    16.83
      116.0,      17.65,    25.26,    16.29,    12.33,    16.72
      117.0,      17.56,    25.15,    16.20,    12.28,    16.61
      118.0,      17.47,    25.03,    16.12,    12.24,    16.50
      119.0,      17.39,    24.92,    16.03,    12.20,    16.39
      120.0,      17.30,    24.80,    15.95,    12.16,    16.29
      121.0,      17.22,    24.69,    15.87,    12.12,    16.18
      122.0,      17.13,    24.58,    15.79,    12.08,    16.08
      123.0,      17.05,    24.47,    15.71,    12.04,    15.98
      124.0,      16.97,    24.36,    15.63,    12.00,    15.89
      125.0,      16.89,    24.25,    15.56,    11.97,    15.79
      126.0,      16.81,    24.14,    15.48,    11.93,    15.69
      127.0,      16.73,    24.03,    15.41,    11.89,    15.60
      128.0,      16.66,    23.93,    15.34,    11.86,    15.51
      129.0,      16.58,    23.82,    15.27,    11.82,    15.42
      130.0,      16.51,    23.72,    15.20,    11.79,    15.33
      131.0,      16.43,    23.61,    15.13,    11.75,    15.24
      132.0,      16.36,    23.51,    15.06,    11.72,    15.16
      133.0,      16.29,    23.41,    15.00,    11.69,    15.07
      134.0,      16.22,    23.30,    14.93,    11.65,    14.99
      135.0,      16.15,    23.20,    14.87,    11.62,    14.91
      136.0,      16.08,    23.10,    14.81,    11.59,    14.83
      137.0,      16.01,    23.00,    14.75,    11.56,    14.75
      138.0,      15.95,    22.90,    14.69,    11.53,    14.67
      139.0,      15.88,    22.80,    14.63,    11.50,    14.60
      140.0,      15.82,    22.71,    14.57,    11.47,    14.52
      141.0,      15.75,    22.61,    14.52,    11.44,    14.45
      142.0,      15.69,    22.51,    14.46,    11.41,    14.38
      143.0,      15.63,    22.42,    14.40,    11.38,    14.31
      144.0,      15.56,    22.32,    14.35,    11.35,    14.23
      145.0,      15.50,    22.23,    14.30,    11.32,    14.17
      146.0,      15.44,    22.13,    14.25,    11.29,    14.10
      147.0,      15.38,    22.04,    14.19,    11.27,    14.03
      148.0,      15.32,    21.95,    14.14,    11.24,    13.97
      149.0,      15.27,    21.86,    14.09,    11.21,    13.90
      150.0,      15.21,    21.76,    14.04,    11.19,    13.84
      151.0,      15.15,    21.67,    14.00,    11.16,    13.77
      152.0,      15.09,    21.58,    13.95,    11.13,    13.71
      153.0,      15.04,    21.49,    13.90,    11.11,    13.65
      154.0,      14.98,    21.41,    13.86,    11.08,    13.59
      155.0,      14.93,    21.32,    13.81,    11.05,    13.53
      156.0,      14.88,    21.23,    13.77,    11.03,    13.48
      157.0,      14.82,    21.14,    13.72,    11.00,    13.42
      158.0,      14.77,    21.06,    13.68,    10.98,    13.36
      159.0,      14.72,    20.97,    13.64,    10.95,    13.31
      160.0,      14.67,    20.88,    13.59,    10.93,    13.25
      161.0,      14.61,    20.80,    13.55,    10.90,    13.20
      162.0,      14.56,    20.72,    13.51,    10.88,    13.15
      163.0,      14.51,    20.63,    13.47,    10.86,    13.09
      164.0,      14.46,    20.55,    13.43,    10.83,    13.04
      165.0,      14.41,    20.47,    13.39,    10.81,    12.99
      166.0,      14.37,    20.38,    13.35,    10.79,    12.94
      167.0,      14.32,    20.30,    13.31,    10.76,    12.90
      168.0,      14.27,    20.22,    13.28,    10.74,    12.85
      169.0,      14.22,    20.14,    13.24,    10.72,    12.80
      170.0,      14.18,    20.06,    13.20,    10.69,    12.75
      171.0,      14.13,    19.98,    13.17,    10.67,    12.71
      172.0,      14.09,    19.90,    13.13,    10.65,    12.66
      173.0,      14.04,    19.82,    13.10,    10.62,    12.62
      174.0,      13.99,    19.74,    13.06,    10.60,    12.57
      175.0,      13.95,    19.67,    13.03,    10.58,    12.53
      176.0,      13.91,    19.59,    12.99,    10.56,    12.49
      177.0,      13.86,    19.51,    12.96,    10.54,    12.45
      178.0,      13.82,    19.43,    12.93,    10.51,    12.40
      179.0,      13.78,    19.36,    12.89,    10.49,    12.36
      180.0,      13.73,    19.28,    12.86,    10.47,    12.32
      181.0,      13.69,    19.21,    12.83,    10.45,    12.28
      182.0,      13.65,    19.13,    12.80,    10.43,    12.24
      183.0,      13.61,    19.06,    12.76,    10.41,    12.20
      184.0,      13.57,    18.99,    12.73,    10.38,    12.17
      185.0,      13.53,    18.91,    12.70,    10.36,    12.13
      186.0,      13.49,    18.84,    12.67,    10.34,    12.09
      187.0,      13.45,    18.77,    12.64,    10.32,    12.06
      188.0,      13.41,    18.69,    12.61,    10.30,    12.02
      189.0,      13.37,    18.62,    12.58,    10.28,    11.98
      190.0,      13.33,    18.55,    12.55,    10.26,    11.95
      191.0,      13.29,    18.48,    12.52,    10.24,    11.91
      192.0,      13.25,    18.41,    12.50,    10.22,    11.88
      193.0,      13.21,    18.34,    12.47,    10.20,    11.85
      194.0,      13.17,    18.27,    12.44,    10.18,    11.81
      195.0,      13.14,    18.20,    12.41,    10.16,    11.78
      196.0,      13.10,    18.13,    12.38,    10.14,    11.75
      197.0,      13.06,    18.06,    12.36,    10.12,    11.72
      198.0,      13.03,    18.00,    12.33,    10.10,    11.69
      199.0,      12.99,    17.93,    12.30,    10.08,    11.65
      200.0,      12.95,    17.86,    12.28,    10.06,    11.62
      201.0,      12.92,    17.79,    12.25,    10.04,    11.59
      202.0,      12.88,    17.73,    12.22,    10.02,    11.56
      203.0,      12.85,    17.66,    12.20,    10.00,    11.53
      204.0,      12.81,    17.59,    12.17,     9.98,    11.50
      205.0,      12.78,    17.53,    12.15,     9.96,    11.48
      206.0,      12.74,    17.46,    12.12,     9.94,    11.45
      207.0,      12.71,    17.40,    12.10,     9.92,    11.42
      208.0,      12.67,    17.33,    12.07,     9.90,    11.39
      209.0,      12.64,    17.27,    12.05,     9.88,    11.36
      210.0,      12.61,    17.20,    12.02,     9.86,    11.34
      211.0,      12.57,    17.14,    12.00,     9.84,    11.31
      212.0,      12.54,    17.08,    11.97,     9.82,    11.28
      213.0,      12.51,    17.01,    11.95,     9.80,    11.26
      214.0,      12.47,    16.95,    11.93,     9.78,    11.23
      215.0,      12.44,    16.89,    11.90,     9.76,    11.21
      216.0,      12.41,    16.83,    11.88,     9.74,    11.18
      217.0,      12.38,    16.77,    11.86,     9.73,    11.16
      218.0,      12.34,    16.70,    11.83,     9.71,    11.13
      219.0,      12.31,    16.64,    11.81,     9.69,    11.11
      220.0,      12.28,    16.58,    11.79,     9.67,    11.08
      221.0,      12.25,    16.52,    11.77,     9.65,    11.06
      222.0,      12.22,    16.46,    11.74,     9.63,    11.04
      223.0,      12.19,    16.40,    11.72,     9.61,    11.01
      224.0,      12.16,    16.34,    11.70,     9.59,    10.99
      225.0,      12.13,    16.28,    11.68,     9.58,    10.97
      226.0,      12.10,    16.22,    11.65,     9.56,    10.95
      227.0,      12.07,    16.17,    11.63,     9.54,    10.92
      228.0,      12.03,    16.11,    11.61,     9.52,    10.90
      229.0,      12.00,    16.05,    11.59,     9.50,    10.88
      230.0,      11.98,    15.99,    11.57,     9.48,    10.86
      231.0,      11.95,    15.93,    11.55,     9.47,    10.84
      232.0,      11.92,    15.88,    11.53,     9.45,    10.82
      233.0,      11.89,    15.82,    11.50,     9.43,    10.79
      234.0,      11.86,    15.76,    11.48,     9.41,    10.77
      235.0,      11.83,    15.71,    11.46,     9.39,    10.75
      236.0,      11.80,    15.65,    11.44,     9.37,    10.73
      237.0,      11.77,    15.59,    11.42,     9.36,    10.71
      238.0,      11.74,    15.54,    11.40,     9.34,    10.69
      239.0,      11.71,    15.48,    11.38,     9.32,    10.67
      240.0,      11.69,    15.43,    11.36,     9.30,    10.65
      241.0,      11.66,    15.37,    11.34,     9.28,    10.63
      242.0,      11.63,    15.32,    11.32,     9.27,    10.62
      243.0,      11.60,    15.26,    11.30,     9.25,    10.60
      244.0,      11.57,    15.21,    11.28,     9.23,    10.58
      245.0,      11.55,    15.16,    11.26,     9.21,    10.56
      246.0,      11.52,    15.10,    11.24,     9.20,    10.54
      247.0,      11.49,    15.05,    11.22,     9.18,    10.52
      248.0,      11.47,    15.00,    11.20,     9.16,    10.50
      249.0,      11.44,    14.94,    11.18,     9.14,    10.49
      250.0,      11.41,    14.89,    11.16,     9.13,    10.47
      251.0,      11.39,    14.84,    11.14,     9.11,    10.45
      252.0,      11.36,    14.79,    11.12,     9.09,    10.43
      253.0,      11.33,    14.73,    11.11,     9.07,    10.42
      254.0,      11.31,    14.68,    11.09,     9.06,    10.40
      255.0,      11.28,    14.63,    11.07,     9.04,    10.38
      256.0,      11.25,    14.58,    11.05,     9.02,    10.37
      257.0,      11.23,    14.53,    11.03,     9.00,    10.35
      258.0,      11.20,    14.48,    11.01,     8.99,    10.33
      259.0,      11.18,    14.43,    10.99,     8.97,    10.32
      260.0,      11.15,    14.38,    10.97,     8.95,    10.30
      261.0,      11.13,    14.33,    10.96,     8.94,    10.28
      262.0,      11.10,    14.28,    10.94,     8.92,    10.27
      263.0,      11.07,    14.23,    10.92,     8.90,    10.25
      264.0,      11.05,    14.18,    10.90,     8.88,    10.24
      265.0,      11.02,    14.13,    10.88,     8.87,    10.22
      266.0,      11.00,    14.08,    10.86,     8.85,    10.20
      267.0,      10.97,    14.03,    10.85,     8.83,    10.19
      268.0,      10.95,    13.98,    10.83,     8.82,    10.17
      269.0,      10.93,    13.93,    10.81,     8.80,    10.16
      270.0,      10.90,    13.88,    10.79,     8.78,    10.14
      271.0,      10.88,    13.84,    10.77,     8.77,    10.13
      272.0,      10.85,    13.79,    10.76,     8.75,    10.11
      273.0,      10.83,    13.74,    10.74,     8.73,    10.10
      274.0,      10.80,    13.69,    10.72,     8.72,    10.08
      275.0,      10.78,    13.65,    10.70,     8.70,    10.07
      276.0,      10.76,    13.60,    10.69,     8.68,    10.05
      277.0,      10.73,    13.55,    10.67,     8.67,    10.04
      278.0,      10.71,    13.51,    10.65,     8.65,    10.03
      279.0,      10.68,    13.46,    10.63,     8.63,    10.01
      280.0,      10.66,    13.41,    10.62,     8.62,    10.00
      281.0,      10.64,    13.37,    10.60,     8.60,     9.98
      282.0,      10.61,    13.32,    10.58,     8.58,     9.97
      283.0,      10.59,    13.28,    10.56,     8.57,     9.96
      284.0,      10.57,    13.23,    10.55,     8.55,     9.94
      285.0,      10.54,    13.18,    10.53,     8.53,     9.93
      286.0,      10.52,    13.14,    10.51,     8.52,     9.92
      287.0,      10.50,    13.09,    10.50,     8.50,     9.90
      288.0,      10.48,    13.05,    10.48,     8.49,     9.89
      289.0,      10.45,    13.01,    10.46,     8.47,     9.87
      290.0,      10.43,    12.96,    10.45,     8.45,     9.86
      291.0,      10.41,    12.92,    10.43,     8.44,     9.85
      292.0,      10.39,    12.87,    10.41,     8.42,     9.84
      293.0,      10.36,    12.83,    10.40,     8.41,     9.82
      294.0,      10.34,    12.79,    10.38,     8.39,     9.81
      295.0,      10.32,    12.74,    10.36,     8.37,     9.80
      296.0,      10.30,    12.70,    10.35,     8.36,     9.78
      297.0,      10.27,    12.66,    10.33,     8.34,     9.77
      298.0,      10.25,    12.61,    10.31,     8.33,     9.76
      299.0,      10.23,    12.57,    10.30,     8.31,     9.75
      300.0,      10.21,    12.53,    10.28,     8.29,     9.73
      301.0,      10.19,    12.48,    10.26,     8.28,     9.72
      302.0,      10.16,    12.44,    10.25,     8.26,     9.71
      303.0,      10.14,    12.40,    10.23,     8.25,     9.70
      304.0,      10.12,    12.36,    10.21,     8.23,     9.68
      305.0,      10.10,    12.32,    10.20,     8.22,     9.67
      306.0,      10.08,    12.27,    10.18,     8.20,     9.66
      307.0,      10.06,    12.23,    10.17,     8.18,     9.65
      308.0,      10.04,    12.19,    10.15,     8.17,     9.64
      309.0,      10.02,    12.15,    10.13,     8.15,     9.62
      310.0,       9.99,    12.11,    10.12,     8.14,     9.61
