Radius (km), Mean (m/s), NE (m/s), SE (m/s), SW (m/s), NW (m/s)
        0.0,       0.00,     0.00,     0.00,     0.00,     0.00
        1.0,       2.77,     2.31,     2.95,     3.19,     2.63
        2.0,       5.32,     4.88,     5.52,     5.67,     5.22
        3.0,       7.86,     7.66,     8.01,     7.96,     7.83
        4.0,      10.51,    10.74,    10.56,    10.17,    10.56
        5.0,      13.36,    14.25,    13.28,    12.41,    13.53
        6.0,      16.52,    18.26,    16.23,    14.76,    16.81
        7.0,      19.98,    22.76,    19.45,    17.28,    20.45
        8.0,      23.72,    27.64,    22.88,    19.96,    24.41
        9.0,      27.61,    32.72,    26.40,    22.74,    28.56
       10.0,      31.47,    37.74,    29.88,    25.53,    32.72
       11.0,      35.11,    42.43,    33.12,    28.21,    36.68
       12.0,      38.34,    46.52,    35.97,    30.65,    40.23
       13.0,      41.00,    49.81,    38.30,    32.71,    43.18
       14.0,      42.98,    52.20,    40.01,    34.32,    45.41
       15.0,      44.26,    53.64,    41.10,    35.44,    46.87
       16.0,      44.86,    54.21,    41.59,    36.07,    47.59
       17.0,      44.89,    54.05,    41.58,    36.26,    47.66
       18.0,      44.47,    53.35,    41.20,    36.10,    47.23
       19.0,      43.75,    52.30,    40.56,    35.69,    46.45
       20.0,      42.87,    51.08,    39.79,    35.12,    45.49
       21.0,      41.95,    49.83,    38.99,    34.49,    44.47
       22.0,      41.04,    48.63,    38.21,    33.87,    43.47
       23.0,      40.19,    47.49,    37.47,    33.27,    42.53
       24.0,      39.39,    46.42,    36.77,    32.71,    41.64
       25.0,      38.62,    45.39,    36.10,    32.18,    40.80
       26.0,      37.88,    44.40,    35.45,    31.67,    39.99
       27.0,      37.16,    43.45,    34.83,    31.17,    39.22
       28.0,      36.48,    42.53,    34.22,    30.69,    38.47
       29.0,      35.81,    41.65,    33.63,    30.22,    37.74
       30.0,      35.17,    40.80,    33.07,    29.77,    37.05
       31.0,      34.55,    39.98,    32.52,    29.33,    36.38
       32.0,      33.96,    39.20,    31.99,    28.91,    35.73
       33.0,      33.38,    38.44,    31.48,    28.50,    35.11
       34.0,      32.83,    37.72,    30.99,    28.10,    34.51
       35.0,      32.29,    37.02,    30.51,    27.71,    33.93
       36.0,      31.78,    36.34,    30.05,    27.33,    33.38
       37.0,      31.28,    35.70,    29.60,    26.97,    32.84
       38.0,      30.79,    35.07,    29.17,    26.61,    32.33
       39.0,      30.33,    34.47,    28.75,    26.27,    31.83
       40.0,      29.88,    33.90,    28.34,    25.93,    31.35
       41.0,      29.45,    33.34,    27.95,    25.61,    30.88
       42.0,      29.03,    32.80,    27.57,    25.30,    30.44
       43.0,      28.62,    32.29,    27.21,    24.99,    30.01
       44.0,      28.23,    31.79,    26.85,    24.69,    29.59
       45.0,      27.85,    31.31,    26.51,    24.40,    29.19
       46.0,      27.49,    30.85,    26.18,    24.12,    28.80
       47.0,      27.14,    30.41,    25.86,    23.85,    28.43
       48.0,      26.80,    29.98,    25.55,    23.59,    28.07
       49.0,      26.47,    29.57,    25.25,    23.33,    27.72
       50.0,      26.15,    29.18,    24.95,    23.08,    27.39
       51.0,      25.84,    28.79,    24.67,    22.84,    27.06
       52.0,      25.54,    28.43,    24.40,    22.60,    26.75
       53.0,      25.26,    28.07,    24.13,    22.37,    26.45
       54.0,      24.98,    27.73,    23.88,    22.15,    26.16
       55.0,      24.71,    27.40,    23.63,    21.93,    25.88
       56.0,      24.45,    27.08,    23.39,    21.72,    25.60
       57.0,      24.20,    26.78,    23.16,    21.52,    25.34
       58.0,      23.95,    26.48,    22.93,    21.32,    25.08
       59.0,      23.72,    26.20,    22.71,    21.12,    24.84
       60.0,      23.49,    25.92,    22.50,    20.93,    24.60
       61.0,      23.27,    25.66,    22.30,    20.75,    24.37
       62.0,      23.05,    25.40,    22.10,    20.57,    24.15
       63.0,      22.84,    25.15,    21.90,    20.39,    23.93
       64.0,      22.64,    24.91,    21.72,    20.22,    23.72
       65.0,      22.45,    24.69,    21.54,    20.06,    23.52
       66.0,      22.26,    24.46,    21.36,    19.89,    23.32
       67.0,      22.08,    24.25,    21.19,    19.74,    23.13
       68.0,      21.90,    24.04,    21.02,    19.58,    22.95
       69.0,      21.73,    23.84,    20.86,    19.43,    22.77
       70.0,      21.56,    23.65,    20.71,    19.29,    22.60
       71.0,      21.40,    23.46,    20.55,    19.14,    22.43
       72.0,      21.24,    23.28,    20.41,    19.00,    22.27
       73.0,      21.09,    23.11,    20.26,    18.87,    22.11
       74.0,      20.94,    22.94,    20.13,    18.74,    21.96
       75.0,      20.80,    22.78,    19.99,    18.61,    21.81
       76.0,      20.66,    22.62,    19.86,    18.48,    21.66
       77.0,      20.52,    22.47,    19.73,    18.36,    21.52
       78.0,      20.39,    22.32,    19.61,    18.24,    21.39
       79.0,      20.26,    22.18,    19.49,    18.12,    21.25
       80.0,      20.13,    22.04,    19.37,    18.00,    21.13
       81.0,      20.01,    21.91,    19.26,    17.89,    21.00
       82.0,      19.90,    21.78,    19.15,    17.78,    20.88
       83.0,      19.78,    21.65,    19.04,    17.67,    20.76
       84.0,      19.67,    21.53,    18.93,    17.57,    20.65
       85.0,      19.56,    21.41,    18.83,    17.46,    20.53
       86.0,      19.45,    21.30,    18.73,    17.36,    20.42
       87.0,      19.35,    21.19,    18.64,    17.26,    20.32
       88.0,      19.25,    21.08,    18.54,    17.17,    20.21
       89.0,      19.15,    20.97,    18.45,    17.07,    20.11
       90.0,      19.06,    20.87,    18.36,    16.98,    20.01
       91.0,      18.96,    20.77,    18.27,    16.89,    19.92
       92.0,      18.87,    20.68,    18.19,    16.80,    19.82
       93.0,      18.78,    20.59,    18.11,    16.71,    19.73
       94.0,      18.70,    20.50,    18.03,    16.63,    19.64
       95.0,      18.61,    20.41,    17.95,    16.54,    19.55
       96.0,      18.53,    20.32,    17.87,    16.46,    19.47
       97.0,      18.45,    20.24,    17.79,    16.38,    19.38
       98.0,      18.37,    20.16,    17.72,    16.30,    19.30
       99.0,      18.29,    20.08,    17.65,    16.22,    19.22
      100.0,      18.22,    20.00,    17.58,    16.14,    19.14
      101.0,      18.14,    19.93,    17.51,    16.07,    19.07
      102.0,      18.07,    19.86,    17.44,    15.99,    18.99
      103.0,      18.00,    19.79,    17.38,    15.92,    18.92
      104.0,      17.93,    19.72,    17.31,    15.85,    18.84
      105.0,      17.86,    19.65,    17.25,    15.78,    18.77
      106.0,      17.80,    19.59,    17.19,    15.71,    18.70
      107.0,      17.73,    19.52,    17.13,    15.64,    18.64
      108.0,      17.67,    19.46,    17.07,    15.58,    18.57
      109.0,      17.61,    19.40,    17.01,    15.51,    18.50
      110.0,      17.54,    19.34,    16.96,    15.44,    18.44
      111.0,      17.48,    19.28,    16.90,    15.38,    18.37
      112.0,      17.43,    19.22,    16.85,    15.32,    18.31
      113.0,      17.37,    19.17,    16.79,    15.26,    18.25
      114.0,      17.31,    19.11,    16.74,    15.19,    18.19
      115.0,      17.25,    19.06,    16.69,    15.13,    18.13
      116.0,      17.20,    19.01,    16.64,    15.08,    18.07
      117.0,      17.14,    18.96,    16.59,    15.02,    18.01
      118.0,      17.09,    18.91,    16.54,    14.96,    17.96
      119.0,      17.04,    18.86,    16.50,    14.90,    17.90
      120.0,      16.99,    18.81,    16.45,    14.85,    17.85
      121.0,      16.94,    18.76,    16.40,    14.79,    17.79
      122.0,      16.89,    18.72,    16.36,    14.74,    17.74
      123.0,      16.84,    18.67,    16.31,    14.68,    17.69
      124.0,      16.79,    18.63,    16.27,    14.63,    17.63
      125.0,      16.74,    18.58,    16.23,    14.58,    17.58
      126.0,      16.69,    18.54,    16.18,    14.52,    17.53
      127.0,      16.65,    18.50,    16.14,    14.47,    17.48
      128.0,      16.60,    18.45,    16.10,    14.42,    17.43
      129.0,      16.56,    18.41,    16.06,    14.37,    17.38
      130.0,      16.51,    18.37,    16.02,    14.32,    17.33
      131.0,      16.47,    18.33,    15.98,    14.27,    17.29
      132.0,      16.42,    18.29,    15.94,    14.22,    17.24
      133.0,      16.38,    18.25,    15.91,    14.17,    17.19
      134.0,      16.34,    18.22,    15.87,    14.13,    17.15
      135.0,      16.30,    18.18,    15.83,    14.08,    17.10
      136.0,      16.26,    18.14,    15.79,    14.03,    17.05
      137.0,      16.21,    18.10,    15.76,    13.99,    17.01
      138.0,      16.17,    18.07,    15.72,    13.94,    16.96
      139.0,      16.13,    18.03,    15.69,    13.90,    16.92
      140.0,      16.09,    18.00,    15.65,    13.85,    16.88
      141.0,      16.06,    17.96,    15.62,    13.81,    16.83
      142.0,      16.02,    17.93,    15.58,    13.76,    16.79
      143.0,      15.98,    17.89,    15.55,    13.72,    16.75
      144.0,      15.94,    17.86,    15.52,    13.68,    16.70
      145.0,      15.90,    17.83,    15.48,    13.63,    16.66
      146.0,      15.86,    17.80,    15.45,    13.59,    16.62
      147.0,      15.83,    17.76,    15.42,    13.55,    16.58
      148.0,      15.79,    17.73,    15.39,    13.51,    16.54
      149.0,      15.75,    17.70,    15.36,    13.46,    16.50
      150.0,      15.72,    17.67,    15.32,    13.42,    16.46
      151.0,      15.68,    17.64,    15.29,    13.38,    16.42
      152.0,      15.65,    17.61,    15.26,    13.34,    16.38
      153.0,      15.61,    17.57,    15.23,    13.30,    16.34
      154.0,      15.58,    17.54,    15.20,    13.26,    16.30
      155.0,      15.54,    17.51,    15.17,    13.22,    16.26
      156.0,      15.51,    17.48,    15.14,    13.18,    16.22
      157.0,      15.47,    17.45,    15.11,    13.14,    16.18
      158.0,      15.44,    17.43,    15.08,    13.10,    16.14
      159.0,      15.41,    17.40,    15.05,    13.06,    16.11
      160.0,      15.37,    17.37,    15.03,    13.03,    16.07
      161.0,      15.34,    17.34,    15.00,    12.99,    16.03
      162.0,      15.31,    17.31,    14.97,    12.95,    15.99
      163.0,      15.27,    17.28,    14.94,    12.91,    15.96
      164.0,      15.24,    17.25,    14.91,    12.88,    15.92
      165.0,      15.21,    17.23,    14.89,    12.84,    15.88
      166.0,      15.18,    17.20,    14.86,    12.80,    15.85
      167.0,      15.14,    17.17,    14.83,    12.76,    15.81
      168.0,      15.11,    17.14,    14.80,    12.73,    15.77
      169.0,      15.08,    17.12,    14.78,    12.69,    15.74
      170.0,      15.05,    17.09,    14.75,    12.66,    15.70
      171.0,      15.02,    17.06,    14.72,    12.62,    15.66
      172.0,      14.99,    17.03,    14.70,    12.58,    15.63
      173.0,      14.96,    17.01,    14.67,    12.55,    15.59
      174.0,      14.92,    16.98,    14.65,    12.51,    15.56
      175.0,      14.89,    16.95,    14.62,    12.48,    15.52
      176.0,      14.86,    16.93,    14.59,    12.44,    15.49
      177.0,      14.83,    16.90,    14.57,    12.41,    15.45
      178.0,      14.80,    16.88,    14.54,    12.37,    15.42
      179.0,      14.77,    16.85,    14.52,    12.34,    15.38
      180.0,      14.74,    16.82,    14.49,    12.30,    15.35
      181.0,      14.71,    16.80,    14.47,    12.27,    15.32
      182.0,      14.68,    16.77,    14.44,    12.24,    15.28
      183.0,      14.65,    16.75,    14.42,    12.20,    15.25
      184.0,      14.62,    16.72,    14.39,    12.17,    15.21
      185.0,      14.59,    16.70,    14.37,    12.13,    15.18
      186.0,      14.57,    16.67,    14.34,    12.10,    15.15
      187.0,      14.54,    16.65,    14.32,    12.07,    15.11
      188.0,      14.51,    16.62,    14.29,    12.04,    15.08
      189.0,      14.48,    16.60,    14.27,    12.00,    15.05
      190.0,      14.45,    16.57,    14.24,    11.97,    15.01
      191.0,      14.42,    16.55,    14.22,    11.94,    14.98
      192.0,      14.39,    16.52,    14.20,    11.90,    14.95
      193.0,      14.36,    16.50,    14.17,    11.87,    14.91
      194.0,      14.34,    16.47,    14.15,    11.84,    14.88
      195.0,      14.31,    16.45,    14.13,    11.81,    14.85
      196.0,      14.28,    16.43,    14.10,    11.78,    14.81
      197.0,      14.25,    16.40,    14.08,    11.74,    14.78
      198.0,      14.22,    16.38,    14.05,    11.71,    14.75
      199.0,      14.20,    16.35,    14.03,    11.68,    14.72
      200.0,      14.17,    16.33,    14.01,    11.65,    14.69
      201.0,      14.14,    16.31,    13.98,    11.62,    14.65
      202.0,      14.11,    16.28,    13.96,    11.59,    14.62
      203.0,      14.09,    16.26,    13.94,    11.56,    14.59
      204.0,      14.06,    16.23,    13.92,    11.52,    14.56
      205.0,      14.03,    16.21,    13.89,    11.49,    14.53
      206.0,      14.00,    16.19,    13.87,    11.46,    14.49
      207.0,      13.98,    16.16,    13.85,    11.43,    14.46
      208.0,      13.95,    16.14,    13.82,    11.40,    14.43
      209.0,      13.92,    16.12,    13.80,    11.37,    14.40
      210.0,      13.90,    16.09,    13.78,    11.34,    14.37
      211.0,      13.87,    16.07,    13.76,    11.31,    14.34
      212.0,      13.84,    16.05,    13.73,    11.28,    14.31
      213.0,      13.82,    16.02,    13.71,    11.25,    14.28
      214.0,      13.79,    16.00,    13.69,    11.22,    14.24
      215.0,      13.76,    15.98,    13.67,    11.19,    14.21
      216.0,      13.74,    15.95,    13.64,    11.16,    14.18
      217.0,      13.71,    15.93,    13.62,    11.13,    14.15
      218.0,      13.68,    15.91,    13.60,    11.10,    14.12
      219.0,      13.66,    15.89,    13.58,    11.07,    14.09
      220.0,      13.63,    15.86,    13.56,    11.04,    14.06
      221.0,      13.60,    15.84,    13.53,    11.01,    14.03
      222.0,      13.58,    15.82,    13.51,    10.98,    14.00
      223.0,      13.55,    15.79,    13.49,    10.96,    13.97
      224.0,      13.53,    15.77,    13.47,    10.93,    13.94
      225.0,      13.50,    15.75,    13.45,    10.90,    13.91
      226.0,      13.48,    15.73,    13.43,    10.87,    13.88
      227.0,      13.45,    15.70,    13.40,    10.84,    13.85
      228.0,      13.42,    15.68,    13.38,    10.81,    13.82
      229.0,      13.40,    15.66,    13.36,    10.78,    13.79
      230.0,      13.37,    15.64,    13.34,    10.75,    13.76
      231.0,      13.35,    15.61,    13.32,    10.73,    13.73
      232.0,      13.32,    15.59,    13.30,    10.70,    13.70
      233.0,      13.30,    15.57,    13.28,    10.67,    13.67
      234.0,      13.27,    15.55,    13.25,    10.64,    13.64
      235.0,      13.25,    15.53,    13.23,    10.61,    13.61
      236.0,      13.22,    15.50,    13.21,    10.59,    13.58
      237.0,      13.20,    15.48,    13.19,    10.56,    13.55
      238.0,      13.17,    15.46,    13.17,    10.53,    13.52
      239.0,      13.15,    15.44,    13.15,    10.50,    13.49
      240.0,      13.12,    15.41,    13.13,    10.48,    13.47
      241.0,      13.10,    15.39,    13.11,    10.45,    13.44
      242.0,      13.07,    15.37,    13.09,    10.42,    13.41
      243.0,      13.05,    15.35,    13.07,    10.39,    13.38
      244.0,      13.02,    15.33,    13.04,    10.37,    13.35
      245.0,      13.00,    15.31,    13.02,    10.34,    13.32
      246.0,      12.97,    15.28,    13.00,    10.31,    13.29
      247.0,      12.95,    15.26,    12.98,    10.28,    13.26
      248.0,      12.92,    15.24,    12.96,    10.26,    13.24
      249.0,      12.90,    15.22,    12.94,    10.23,    13.21
      250.0,      12.88,    15.20,    12.92,    10.20,    13.18
      251.0,      12.85,    15.18,    12.90,    10.18,    13.15
      252.0,      12.83,    15.15,    12.88,    10.15,    13.12
      253.0,      12.80,    15.13,    12.86,    10.12,    13.09
      254.0,      12.78,    15.11,    12.84,    10.10,    13.07
      255.0,      12.75,    15.09,    12.82,    10.07,    13.04
      256.0,      12.73,    15.07,    12.80,    10.05,    13.01
      257.0,      12.71,    15.05,    12.78,    10.02,    12.98
      258.0,      12.68,    15.02,    12.76,     9.99,    12.95
      259.0,      12.66,    15.00,    12.74,     9.97,    12.93
      260.0,      12.63,    14.98,    12.72,     9.94,    12.90
      261.0,      12.61,    14.96,    12.70,     9.91,    12.87
      262.0,      12.59,    14.94,    12.68,     9.89,    12.84
      263.0,      12.56,    14.92,    12.66,     9.86,    12.82
      264.0,      12.54,    14.90,    12.64,     9.84,    12.79
      265.0,      12.52,    14.88,    12.62,     9.81,    12.76
      266.0,      12.49,    14.86,    12.60,     9.79,    12.73
      267.0,      12.47,    14.83,    12.58,     9.76,    12.71
      268.0,      12.45,    14.81,    12.56,     9.74,    12.68
      269.0,      12.42,    14.79,    12.54,     9.71,    12.65
      270.0,      12.40,    14.77,    12.52,     9.68,    12.63
      271.0,      12.38,    14.75,    12.50,     9.66,    12.60
      272.0,      12.35,    14.73,    12.48,     9.63,    12.57
      273.0,      12.33,    14.71,    12.46,     9.61,    12.54
      274.0,      12.31,    14.69,    12.44,     9.58,    12.52
      275.0,      12.28,    14.67,    12.42,     9.56,    12.49
      276.0,      12.26,    14.65,    12.40,     9.53,    12.46
      277.0,      12.24,    14.63,    12.38,     9.51,    12.44
      278.0,      12.21,    14.60,    12.36,     9.48,    12.41
      279.0,      12.19,    14.58,    12.34,     9.46,    12.38
      280.0,      12.17,    14.56,    12.32,     9.44,    12.36
      281.0,      12.15,    14.54,    12.30,     9.41,    12.33
      282.0,      12.12,    14.52,    12.28,     9.39,    12.30
      283.0,      12.10,    14.50,    12.26,     9.36,    12.28
      284.0,      12.08,    14.48,    12.24,     9.34,    12.25
      285.0,      12.06,    14.46,    12.22,     9.31,    12.23
      286.0,      12.03,    14.44,    12.20,     9.29,    12.20
      287.0,      12.01,    14.42,    12.18,     9.26,    12.17
      288.0,      11.99,    14.40,    12.17,     9.24,    12.15
      289.0,      11.97,    14.38,    12.15,     9.22,    12.12
      290.0,      11.94,    14.36,    12.13,     9.19,    12.09
      291.0,      11.92,    14.34,    12.11,     9.17,    12.07
      292.0,      11.90,    14.32,    12.09,     9.14,    12.04
      293.0,      11.88,    14.30,    12.07,     9.12,    12.02
      294.0,      11.85,    14.28,    12.05,     9.10,    11.99
      295.0,      11.83,    14.26,    12.03,     9.07,    11.97
      296.0,      11.81,    14.24,    12.01,     9.05,    11.94
      297.0,      11.79,    14.22,    11.99,     9.03,    11.91
      298.0,      11.77,    14.20,    11.97,     9.00,    11.89
      299.0,      11.74,    14.18,    11.96,     8.98,    11.86
      300.0,      11.72,    14.16,    11.94,     8.96,    11.84
      301.0,      11.70,    14.14,    11.92,     8.93,    11.81
      302.0,      11.68,    14.12,    11.90,     8.91,    11.79
      303.0,      11.66,    14.10,    11.88,     8.89,    11.76
      304.0,      11.63,    14.08,    11.86,     8.86,    11.74
      305.0,      11.61,    14.06,    11.84,     8.84,    11.71
      306.0,      11.59,    14.04,    11.82,     8.82,    11.69
      307.0,      11.57,    14.02,    11.81,     8.79,    11.66
      308.0,      11.55,    14.00,    11.79,     8.77,    11.64
      309.0,      11.53,    13.98,    11.77,     8.75,    11.61
      310.0,      11.51,    13.96,    11.75,     8.73,    11.59
