Radius (km), Mean (m/s), NE (m/s), SE (m/s), SW (m/s), NW (m/s)
        0.0,       0.00,     0.00,     0.00,     0.00,     0.00
        1.0,       2.58,     2.54,     2.57,     2.59,     2.60
        2.0,       4.45,     4.42,     4.45,     4.47,     4.48
        3.0,       6.13,     6.12,     6.13,     6.14,     6.15
        4.0,       7.70,     7.70,     7.70,     7.70,     7.70
        5.0,       9.18,     9.21,     9.19,     9.17,     9.17
        6.0,      10.61,    10.65,    10.61,    10.59,    10.57
        7.0,      11.98,    12.05,    11.99,    11.95,    11.93
        8.0,      13.31,    13.41,    13.33,    13.27,    13.24
        9.0,      14.61,    14.73,    14.63,    14.56,    14.52
       10.0,      15.88,    16.03,    15.90,    15.81,    15.77
       11.0,      17.12,    17.30,    17.14,    17.04,    16.99
       12.0,      18.34,    18.55,    18.37,    18.25,    18.19
       13.0,      19.55,    19.80,    19.58,    19.44,    19.39
       14.0,      20.80,    21.08,    20.82,    20.66,    20.64
       15.0,      22.11,    22.42,    22.11,    21.95,    21.97
       16.0,      23.52,    23.86,    23.50,    23.33,    23.41
       17.0,      25.04,    25.39,    24.99,    24.82,    24.97
       18.0,      26.65,    26.99,    26.58,    26.40,    26.62
       19.0,      28.30,    28.63,    28.21,    28.04,    28.31
       20.0,      29.92,    30.23,    29.83,    29.67,    29.95
       21.0,      31.45,    31.74,    31.36,    31.21,    31.47
       22.0,      32.80,    33.08,    32.73,    32.57,    32.80
       23.0,      33.91,    34.21,    33.88,    33.70,    33.86
       24.0,      34.75,    35.09,    34.75,    34.55,    34.63
       25.0,      35.31,    35.71,    35.34,    35.10,    35.09
       26.0,      35.60,    36.09,    35.66,    35.37,    35.28
       27.0,      35.66,    36.27,    35.75,    35.39,    35.23
       28.0,      35.54,    36.29,    35.65,    35.23,    35.01
       29.0,      35.31,    36.21,    35.43,    34.93,    34.68
       30.0,      35.02,    36.08,    35.14,    34.57,    34.30
       31.0,      34.72,    35.93,    34.83,    34.18,    33.92
       32.0,      34.42,    35.79,    34.53,    33.81,    33.55
       33.0,      34.14,    35.66,    34.25,    33.46,    33.20
       34.0,      33.88,    35.53,    33.99,    33.14,    32.87
       35.0,      33.63,    35.41,    33.74,    32.83,    32.56
       36.0,      33.39,    35.29,    33.50,    32.53,    32.25
       37.0,      33.16,    35.17,    33.26,    32.24,    31.96
       38.0,      32.93,    35.05,    33.03,    31.96,    31.68
       39.0,      32.71,    34.93,    32.81,    31.69,    31.40
       40.0,      32.49,    34.81,    32.59,    31.42,    31.13
       41.0,      32.28,    34.69,    32.37,    31.17,    30.87
       42.0,      32.07,    34.57,    32.17,    30.91,    30.62
       43.0,      31.87,    34.45,    31.96,    30.67,    30.38
       44.0,      31.67,    34.34,    31.76,    30.43,    30.14
       45.0,      31.47,    34.22,    31.56,    30.20,    29.91
       46.0,      31.29,    34.10,    31.37,    29.97,    29.69
       47.0,      31.10,    33.99,    31.19,    29.76,    29.48
       48.0,      30.92,    33.87,    31.00,    29.54,    29.27
       49.0,      30.74,    33.76,    30.82,    29.33,    29.06
       50.0,      30.57,    33.64,    30.65,    29.13,    28.86
       51.0,      30.40,    33.53,    30.47,    28.93,    28.67
       52.0,      30.24,    33.41,    30.30,    28.74,    28.49
       53.0,      30.07,    33.30,    30.14,    28.55,    28.30
       54.0,      29.91,    33.19,    29.97,    28.36,    28.13
       55.0,      29.76,    33.08,    29.81,    28.19,    27.95
       56.0,      29.60,    32.96,    29.66,    28.01,    27.79
       57.0,      29.45,    32.85,    29.50,    27.84,    27.62
       58.0,      29.31,    32.74,    29.35,    27.67,    27.47
       59.0,      29.16,    32.63,    29.20,    27.51,    27.31
       60.0,      29.02,    32.52,    29.06,    27.35,    27.16
       61.0,      28.88,    32.41,    28.91,    27.19,    27.01
       62.0,      28.74,    32.30,    28.77,    27.03,    26.87
       63.0,      28.61,    32.19,    28.63,    26.88,    26.73
       64.0,      28.48,    32.08,    28.49,    26.74,    26.59
       65.0,      28.35,    31.98,    28.36,    26.59,    26.46
       66.0,      28.22,    31.87,    28.23,    26.45,    26.33
       67.0,      28.09,    31.76,    28.09,    26.31,    26.20
       68.0,      27.97,    31.65,    27.97,    26.17,    26.08
       69.0,      27.85,    31.55,    27.84,    26.04,    25.95
       70.0,      27.72,    31.44,    27.71,    25.91,    25.84
       71.0,      27.61,    31.34,    27.59,    25.78,    25.72
       72.0,      27.49,    31.23,    27.47,    25.65,    25.60
       73.0,      27.37,    31.13,    27.35,    25.53,    25.49
       74.0,      27.26,    31.02,    27.23,    25.41,    25.38
       75.0,      27.15,    30.92,    27.11,    25.29,    25.28
       76.0,      27.04,    30.82,    26.99,    25.17,    25.17
       77.0,      26.93,    30.71,    26.88,    25.05,    25.07
       78.0,      26.82,    30.61,    26.77,    24.94,    24.97
       79.0,      26.71,    30.51,    26.65,    24.83,    24.87
       80.0,      26.61,    30.41,    26.54,    24.72,    24.77
       81.0,      26.50,    30.30,    26.43,    24.61,    24.68
       82.0,      26.40,    30.20,    26.33,    24.50,    24.58
       83.0,      26.30,    30.10,    26.22,    24.39,    24.49
       84.0,      26.20,    30.00,    26.11,    24.29,    24.40
       85.0,      26.10,    29.90,    26.01,    24.19,    24.31
       86.0,      26.00,    29.80,    25.91,    24.08,    24.22
       87.0,      25.91,    29.70,    25.80,    23.98,    24.14
       88.0,      25.81,    29.60,    25.70,    23.88,    24.05
       89.0,      25.71,    29.51,    25.60,    23.79,    23.97
       90.0,      25.62,    29.41,    25.50,    23.69,    23.88
       91.0,      25.53,    29.31,    25.40,    23.59,    23.80
       92.0,      25.44,    29.21,    25.30,    23.50,    23.72
       93.0,      25.34,    29.11,    25.21,    23.41,    23.64
       94.0,      25.25,    29.02,    25.11,    23.32,    23.57
       95.0,      25.16,    28.92,    25.02,    23.22,    23.49
       96.0,      25.07,    28.83,    24.92,    23.13,    23.42
       97.0,      24.99,    28.73,    24.83,    23.05,    23.34
       98.0,      24.90,    28.64,    24.74,    22.96,    23.27
       99.0,      24.81,    28.54,    24.64,    22.87,    23.19
      100.0,      24.73,    28.45,    24.55,    22.78,    23.12
      101.0,      24.64,    28.35,    24.46,    22.70,    23.05
      102.0,      24.56,    28.26,    24.37,    22.62,    22.98
      103.0,      24.47,    28.17,    24.28,    22.53,    22.91
      104.0,      24.39,    28.07,    24.19,    22.45,    22.84
      105.0,      24.31,    27.98,    24.10,    22.37,    22.78
      106.0,      24.22,    27.89,    24.02,    22.29,    22.71
      107.0,      24.14,    27.80,    23.93,    22.20,    22.64
      108.0,      24.06,    27.70,    23.84,    22.12,    22.58
      109.0,      23.98,    27.61,    23.76,    22.05,    22.51
      110.0,      23.90,    27.52,    23.67,    21.97,    22.45
      111.0,      23.82,    27.43,    23.59,    21.89,    22.38
      112.0,      23.74,    27.34,    23.50,    21.81,    22.32
      113.0,      23.67,    27.25,    23.42,    21.73,    22.26
      114.0,      23.59,    27.16,    23.34,    21.66,    22.19
      115.0,      23.51,    27.07,    23.25,    21.58,    22.13
      116.0,      23.43,    26.98,    23.17,    21.51,    22.07
      117.0,      23.36,    26.90,    23.09,    21.43,    22.01
      118.0,      23.28,    26.81,    23.01,    21.36,    21.95
      119.0,      23.21,    26.72,    22.93,    21.29,    21.89
      120.0,      23.13,    26.63,    22.85,    21.21,    21.83
      121.0,      23.06,    26.54,    22.77,    21.14,    21.77
      122.0,      22.98,    26.46,    22.69,    21.07,    21.72
      123.0,      22.91,    26.37,    22.61,    21.00,    21.66
      124.0,      22.84,    26.28,    22.53,    20.93,    21.60
      125.0,      22.76,    26.20,    22.45,    20.86,    21.54
      126.0,      22.69,    26.11,    22.37,    20.79,    21.49
      127.0,      22.62,    26.03,    22.30,    20.72,    21.43
      128.0,      22.55,    25.94,    22.22,    20.65,    21.37
      129.0,      22.47,    25.86,    22.14,    20.58,    21.32
      130.0,      22.40,    25.77,    22.07,    20.51,    21.26
      131.0,      22.33,    25.69,    21.99,    20.44,    21.21
      132.0,      22.26,    25.61,    21.92,    20.37,    21.15
      133.0,      22.19,    25.52,    21.84,    20.31,    21.10
      134.0,      22.12,    25.44,    21.77,    20.24,    21.05
      135.0,      22.05,    25.36,    21.69,    20.17,    20.99
      136.0,      21.98,    25.28,    21.62,    20.11,    20.94
      137.0,      21.92,    25.19,    21.54,    20.04,    20.89
      138.0,      21.85,    25.11,    21.47,    19.98,    20.83
      139.0,      21.78,    25.03,    21.40,    19.91,    20.78
      140.0,      21.71,    24.95,    21.32,    19.85,    20.73
      141.0,      21.64,    24.87,    21.25,    19.78,    20.68
      142.0,      21.58,    24.79,    21.18,    19.72,    20.62
      143.0,      21.51,    24.71,    21.11,    19.65,    20.57
      144.0,      21.44,    24.63,    21.04,    19.59,    20.52
      145.0,      21.38,    24.55,    20.96,    19.53,    20.47
      146.0,      21.31,    24.47,    20.89,    19.46,    20.42
      147.0,      21.25,    24.39,    20.82,    19.40,    20.37
      148.0,      21.18,    24.31,    20.75,    19.34,    20.32
      149.0,      21.11,    24.23,    20.68,    19.28,    20.27
      150.0,      21.05,    24.15,    20.61,    19.21,    20.22
      151.0,      20.99,    24.08,    20.54,    19.15,    20.17
      152.0,      20.92,    24.00,    20.47,    19.09,    20.12
      153.0,      20.86,    23.92,    20.41,    19.03,    20.07
      154.0,      20.79,    23.84,    20.34,    18.97,    20.02
      155.0,      20.73,    23.77,    20.27,    18.91,    19.97
      156.0,      20.67,    23.69,    20.20,    18.85,    19.93
      157.0,      20.60,    23.61,    20.13,    18.79,    19.88
      158.0,      20.54,    23.54,    20.06,    18.73,    19.83
      159.0,      20.48,    23.46,    20.00,    18.67,    19.78
      160.0,      20.41,    23.39,    19.93,    18.61,    19.73
      161.0,      20.35,    23.31,    19.86,    18.55,    19.68
      162.0,      20.29,    23.24,    19.80,    18.49,    19.64
      163.0,      20.23,    23.16,    19.73,    18.43,    19.59
      164.0,      20.17,    23.09,    19.67,    18.38,    19.54
      165.0,      20.11,    23.01,    19.60,    18.32,    19.50
      166.0,      20.05,    22.94,    19.53,    18.26,    19.45
      167.0,      19.98,    22.87,    19.47,    18.20,    19.40
      168.0,      19.92,    22.79,    19.40,    18.14,    19.36
      169.0,      19.86,    22.72,    19.34,    18.09,    19.31
      170.0,      19.80,    22.65,    19.27,    18.03,    19.26
      171.0,      19.74,    22.57,    19.21,    17.97,    19.22
      172.0,      19.68,    22.50,    19.15,    17.92,    19.17
      173.0,      19.62,    22.43,    19.08,    17.86,    19.12
      174.0,      19.57,    22.36,    19.02,    17.80,    19.08
      175.0,      19.51,    22.29,    18.95,    17.75,    19.03
      176.0,      19.45,    22.22,    18.89,    17.69,    18.99
      177.0,      19.39,    22.15,    18.83,    17.64,    18.94
      178.0,      19.33,    22.08,    18.77,    17.58,    18.90
      179.0,      19.27,    22.00,    18.70,    17.53,    18.85
      180.0,      19.21,    21.93,    18.64,    17.47,    18.81
      181.0,      19.16,    21.86,    18.58,    17.42,    18.76
      182.0,      19.10,    21.80,    18.52,    17.36,    18.72
      183.0,      19.04,    21.73,    18.46,    17.31,    18.67
      184.0,      18.98,    21.66,    18.39,    17.25,    18.63
      185.0,      18.93,    21.59,    18.33,    17.20,    18.59
      186.0,      18.87,    21.52,    18.27,    17.14,    18.54
      187.0,      18.81,    21.45,    18.21,    17.09,    18.50
      188.0,      18.76,    21.38,    18.15,    17.04,    18.45
      189.0,      18.70,    21.32,    18.09,    16.98,    18.41
      190.0,      18.64,    21.25,    18.03,    16.93,    18.37
      191.0,      18.59,    21.18,    17.97,    16.88,    18.32
      192.0,      18.53,    21.11,    17.91,    16.83,    18.28
      193.0,      18.48,    21.05,    17.85,    16.77,    18.24
      194.0,      18.42,    20.98,    17.79,    16.72,    18.19
      195.0,      18.37,    20.91,    17.73,    16.67,    18.15
      196.0,      18.31,    20.85,    17.67,    16.62,    18.11
      197.0,      18.26,    20.78,    17.62,    16.56,    18.06
      198.0,      18.20,    20.72,    17.56,    16.51,    18.02
      199.0,      18.15,    20.65,    17.50,    16.46,    17.98
      200.0,      18.09,    20.58,    17.44,    16.41,    17.94
      201.0,      18.04,    20.52,    17.38,    16.36,    17.89
      202.0,      17.99,    20.46,    17.33,    16.31,    17.85
      203.0,      17.93,    20.39,    17.27,    16.26,    17.81
      204.0,      17.88,    20.33,    17.21,    16.21,    17.77
      205.0,      17.82,    20.26,    17.15,    16.16,    17.73
      206.0,      17.77,    20.20,    17.10,    16.10,    17.69
      207.0,      17.72,    20.13,    17.04,    16.05,    17.64
      208.0,      17.67,    20.07,    16.98,    16.00,    17.60
      209.0,      17.61,    20.01,    16.93,    15.95,    17.56
      210.0,      17.56,    19.95,    16.87,    15.91,    17.52
      211.0,      17.51,    19.88,    16.82,    15.86,    17.48
      212.0,      17.46,    19.82,    16.76,    15.81,    17.44
      213.0,      17.40,    19.76,    16.70,    15.76,    17.40
      214.0,      17.35,    19.70,    16.65,    15.71,    17.35
      215.0,      17.30,    19.63,    16.59,    15.66,    17.31
      216.0,      17.25,    19.57,    16.54,    15.61,    17.27
      217.0,      17.20,    19.51,    16.48,    15.56,    17.23
      218.0,      17.15,    19.45,    16.43,    15.51,    17.19
      219.0,      17.10,    19.39,    16.38,    15.47,    17.15
      220.0,      17.04,    19.33,    16.32,    15.42,    17.11
      221.0,      16.99,    19.27,    16.27,    15.37,    17.07
      222.0,      16.94,    19.21,    16.21,    15.32,    17.03
      223.0,      16.89,    19.15,    16.16,    15.27,    16.99
      224.0,      16.84,    19.09,    16.11,    15.23,    16.95
      225.0,      16.79,    19.03,    16.05,    15.18,    16.91
      226.0,      16.74,    18.97,    16.00,    15.13,    16.87
      227.0,      16.69,    18.91,    15.95,    15.08,    16.83
      228.0,      16.64,    18.85,    15.89,    15.04,    16.79
      229.0,      16.59,    18.79,    15.84,    14.99,    16.75
      230.0,      16.55,    18.73,    15.79,    14.94,    16.71
      231.0,      16.50,    18.67,    15.74,    14.90,    16.67
      232.0,      16.45,    18.62,    15.68,    14.85,    16.64
      233.0,      16.40,    18.56,    15.63,    14.81,    16.60
      234.0,      16.35,    18.50,    15.58,    14.76,    16.56
      235.0,      16.30,    18.44,    15.53,    14.71,    16.52
      236.0,      16.25,    18.39,    15.48,    14.67,    16.48
      237.0,      16.20,    18.33,    15.43,    14.62,    16.44
      238.0,      16.16,    18.27,    15.38,    14.58,    16.40
      239.0,      16.11,    18.21,    15.32,    14.53,    16.36
      240.0,      16.06,    18.16,    15.27,    14.49,    16.33
      241.0,      16.01,    18.10,    15.22,    14.44,    16.29
      242.0,      15.97,    18.05,    15.17,    14.40,    16.25
      243.0,      15.92,    17.99,    15.12,    14.35,    16.21
      244.0,      15.87,    17.93,    15.07,    14.31,    16.17
      245.0,      15.82,    17.88,    15.02,    14.26,    16.14
      246.0,      15.78,    17.82,    14.97,    14.22,    16.10
      247.0,      15.73,    17.77,    14.92,    14.17,    16.06
      248.0,      15.69,    17.71,    14.87,    14.13,    16.02
      249.0,      15.64,    17.66,    14.83,    14.09,    15.98
      250.0,      15.59,    17.60,    14.78,    14.04,    15.95
      251.0,      15.55,    17.55,    14.73,    14.00,    15.91
      252.0,      15.50,    17.49,    14.68,    13.96,    15.87
      253.0,      15.45,    17.44,    14.63,    13.91,    15.84
      254.0,      15.41,    17.39,    14.58,    13.87,    15.80
      255.0,      15.36,    17.33,    14.53,    13.83,    15.76
      256.0,      15.32,    17.28,    14.49,    13.78,    15.72
      257.0,      15.27,    17.23,    14.44,    13.74,    15.69
      258.0,      15.23,    17.17,    14.39,    13.70,    15.65
      259.0,      15.18,    17.12,    14.34,    13.65,    15.61
      260.0,      15.14,    17.07,    14.29,    13.61,    15.58
      261.0,      15.09,    17.01,    14.25,    13.57,    15.54
      262.0,      15.05,    16.96,    14.20,    13.53,    15.50
      263.0,      15.00,    16.91,    14.15,    13.49,    15.47
      264.0,      14.96,    16.86,    14.11,    13.44,    15.43
      265.0,      14.92,    16.81,    14.06,    13.40,    15.40
      266.0,      14.87,    16.75,    14.01,    13.36,    15.36
      267.0,      14.83,    16.70,    13.97,    13.32,    15.32
      268.0,      14.78,    16.65,    13.92,    13.28,    15.29
      269.0,      14.74,    16.60,    13.87,    13.24,    15.25
      270.0,      14.70,    16.55,    13.83,    13.20,    15.22
      271.0,      14.65,    16.50,    13.78,    13.15,    15.18
      272.0,      14.61,    16.45,    13.74,    13.11,    15.15
      273.0,      14.57,    16.40,    13.69,    13.07,    15.11
      274.0,      14.53,    16.35,    13.65,    13.03,    15.07
      275.0,      14.48,    16.30,    13.60,    12.99,    15.04
      276.0,      14.44,    16.25,    13.56,    12.95,    15.00
      277.0,      14.40,    16.20,    13.51,    12.91,    14.97
      278.0,      14.36,    16.15,    13.47,    12.87,    14.93
      279.0,      14.31,    16.10,    13.42,    12.83,    14.90
      280.0,      14.27,    16.05,    13.38,    12.79,    14.86
      281.0,      14.23,    16.00,    13.33,    12.75,    14.83
      282.0,      14.19,    15.95,    13.29,    12.71,    14.79
      283.0,      14.15,    15.90,    13.25,    12.67,    14.76
      284.0,      14.10,    15.85,    13.20,    12.63,    14.73
      285.0,      14.06,    15.81,    13.16,    12.59,    14.69
      286.0,      14.02,    15.76,    13.12,    12.56,    14.66
      287.0,      13.98,    15.71,    13.07,    12.52,    14.62
      288.0,      13.94,    15.66,    13.03,    12.48,    14.59
      289.0,      13.90,    15.61,    12.99,    12.44,    14.55
      290.0,      13.86,    15.57,    12.94,    12.40,    14.52
      291.0,      13.82,    15.52,    12.90,    12.36,    14.49
      292.0,      13.78,    15.47,    12.86,    12.32,    14.45
      293.0,      13.74,    15.42,    12.81,    12.29,    14.42
      294.0,      13.70,    15.38,    12.77,    12.25,    14.38
      295.0,      13.66,    15.33,    12.73,    12.21,    14.35
      296.0,      13.62,    15.28,    12.69,    12.17,    14.32
      297.0,      13.58,    15.24,    12.65,    12.13,    14.28
      298.0,      13.54,    15.19,    12.60,    12.10,    14.25
      299.0,      13.50,    15.15,    12.56,    12.06,    14.22
      300.0,      13.46,    15.10,    12.52,    12.02,    14.18
      301.0,      13.42,    15.05,    12.48,    11.98,    14.15
      302.0,      13.38,    15.01,    12.44,    11.95,    14.12
      303.0,      13.34,    14.96,    12.40,    11.91,    14.08
      304.0,      13.30,    14.92,    12.36,    11.87,    14.05
      305.0,      13.26,    14.87,    12.32,    11.84,    14.02
      306.0,      13.22,    14.83,    12.27,    11.80,    13.98
      307.0,      13.18,    14.78,    12.23,    11.76,    13.95
      308.0,      13.14,    14.74,    12.19,    11.73,    13.92
      309.0,      13.11,    14.69,    12.15,    11.69,    13.89
      310.0,      13.07,    14.65,    12.11,    11.65,    13.85
