Radius (km), Mean (m/s), NE (m/s), SE (m/s), SW (m/s), NW (m/s)
        0.0,       0.00,     0.00,     0.00,     0.00,     0.00
        1.0,       1.64,     1.41,     1.64,     1.75,     1.75
        2.0,       3.34,     3.04,     3.34,     3.50,     3.50
        3.0,       5.08,     4.76,     5.08,     5.23,     5.23
        4.0,       6.83,     6.53,     6.84,     6.97,     6.97
        5.0,       8.60,     8.36,     8.61,     8.71,     8.71
        6.0,      10.37,    10.23,    10.39,    10.44,    10.44
        7.0,      12.16,    12.12,    12.18,    12.17,    12.17
        8.0,      13.96,    14.05,    13.98,    13.90,    13.90
        9.0,      15.76,    16.00,    15.79,    15.63,    15.63
       10.0,      17.57,    17.98,    17.60,    17.36,    17.36
       11.0,      19.39,    19.97,    19.42,    19.09,    19.09
       12.0,      21.22,    22.00,    21.25,    20.81,    20.82
       13.0,      23.08,    24.12,    23.09,    22.54,    22.57
       14.0,      25.03,    26.42,    24.97,    24.30,    24.41
       15.0,      27.13,    29.00,    26.97,    26.14,    26.40
       16.0,      29.45,    31.91,    29.15,    28.12,    28.60
       17.0,      32.01,    35.16,    31.54,    30.31,    31.02
       18.0,      34.80,    38.68,    34.15,    32.71,    33.65
       19.0,      37.72,    42.31,    36.92,    35.29,    36.38
       20.0,      40.67,    45.87,    39.74,    37.95,    39.11
       21.0,      43.47,    49.16,    42.49,    40.55,    41.69
       22.0,      45.98,    51.97,    45.00,    42.96,    43.97
       23.0,      48.04,    54.17,    47.15,    45.03,    45.83
       24.0,      49.58,    55.67,    48.82,    46.64,    47.20
       25.0,      50.55,    56.45,    49.97,    47.72,    48.05
       26.0,      50.95,    56.58,    50.58,    48.25,    48.40
       27.0,      50.87,    56.16,    50.71,    48.28,    48.31
       28.0,      50.40,    55.35,    50.44,    47.90,    47.90
       29.0,      49.66,    54.30,    49.89,    47.20,    47.26
       30.0,      48.78,    53.15,    49.16,    46.31,    46.51
       31.0,      47.86,    51.99,    48.38,    45.35,    45.73
       32.0,      46.96,    50.88,    47.60,    44.40,    44.97
       33.0,      46.12,    49.84,    46.86,    43.51,    44.26
       34.0,      45.32,    48.85,    46.18,    42.68,    43.59
       35.0,      44.57,    47.90,    45.53,    41.90,    42.95
       36.0,      43.85,    46.99,    44.90,    41.17,    42.32
       37.0,      43.14,    46.11,    44.29,    40.46,    41.71
       38.0,      42.46,    45.26,    43.69,    39.78,    41.12
       39.0,      41.80,    44.43,    43.10,    39.12,    40.55
       40.0,      41.16,    43.64,    42.53,    38.48,    39.99
       41.0,      40.54,    42.87,    41.97,    37.86,    39.44
       42.0,      39.93,    42.13,    41.43,    37.26,    38.91
       43.0,      39.35,    41.42,    40.89,    36.68,    38.40
       44.0,      38.78,    40.73,    40.37,    36.12,    37.89
       45.0,      38.23,    40.07,    39.86,    35.58,    37.40
       46.0,      37.69,    39.42,    39.36,    35.05,    36.93
       47.0,      37.17,    38.80,    38.87,    34.54,    36.47
       48.0,      36.66,    38.20,    38.39,    34.05,    36.01
       49.0,      36.17,    37.62,    37.93,    33.57,    35.58
       50.0,      35.70,    37.06,    37.47,    33.11,    35.15
       51.0,      35.23,    36.52,    37.03,    32.66,    34.73
       52.0,      34.78,    36.00,    36.59,    32.22,    34.33
       53.0,      34.35,    35.49,    36.16,    31.80,    33.93
       54.0,      33.92,    35.00,    35.74,    31.39,    33.55
       55.0,      33.51,    34.53,    35.34,    30.99,    33.17
       56.0,      33.11,    34.07,    34.94,    30.61,    32.81
       57.0,      32.72,    33.63,    34.54,    30.24,    32.45
       58.0,      32.34,    33.21,    34.16,    29.87,    32.10
       59.0,      31.97,    32.79,    33.79,    29.52,    31.76
       60.0,      31.61,    32.39,    33.42,    29.18,    31.44
       61.0,      31.26,    32.01,    33.06,    28.84,    31.11
       62.0,      30.92,    31.63,    32.71,    28.52,    30.80
       63.0,      30.58,    31.27,    32.37,    28.20,    30.50
       64.0,      30.26,    30.92,    32.03,    27.90,    30.20
       65.0,      29.95,    30.59,    31.70,    27.60,    29.91
       66.0,      29.64,    30.26,    31.38,    27.31,    29.62
       67.0,      29.34,    29.94,    31.06,    27.03,    29.35
       68.0,      29.05,    29.63,    30.75,    26.75,    29.08
       69.0,      28.77,    29.34,    30.44,    26.48,    28.81
       70.0,      28.49,    29.05,    30.15,    26.22,    28.56
       71.0,      28.23,    28.77,    29.85,    25.97,    28.31
       72.0,      27.96,    28.50,    29.57,    25.72,    28.06
       73.0,      27.71,    28.24,    29.29,    25.48,    27.82
       74.0,      27.46,    27.99,    29.01,    25.24,    27.59
       75.0,      27.22,    27.74,    28.74,    25.01,    27.36
       76.0,      26.98,    27.50,    28.48,    24.79,    27.14
       77.0,      26.75,    27.27,    28.22,    24.57,    26.92
       78.0,      26.52,    27.05,    27.97,    24.35,    26.71
       79.0,      26.30,    26.83,    27.72,    24.15,    26.50
       80.0,      26.08,    26.62,    27.47,    23.94,    26.30
       81.0,      25.87,    26.42,    27.23,    23.74,    26.10
       82.0,      25.67,    26.22,    27.00,    23.55,    25.91
       83.0,      25.47,    26.03,    26.77,    23.35,    25.72
       84.0,      25.27,    25.84,    26.54,    23.17,    25.54
       85.0,      25.08,    25.66,    26.32,    22.98,    25.35
       86.0,      24.89,    25.49,    26.10,    22.80,    25.18
       87.0,      24.71,    25.31,    25.89,    22.63,    25.00
       88.0,      24.53,    25.15,    25.68,    22.46,    24.84
       89.0,      24.35,    24.99,    25.47,    22.29,    24.67
       90.0,      24.18,    24.83,    25.27,    22.12,    24.51
       91.0,      24.01,    24.68,    25.07,    21.96,    24.35
       92.0,      23.85,    24.53,    24.87,    21.80,    24.19
       93.0,      23.69,    24.39,    24.68,    21.64,    24.04
       94.0,      23.53,    24.25,    24.49,    21.49,    23.89
       95.0,      23.38,    24.11,    24.31,    21.34,    23.74
       96.0,      23.22,    23.98,    24.12,    21.19,    23.60
       97.0,      23.07,    23.85,    23.94,    21.05,    23.46
       98.0,      22.93,    23.72,    23.77,    20.90,    23.32
       99.0,      22.79,    23.60,    23.59,    20.76,    23.19
      100.0,      22.65,    23.48,    23.42,    20.63,    23.06
      101.0,      22.51,    23.36,    23.26,    20.49,    22.93
      102.0,      22.37,    23.25,    23.09,    20.36,    22.80
      103.0,      22.24,    23.14,    22.93,    20.23,    22.68
      104.0,      22.11,    23.03,    22.77,    20.10,    22.55
      105.0,      21.98,    22.92,    22.61,    19.97,    22.43
      106.0,      21.86,    22.82,    22.46,    19.84,    22.31
      107.0,      21.74,    22.72,    22.31,    19.72,    22.20
      108.0,      21.62,    22.62,    22.16,    19.60,    22.09
      109.0,      21.50,    22.52,    22.01,    19.48,    21.97
      110.0,      21.38,    22.43,    21.86,    19.36,    21.86
      111.0,      21.27,    22.34,    21.72,    19.24,    21.76
      112.0,      21.15,    22.25,    21.58,    19.13,    21.65
      113.0,      21.04,    22.16,    21.44,    19.02,    21.55
      114.0,      20.93,    22.08,    21.30,    18.90,    21.44
      115.0,      20.82,    21.99,    21.17,    18.79,    21.34
      116.0,      20.72,    21.91,    21.04,    18.68,    21.24
      117.0,      20.61,    21.83,    20.91,    18.58,    21.15
      118.0,      20.51,    21.75,    20.78,    18.47,    21.05
      119.0,      20.41,    21.67,    20.65,    18.36,    20.96
      120.0,      20.31,    21.60,    20.53,    18.26,    20.86
      121.0,      20.21,    21.52,    20.40,    18.16,    20.77
      122.0,      20.12,    21.45,    20.28,    18.06,    20.68
      123.0,      20.02,    21.38,    20.16,    17.96,    20.59
      124.0,      19.93,    21.31,    20.04,    17.86,    20.51
      125.0,      19.84,    21.24,    19.92,    17.76,    20.42
      126.0,      19.75,    21.17,    19.81,    17.66,    20.34
      127.0,      19.66,    21.11,    19.70,    17.57,    20.25
      128.0,      19.57,    21.04,    19.58,    17.47,    20.17
      129.0,      19.48,    20.98,    19.47,    17.38,    20.09
      130.0,      19.39,    20.91,    19.36,    17.28,    20.01
      131.0,      19.31,    20.85,    19.25,    17.19,    19.93
      132.0,      19.22,    20.79,    19.15,    17.10,    19.85
      133.0,      19.14,    20.73,    19.04,    17.01,    19.78
      134.0,      19.06,    20.67,    18.94,    16.92,    19.70
      135.0,      18.98,    20.61,    18.83,    16.83,    19.63
      136.0,      18.90,    20.55,    18.73,    16.74,    19.55
      137.0,      18.82,    20.50,    18.63,    16.66,    19.48
      138.0,      18.74,    20.44,    18.53,    16.57,    19.41
      139.0,      18.66,    20.39,    18.44,    16.48,    19.34
      140.0,      18.58,    20.33,    18.34,    16.40,    19.27
      141.0,      18.51,    20.28,    18.24,    16.32,    19.20
      142.0,      18.43,    20.23,    18.15,    16.23,    19.13
      143.0,      18.36,    20.18,    18.05,    16.15,    19.06
      144.0,      18.29,    20.12,    17.96,    16.07,    18.99
      145.0,      18.21,    20.07,    17.87,    15.99,    18.93
      146.0,      18.14,    20.02,    17.78,    15.90,    18.86
      147.0,      18.07,    19.97,    17.69,    15.82,    18.80
      148.0,      18.00,    19.92,    17.60,    15.74,    18.73
      149.0,      17.93,    19.88,    17.51,    15.67,    18.67
      150.0,      17.86,    19.83,    17.43,    15.59,    18.61
      151.0,      17.79,    19.78,    17.34,    15.51,    18.55
      152.0,      17.73,    19.73,    17.25,    15.43,    18.48
      153.0,      17.66,    19.69,    17.17,    15.36,    18.42
      154.0,      17.59,    19.64,    17.09,    15.28,    18.36
      155.0,      17.53,    19.60,    17.00,    15.20,    18.30
      156.0,      17.46,    19.55,    16.92,    15.13,    18.25
      157.0,      17.40,    19.51,    16.84,    15.06,    18.19
      158.0,      17.33,    19.46,    16.76,    14.98,    18.13
      159.0,      17.27,    19.42,    16.68,    14.91,    18.07
      160.0,      17.21,    19.38,    16.60,    14.83,    18.01
      161.0,      17.14,    19.33,    16.53,    14.76,    17.96
      162.0,      17.08,    19.29,    16.45,    14.69,    17.90
      163.0,      17.02,    19.25,    16.37,    14.62,    17.85
      164.0,      16.96,    19.21,    16.30,    14.55,    17.79
      165.0,      16.90,    19.17,    16.22,    14.48,    17.74
      166.0,      16.84,    19.12,    16.15,    14.41,    17.68
      167.0,      16.78,    19.08,    16.07,    14.34,    17.63
      168.0,      16.72,    19.04,    16.00,    14.27,    17.58
      169.0,      16.66,    19.00,    15.93,    14.20,    17.52
      170.0,      16.60,    18.96,    15.85,    14.13,    17.47
      171.0,      16.55,    18.92,    15.78,    14.06,    17.42
      172.0,      16.49,    18.88,    15.71,    14.00,    17.37
      173.0,      16.43,    18.84,    15.64,    13.93,    17.32
      174.0,      16.38,    18.81,    15.57,    13.86,    17.27
      175.0,      16.32,    18.77,    15.50,    13.80,    17.21
      176.0,      16.26,    18.73,    15.43,    13.73,    17.16
      177.0,      16.21,    18.69,    15.37,    13.66,    17.12
      178.0,      16.15,    18.65,    15.30,    13.60,    17.07
      179.0,      16.10,    18.62,    15.23,    13.53,    17.02
      180.0,      16.04,    18.58,    15.17,    13.47,    16.97
      181.0,      15.99,    18.54,    15.10,    13.40,    16.92
      182.0,      15.94,    18.50,    15.03,    13.34,    16.87
      183.0,      15.88,    18.47,    14.97,    13.28,    16.82
      184.0,      15.83,    18.43,    14.90,    13.21,    16.78
      185.0,      15.78,    18.39,    14.84,    13.15,    16.73
      186.0,      15.73,    18.36,    14.78,    13.09,    16.68
      187.0,      15.67,    18.32,    14.71,    13.03,    16.63
      188.0,      15.62,    18.29,    14.65,    12.97,    16.59
      189.0,      15.57,    18.25,    14.59,    12.90,    16.54
      190.0,      15.52,    18.21,    14.53,    12.84,    16.50
      191.0,      15.47,    18.18,    14.47,    12.78,    16.45
      192.0,      15.42,    18.14,    14.40,    12.72,    16.41
      193.0,      15.37,    18.11,    14.34,    12.66,    16.36
      194.0,      15.32,    18.07,    14.28,    12.60,    16.32
      195.0,      15.27,    18.04,    14.22,    12.54,    16.27
      196.0,      15.22,    18.00,    14.16,    12.48,    16.23
      197.0,      15.17,    17.97,    14.11,    12.43,    16.18
      198.0,      15.12,    17.94,    14.05,    12.37,    16.14
      199.0,      15.07,    17.90,    13.99,    12.31,    16.09
      200.0,      15.03,    17.87,    13.93,    12.25,    16.05
      201.0,      14.98,    17.83,    13.87,    12.19,    16.01
      202.0,      14.93,    17.80,    13.82,    12.14,    15.97
      203.0,      14.88,    17.77,    13.76,    12.08,    15.92
      204.0,      14.83,    17.73,    13.70,    12.02,    15.88
      205.0,      14.79,    17.70,    13.65,    11.97,    15.84
      206.0,      14.74,    17.67,    13.59,    11.91,    15.79
      207.0,      14.69,    17.63,    13.54,    11.85,    15.75
      208.0,      14.65,    17.60,    13.48,    11.80,    15.71
      209.0,      14.60,    17.57,    13.43,    11.74,    15.67
      210.0,      14.56,    17.53,    13.37,    11.69,    15.63
      211.0,      14.51,    17.50,    13.32,    11.63,    15.59
      212.0,      14.46,    17.47,    13.26,    11.58,    15.55
      213.0,      14.42,    17.44,    13.21,    11.52,    15.50
      214.0,      14.37,    17.40,    13.16,    11.47,    15.46
      215.0,      14.33,    17.37,    13.11,    11.42,    15.42
      216.0,      14.28,    17.34,    13.05,    11.36,    15.38
      217.0,      14.24,    17.31,    13.00,    11.31,    15.34
      218.0,      14.20,    17.27,    12.95,    11.26,    15.30
      219.0,      14.15,    17.24,    12.90,    11.21,    15.26
      220.0,      14.11,    17.21,    12.85,    11.15,    15.22
      221.0,      14.06,    17.18,    12.79,    11.10,    15.18
      222.0,      14.02,    17.15,    12.74,    11.05,    15.14
      223.0,      13.98,    17.11,    12.69,    11.00,    15.10
      224.0,      13.93,    17.08,    12.64,    10.95,    15.07
      225.0,      13.89,    17.05,    12.59,    10.90,    15.03
      226.0,      13.85,    17.02,    12.54,    10.84,    14.99
      227.0,      13.81,    16.99,    12.49,    10.79,    14.95
      228.0,      13.76,    16.96,    12.44,    10.74,    14.91
      229.0,      13.72,    16.93,    12.40,    10.69,    14.87
      230.0,      13.68,    16.90,    12.35,    10.64,    14.83
      231.0,      13.64,    16.86,    12.30,    10.59,    14.80
      232.0,      13.60,    16.83,    12.25,    10.54,    14.76
      233.0,      13.55,    16.80,    12.20,    10.50,    14.72
      234.0,      13.51,    16.77,    12.15,    10.45,    14.68
      235.0,      13.47,    16.74,    12.11,    10.40,    14.64
      236.0,      13.43,    16.71,    12.06,    10.35,    14.61
      237.0,      13.39,    16.68,    12.01,    10.30,    14.57
      238.0,      13.35,    16.65,    11.97,    10.25,    14.53
      239.0,      13.31,    16.62,    11.92,    10.21,    14.49
      240.0,      13.27,    16.59,    11.87,    10.16,    14.46
      241.0,      13.23,    16.56,    11.83,    10.11,    14.42
      242.0,      13.19,    16.53,    11.78,    10.06,    14.38
      243.0,      13.15,    16.50,    11.73,    10.02,    14.35
      244.0,      13.11,    16.47,    11.69,     9.97,    14.31
      245.0,      13.07,    16.44,    11.64,     9.92,    14.28
      246.0,      13.03,    16.41,    11.60,     9.88,    14.24
      247.0,      12.99,    16.38,    11.55,     9.83,    14.20
      248.0,      12.95,    16.35,    11.51,     9.79,    14.17
      249.0,      12.91,    16.32,    11.47,     9.74,    14.13
      250.0,      12.88,    16.29,    11.42,     9.70,    14.09
      251.0,      12.84,    16.26,    11.38,     9.65,    14.06
      252.0,      12.80,    16.23,    11.33,     9.61,    14.02
      253.0,      12.76,    16.20,    11.29,     9.56,    13.99
      254.0,      12.72,    16.17,    11.25,     9.52,    13.95
      255.0,      12.68,    16.14,    11.20,     9.47,    13.92
      256.0,      12.65,    16.11,    11.16,     9.43,    13.88
      257.0,      12.61,    16.08,    11.12,     9.38,    13.85
      258.0,      12.57,    16.06,    11.07,     9.34,    13.81
      259.0,      12.53,    16.03,    11.03,     9.30,    13.78
      260.0,      12.50,    16.00,    10.99,     9.25,    13.74
      261.0,      12.46,    15.97,    10.95,     9.21,    13.71
      262.0,      12.42,    15.94,    10.91,     9.17,    13.67
      263.0,      12.39,    15.91,    10.86,     9.13,    13.64
      264.0,      12.35,    15.88,    10.82,     9.08,    13.61
      265.0,      12.31,    15.85,    10.78,     9.04,    13.57
      266.0,      12.28,    15.82,    10.74,     9.00,    13.54
      267.0,      12.24,    15.80,    10.70,     8.96,    13.50
      268.0,      12.20,    15.77,    10.66,     8.92,    13.47
      269.0,      12.17,    15.74,    10.62,     8.87,    13.44
      270.0,      12.13,    15.71,    10.58,     8.83,    13.40
      271.0,      12.09,    15.68,    10.54,     8.79,    13.37
      272.0,      12.06,    15.65,    10.50,     8.75,    13.33
      273.0,      12.02,    15.63,    10.46,     8.71,    13.30
      274.0,      11.99,    15.60,    10.42,     8.67,    13.27
      275.0,      11.95,    15.57,    10.38,     8.63,    13.23
      276.0,      11.92,    15.54,    10.34,     8.59,    13.20
      277.0,      11.88,    15.51,    10.30,     8.55,    13.17
      278.0,      11.85,    15.49,    10.26,     8.51,    13.14
      279.0,      11.81,    15.46,    10.22,     8.47,    13.10
      280.0,      11.78,    15.43,    10.18,     8.43,    13.07
      281.0,      11.74,    15.40,    10.14,     8.39,    13.04
      282.0,      11.71,    15.37,    10.11,     8.35,    13.00
      283.0,      11.67,    15.35,    10.07,     8.31,    12.97
      284.0,      11.64,    15.32,    10.03,     8.28,    12.94
      285.0,      11.61,    15.29,     9.99,     8.24,    12.91
      286.0,      11.57,    15.26,     9.95,     8.20,    12.88
      287.0,      11.54,    15.24,     9.92,     8.16,    12.84
      288.0,      11.51,    15.21,     9.88,     8.12,    12.81
      289.0,      11.47,    15.18,     9.84,     8.09,    12.78
      290.0,      11.44,    15.15,     9.80,     8.05,    12.75
      291.0,      11.40,    15.13,     9.77,     8.01,    12.72
      292.0,      11.37,    15.10,     9.73,     7.97,    12.68
      293.0,      11.34,    15.07,     9.69,     7.94,    12.65
      294.0,      11.31,    15.04,     9.66,     7.90,    12.62
      295.0,      11.27,    15.02,     9.62,     7.86,    12.59
      296.0,      11.24,    14.99,     9.58,     7.83,    12.56
      297.0,      11.21,    14.96,     9.55,     7.79,    12.53
      298.0,      11.17,    14.94,     9.51,     7.75,    12.50
      299.0,      11.14,    14.91,     9.48,     7.72,    12.46
      300.0,      11.11,    14.88,     9.44,     7.68,    12.43
      301.0,      11.08,    14.86,     9.40,     7.65,    12.40
      302.0,      11.05,    14.83,     9.37,     7.61,    12.37
      303.0,      11.01,    14.80,     9.33,     7.58,    12.34
      304.0,      10.98,    14.78,     9.30,     7.54,    12.31
      305.0,      10.95,    14.75,     9.26,     7.51,    12.28
      306.0,      10.92,    14.72,     9.23,     7.47,    12.25
      307.0,      10.89,    14.70,     9.19,     7.44,    12.22
      308.0,      10.85,    14.67,     9.16,     7.40,    12.19
      309.0,      10.82,    14.64,     9.12,     7.37,    12.16
      310.0,      10.79,    14.62,     9.09,     7.33,    12.13
