Radius (km), Mean (m/s), NE (m/s), SE (m/s), SW (m/s), NW (m/s)
        0.0,       0.00,     0.00,     0.00,     0.00,     0.00
        1.0,       2.25,     2.19,     2.19,     2.42,     2.19
        2.0,       3.94,     3.90,     3.90,     4.06,     3.90
        3.0,       5.47,     5.47,     5.47,     5.49,     5.47
        4.0,       6.91,     6.95,     6.95,     6.80,     6.95
        5.0,       8.29,     8.37,     8.37,     8.03,     8.37
        6.0,       9.61,     9.75,     9.75,     9.20,     9.75
        7.0,      10.89,    11.08,    11.08,    10.32,    11.08
        8.0,      12.14,    12.39,    12.39,    11.40,    12.39
        9.0,      13.36,    13.67,    13.67,    12.44,    13.67
       10.0,      14.56,    14.92,    14.92,    13.46,    14.92
       11.0,      15.73,    16.16,    16.16,    14.45,    16.16
       12.0,      16.89,    17.38,    17.37,    15.42,    17.39
       13.0,      18.06,    18.63,    18.58,    16.38,    18.64
       14.0,      19.29,    19.96,    19.82,    17.39,    19.98
       15.0,      20.62,    21.42,    21.13,    18.47,    21.44
       16.0,      22.08,    23.03,    22.58,    19.68,    23.05
       17.0,      23.70,    24.79,    24.19,    21.01,    24.81
       18.0,      25.43,    26.66,    25.96,    22.45,    26.66
       19.0,      27.22,    28.57,    27.82,    23.95,    28.54
       20.0,      28.97,    30.41,    29.70,    25.42,    30.35
       21.0,      30.58,    32.08,    31.48,    26.77,    31.99
       22.0,      31.96,    33.49,    33.05,    27.92,    33.38
       23.0,      33.03,    34.56,    34.31,    28.80,    34.44
       24.0,      33.74,    35.27,    35.19,    29.36,    35.14
       25.0,      34.09,    35.60,    35.65,    29.60,    35.49
       26.0,      34.09,    35.61,    35.71,    29.53,    35.53
       27.0,      33.82,    35.34,    35.42,    29.20,    35.30
       28.0,      33.33,    34.88,    34.85,    28.69,    34.89
       29.0,      32.70,    34.30,    34.09,    28.05,    34.37
       30.0,      32.02,    33.68,    33.23,    27.35,    33.80
       31.0,      31.32,    33.06,    32.35,    26.66,    33.24
       32.0,      30.66,    32.46,    31.49,    25.99,    32.69
       33.0,      30.03,    31.90,    30.69,    25.36,    32.17
       34.0,      29.43,    31.37,    29.94,    24.77,    31.67
       35.0,      28.87,    30.86,    29.23,    24.20,    31.18
       36.0,      28.32,    30.37,    28.55,    23.66,    30.71
       37.0,      27.79,    29.89,    27.89,    23.14,    30.24
       38.0,      27.28,    29.43,    27.27,    22.64,    29.79
       39.0,      26.79,    28.98,    26.66,    22.15,    29.35
       40.0,      26.31,    28.55,    26.08,    21.69,    28.93
       41.0,      25.85,    28.14,    25.52,    21.24,    28.51
       42.0,      25.41,    27.74,    24.98,    20.81,    28.10
       43.0,      24.98,    27.35,    24.46,    20.40,    27.71
       44.0,      24.57,    26.98,    23.96,    20.00,    27.32
       45.0,      24.16,    26.62,    23.48,    19.62,    26.94
       46.0,      23.78,    26.27,    23.02,    19.25,    26.57
       47.0,      23.40,    25.93,    22.57,    18.90,    26.22
       48.0,      23.04,    25.61,    22.14,    18.56,    25.87
       49.0,      22.69,    25.29,    21.73,    18.23,    25.53
       50.0,      22.36,    24.99,    21.33,    17.91,    25.20
       51.0,      22.03,    24.69,    20.95,    17.61,    24.87
       52.0,      21.72,    24.41,    20.58,    17.32,    24.56
       53.0,      21.41,    24.13,    20.23,    17.03,    24.25
       54.0,      21.12,    23.87,    19.89,    16.76,    23.95
       55.0,      20.83,    23.61,    19.56,    16.50,    23.66
       56.0,      20.56,    23.36,    19.24,    16.25,    23.37
       57.0,      20.29,    23.12,    18.93,    16.01,    23.10
       58.0,      20.03,    22.89,    18.64,    15.78,    22.82
       59.0,      19.78,    22.66,    18.35,    15.55,    22.56
       60.0,      19.54,    22.44,    18.08,    15.33,    22.30
       61.0,      19.31,    22.23,    17.82,    15.13,    22.05
       62.0,      19.08,    22.03,    17.56,    14.93,    21.81
       63.0,      18.86,    21.83,    17.32,    14.73,    21.57
       64.0,      18.65,    21.64,    17.08,    14.55,    21.33
       65.0,      18.44,    21.45,    16.85,    14.37,    21.11
       66.0,      18.25,    21.27,    16.63,    14.19,    20.88
       67.0,      18.05,    21.10,    16.42,    14.03,    20.67
       68.0,      17.87,    20.93,    16.21,    13.87,    20.46
       69.0,      17.69,    20.77,    16.02,    13.71,    20.25
       70.0,      17.51,    20.61,    15.83,    13.56,    20.05
       71.0,      17.34,    20.46,    15.64,    13.42,    19.85
       72.0,      17.18,    20.31,    15.46,    13.28,    19.66
       73.0,      17.02,    20.16,    15.29,    13.15,    19.48
       74.0,      16.87,    20.03,    15.13,    13.02,    19.29
       75.0,      16.72,    19.89,    14.97,    12.89,    19.12
       76.0,      16.57,    19.76,    14.81,    12.77,    18.94
       77.0,      16.43,    19.63,    14.66,    12.65,    18.77
       78.0,      16.29,    19.51,    14.52,    12.54,    18.61
       79.0,      16.16,    19.39,    14.38,    12.43,    18.45
       80.0,      16.03,    19.27,    14.24,    12.33,    18.29
       81.0,      15.91,    19.16,    14.11,    12.23,    18.14
       82.0,      15.79,    19.05,    13.99,    12.13,    17.99
       83.0,      15.67,    18.94,    13.86,    12.04,    17.84
       84.0,      15.56,    18.83,    13.75,    11.95,    17.70
       85.0,      15.45,    18.73,    13.63,    11.86,    17.56
       86.0,      15.34,    18.64,    13.52,    11.77,    17.42
       87.0,      15.23,    18.54,    13.41,    11.69,    17.29
       88.0,      15.13,    18.45,    13.31,    11.61,    17.16
       89.0,      15.03,    18.36,    13.21,    11.53,    17.03
       90.0,      14.94,    18.27,    13.11,    11.46,    16.91
       91.0,      14.84,    18.18,    13.02,    11.39,    16.79
       92.0,      14.75,    18.10,    12.93,    11.32,    16.67
       93.0,      14.66,    18.02,    12.84,    11.25,    16.56
       94.0,      14.58,    17.94,    12.75,    11.18,    16.44
       95.0,      14.50,    17.86,    12.67,    11.12,    16.33
       96.0,      14.41,    17.79,    12.59,    11.06,    16.23
       97.0,      14.33,    17.71,    12.51,    11.00,    16.12
       98.0,      14.26,    17.64,    12.43,    10.94,    16.02
       99.0,      14.18,    17.57,    12.36,    10.89,    15.92
      100.0,      14.11,    17.50,    12.28,    10.83,    15.82
      101.0,      14.04,    17.44,    12.21,    10.78,    15.72
      102.0,      13.97,    17.37,    12.15,    10.73,    15.63
      103.0,      13.90,    17.31,    12.08,    10.68,    15.54
      104.0,      13.84,    17.24,    12.02,    10.63,    15.45
      105.0,      13.77,    17.18,    11.95,    10.58,    15.36
      106.0,      13.71,    17.12,    11.89,    10.54,    15.28
      107.0,      13.65,    17.07,    11.83,    10.50,    15.19
      108.0,      13.59,    17.01,    11.77,    10.45,    15.11
      109.0,      13.53,    16.95,    11.72,    10.41,    15.03
      110.0,      13.47,    16.90,    11.66,    10.37,    14.95
      111.0,      13.42,    16.85,    11.61,    10.33,    14.88
      112.0,      13.36,    16.79,    11.56,    10.29,    14.80
      113.0,      13.31,    16.74,    11.51,    10.25,    14.73
      114.0,      13.26,    16.69,    11.46,    10.22,    14.66
      115.0,      13.21,    16.64,    11.41,    10.18,    14.59
      116.0,      13.16,    16.60,    11.36,    10.15,    14.52
      117.0,      13.11,    16.55,    11.31,    10.11,    14.45
      118.0,      13.06,    16.50,    11.27,    10.08,    14.39
      119.0,      13.01,    16.46,    11.22,    10.05,    14.32
      120.0,      12.97,    16.41,    11.18,    10.02,    14.26
      121.0,      12.92,    16.37,    11.14,     9.99,    14.20
      122.0,      12.88,    16.33,    11.10,     9.96,    14.14
      123.0,      12.84,    16.28,    11.06,     9.93,    14.08
      124.0,      12.79,    16.24,    11.02,     9.90,    14.02
      125.0,      12.75,    16.20,    10.98,     9.87,    13.96
      126.0,      12.71,    16.16,    10.94,     9.84,    13.91
      127.0,      12.67,    16.12,    10.90,     9.82,    13.85
      128.0,      12.63,    16.08,    10.86,     9.79,    13.80
      129.0,      12.60,    16.04,    10.83,     9.77,    13.75
      130.0,      12.56,    16.01,    10.79,     9.74,    13.70
      131.0,      12.52,    15.97,    10.76,     9.72,    13.64
      132.0,      12.49,    15.93,    10.72,     9.69,    13.60
      133.0,      12.45,    15.89,    10.69,     9.67,    13.55
      134.0,      12.41,    15.86,    10.66,     9.64,    13.50
      135.0,      12.38,    15.82,    10.62,     9.62,    13.45
      136.0,      12.35,    15.79,    10.59,     9.60,    13.41
      137.0,      12.31,    15.75,    10.56,     9.58,    13.36
      138.0,      12.28,    15.72,    10.53,     9.55,    13.32
      139.0,      12.25,    15.69,    10.50,     9.53,    13.28
      140.0,      12.22,    15.65,    10.47,     9.51,    13.23
      141.0,      12.19,    15.62,    10.44,     9.49,    13.19
      142.0,      12.16,    15.59,    10.41,     9.47,    13.15
      143.0,      12.13,    15.56,    10.38,     9.45,    13.11
      144.0,      12.10,    15.53,    10.35,     9.43,    13.07
      145.0,      12.07,    15.49,    10.32,     9.41,    13.03
      146.0,      12.04,    15.46,    10.30,     9.39,    13.00
      147.0,      12.01,    15.43,    10.27,     9.37,    12.96
      148.0,      11.98,    15.40,    10.24,     9.36,    12.92
      149.0,      11.95,    15.37,    10.21,     9.34,    12.89
      150.0,      11.93,    15.34,    10.19,     9.32,    12.85
      151.0,      11.90,    15.31,    10.16,     9.30,    12.82
      152.0,      11.87,    15.28,    10.14,     9.28,    12.78
      153.0,      11.85,    15.26,    10.11,     9.27,    12.75
      154.0,      11.82,    15.23,    10.09,     9.25,    12.72
      155.0,      11.79,    15.20,    10.06,     9.23,    12.68
      156.0,      11.77,    15.17,    10.04,     9.22,    12.65
      157.0,      11.74,    15.14,    10.01,     9.20,    12.62
      158.0,      11.72,    15.11,     9.99,     9.18,    12.59
      159.0,      11.69,    15.09,     9.96,     9.17,    12.56
      160.0,      11.67,    15.06,     9.94,     9.15,    12.53
      161.0,      11.65,    15.03,     9.92,     9.13,    12.50
      162.0,      11.62,    15.01,     9.89,     9.12,    12.47
      163.0,      11.60,    14.98,     9.87,     9.10,    12.44
      164.0,      11.58,    14.95,     9.85,     9.09,    12.41
      165.0,      11.55,    14.93,     9.82,     9.07,    12.39
      166.0,      11.53,    14.90,     9.80,     9.06,    12.36
      167.0,      11.51,    14.87,     9.78,     9.04,    12.33
      168.0,      11.48,    14.85,     9.76,     9.03,    12.31
      169.0,      11.46,    14.82,     9.73,     9.01,    12.28
      170.0,      11.44,    14.80,     9.71,     9.00,    12.25
      171.0,      11.42,    14.77,     9.69,     8.98,    12.23
      172.0,      11.40,    14.75,     9.67,     8.97,    12.20
      173.0,      11.38,    14.72,     9.65,     8.95,    12.18
      174.0,      11.35,    14.70,     9.63,     8.94,    12.15
      175.0,      11.33,    14.67,     9.61,     8.93,    12.13
      176.0,      11.31,    14.65,     9.58,     8.91,    12.11
      177.0,      11.29,    14.62,     9.56,     8.90,    12.08
      178.0,      11.27,    14.60,     9.54,     8.88,    12.06
      179.0,      11.25,    14.57,     9.52,     8.87,    12.04
      180.0,      11.23,    14.55,     9.50,     8.86,    12.01
      181.0,      11.21,    14.53,     9.48,     8.84,    11.99
      182.0,      11.19,    14.50,     9.46,     8.83,    11.97
      183.0,      11.17,    14.48,     9.44,     8.82,    11.95
      184.0,      11.15,    14.46,     9.42,     8.80,    11.93
      185.0,      11.13,    14.43,     9.40,     8.79,    11.91
      186.0,      11.11,    14.41,     9.38,     8.78,    11.89
      187.0,      11.09,    14.39,     9.36,     8.76,    11.86
      188.0,      11.07,    14.36,     9.34,     8.75,    11.84
      189.0,      11.06,    14.34,     9.32,     8.74,    11.82
      190.0,      11.04,    14.32,     9.30,     8.72,    11.80
      191.0,      11.02,    14.29,     9.28,     8.71,    11.78
      192.0,      11.00,    14.27,     9.26,     8.70,    11.76
      193.0,      10.98,    14.25,     9.25,     8.69,    11.74
      194.0,      10.96,    14.22,     9.23,     8.67,    11.73
      195.0,      10.94,    14.20,     9.21,     8.66,    11.71
      196.0,      10.93,    14.18,     9.19,     8.65,    11.69
      197.0,      10.91,    14.16,     9.17,     8.63,    11.67
      198.0,      10.89,    14.13,     9.15,     8.62,    11.65
      199.0,      10.87,    14.11,     9.13,     8.61,    11.63
      200.0,      10.85,    14.09,     9.11,     8.60,    11.61
      201.0,      10.84,    14.07,     9.09,     8.58,    11.60
      202.0,      10.82,    14.04,     9.08,     8.57,    11.58
      203.0,      10.80,    14.02,     9.06,     8.56,    11.56
      204.0,      10.78,    14.00,     9.04,     8.55,    11.54
      205.0,      10.77,    13.98,     9.02,     8.54,    11.53
      206.0,      10.75,    13.96,     9.00,     8.52,    11.51
      207.0,      10.73,    13.94,     8.98,     8.51,    11.49
      208.0,      10.71,    13.91,     8.97,     8.50,    11.48
      209.0,      10.70,    13.89,     8.95,     8.49,    11.46
      210.0,      10.68,    13.87,     8.93,     8.47,    11.44
      211.0,      10.66,    13.85,     8.91,     8.46,    11.43
      212.0,      10.65,    13.83,     8.89,     8.45,    11.41
      213.0,      10.63,    13.81,     8.88,     8.44,    11.39
      214.0,      10.61,    13.78,     8.86,     8.43,    11.38
      215.0,      10.59,    13.76,     8.84,     8.42,    11.36
      216.0,      10.58,    13.74,     8.82,     8.40,    11.34
      217.0,      10.56,    13.72,     8.81,     8.39,    11.33
      218.0,      10.55,    13.70,     8.79,     8.38,    11.31
      219.0,      10.53,    13.68,     8.77,     8.37,    11.30
      220.0,      10.51,    13.66,     8.75,     8.36,    11.28
      221.0,      10.50,    13.64,     8.74,     8.34,    11.27
      222.0,      10.48,    13.61,     8.72,     8.33,    11.25
      223.0,      10.46,    13.59,     8.70,     8.32,    11.24
      224.0,      10.45,    13.57,     8.68,     8.31,    11.22
      225.0,      10.43,    13.55,     8.67,     8.30,    11.21
      226.0,      10.41,    13.53,     8.65,     8.29,    11.19
      227.0,      10.40,    13.51,     8.63,     8.27,    11.18
      228.0,      10.38,    13.49,     8.62,     8.26,    11.16
      229.0,      10.37,    13.47,     8.60,     8.25,    11.15
      230.0,      10.35,    13.45,     8.58,     8.24,    11.13
      231.0,      10.34,    13.43,     8.56,     8.23,    11.12
      232.0,      10.32,    13.41,     8.55,     8.22,    11.11
      233.0,      10.30,    13.39,     8.53,     8.21,    11.09
      234.0,      10.29,    13.37,     8.51,     8.19,    11.08
      235.0,      10.27,    13.35,     8.50,     8.18,    11.06
      236.0,      10.26,    13.33,     8.48,     8.17,    11.05
      237.0,      10.24,    13.31,     8.46,     8.16,    11.04
      238.0,      10.23,    13.28,     8.45,     8.15,    11.02
      239.0,      10.21,    13.26,     8.43,     8.14,    11.01
      240.0,      10.19,    13.24,     8.41,     8.13,    10.99
      241.0,      10.18,    13.22,     8.40,     8.12,    10.98
      242.0,      10.16,    13.20,     8.38,     8.10,    10.97
      243.0,      10.15,    13.18,     8.36,     8.09,    10.95
      244.0,      10.13,    13.16,     8.35,     8.08,    10.94
      245.0,      10.12,    13.14,     8.33,     8.07,    10.93
      246.0,      10.10,    13.12,     8.32,     8.06,    10.91
      247.0,      10.09,    13.10,     8.30,     8.05,    10.90
      248.0,      10.07,    13.08,     8.28,     8.04,    10.89
      249.0,      10.06,    13.06,     8.27,     8.03,    10.87
      250.0,      10.04,    13.04,     8.25,     8.02,    10.86
      251.0,      10.03,    13.02,     8.23,     8.00,    10.85
      252.0,      10.01,    13.00,     8.22,     7.99,    10.83
      253.0,      10.00,    12.98,     8.20,     7.98,    10.82
      254.0,       9.98,    12.97,     8.19,     7.97,    10.81
      255.0,       9.97,    12.95,     8.17,     7.96,    10.80
      256.0,       9.95,    12.93,     8.15,     7.95,    10.78
      257.0,       9.94,    12.91,     8.14,     7.94,    10.77
      258.0,       9.92,    12.89,     8.12,     7.93,    10.76
      259.0,       9.91,    12.87,     8.11,     7.92,    10.75
      260.0,       9.89,    12.85,     8.09,     7.91,    10.73
      261.0,       9.88,    12.83,     8.07,     7.90,    10.72
      262.0,       9.86,    12.81,     8.06,     7.88,    10.71
      263.0,       9.85,    12.79,     8.04,     7.87,    10.69
      264.0,       9.84,    12.77,     8.03,     7.86,    10.68
      265.0,       9.82,    12.75,     8.01,     7.85,    10.67
      266.0,       9.81,    12.73,     8.00,     7.84,    10.66
      267.0,       9.79,    12.71,     7.98,     7.83,    10.65
      268.0,       9.78,    12.69,     7.96,     7.82,    10.63
      269.0,       9.76,    12.67,     7.95,     7.81,    10.62
      270.0,       9.75,    12.65,     7.93,     7.80,    10.61
      271.0,       9.73,    12.64,     7.92,     7.79,    10.60
      272.0,       9.72,    12.62,     7.90,     7.78,    10.58
      273.0,       9.71,    12.60,     7.89,     7.77,    10.57
      274.0,       9.69,    12.58,     7.87,     7.76,    10.56
      275.0,       9.68,    12.56,     7.86,     7.75,    10.55
      276.0,       9.66,    12.54,     7.84,     7.73,    10.54
      277.0,       9.65,    12.52,     7.83,     7.72,    10.52
      278.0,       9.63,    12.50,     7.81,     7.71,    10.51
      279.0,       9.62,    12.48,     7.80,     7.70,    10.50
      280.0,       9.61,    12.46,     7.78,     7.69,    10.49
      281.0,       9.59,    12.45,     7.76,     7.68,    10.48
      282.0,       9.58,    12.43,     7.75,     7.67,    10.47
      283.0,       9.56,    12.41,     7.73,     7.66,    10.45
      284.0,       9.55,    12.39,     7.72,     7.65,    10.44
      285.0,       9.54,    12.37,     7.70,     7.64,    10.43
      286.0,       9.52,    12.35,     7.69,     7.63,    10.42
      287.0,       9.51,    12.33,     7.67,     7.62,    10.41
      288.0,       9.49,    12.31,     7.66,     7.61,    10.40
      289.0,       9.48,    12.30,     7.64,     7.60,    10.38
      290.0,       9.47,    12.28,     7.63,     7.59,    10.37
      291.0,       9.45,    12.26,     7.61,     7.58,    10.36
      292.0,       9.44,    12.24,     7.60,     7.57,    10.35
      293.0,       9.43,    12.22,     7.59,     7.56,    10.34
      294.0,       9.41,    12.20,     7.57,     7.55,    10.33
      295.0,       9.40,    12.19,     7.56,     7.54,    10.31
      296.0,       9.38,    12.17,     7.54,     7.53,    10.30
      297.0,       9.37,    12.15,     7.53,     7.52,    10.29
      298.0,       9.36,    12.13,     7.51,     7.51,    10.28
      299.0,       9.34,    12.11,     7.50,     7.50,    10.27
      300.0,       9.33,    12.09,     7.48,     7.48,    10.26
      301.0,       9.32,    12.08,     7.47,     7.47,    10.25
      302.0,       9.30,    12.06,     7.45,     7.46,    10.24
      303.0,       9.29,    12.04,     7.44,     7.45,    10.22
      304.0,       9.28,    12.02,     7.42,     7.44,    10.21
      305.0,       9.26,    12.00,     7.41,     7.43,    10.20
      306.0,       9.25,    11.98,     7.40,     7.42,    10.19
      307.0,       9.23,    11.97,     7.38,     7.41,    10.18
      308.0,       9.22,    11.95,     7.37,     7.40,    10.17
      309.0,       9.21,    11.93,     7.35,     7.39,    10.16
      310.0,       9.19,    11.91,     7.34,     7.38,    10.15
