Radius (km), Mean (m/s), NE (m/s), SE (m/s), SW (m/s), NW (m/s)
        0.0,       0.00,     0.00,     0.00,     0.00,     0.00
        1.0,       3.33,     3.25,     3.36,     3.44,     3.28
        2.0,       5.70,     5.69,     5.71,     5.70,     5.70
        3.0,       7.84,     7.93,     7.82,     7.70,     7.91
        4.0,       9.91,    10.13,     9.83,     9.62,    10.07
        5.0,      12.02,    12.38,    11.86,    11.56,    12.28
        6.0,      14.24,    14.76,    13.99,    13.60,    14.62
        7.0,      16.60,    17.29,    16.26,    15.73,    17.11
        8.0,      19.07,    19.94,    18.67,    17.94,    19.73
        9.0,      21.59,    22.65,    21.15,    20.16,    22.41
       10.0,      24.06,    25.30,    23.61,    22.29,    25.04
       11.0,      26.37,    27.79,    25.93,    24.25,    27.50
       12.0,      28.40,    29.98,    27.99,    25.93,    29.67
       13.0,      30.05,    31.80,    29.69,    27.28,    31.46
       14.0,      31.29,    33.17,    30.95,    28.25,    32.79
       15.0,      32.08,    34.09,    31.75,    28.84,    33.65
       16.0,      32.46,    34.57,    32.11,    29.09,    34.07
       17.0,      32.48,    34.69,    32.08,    29.05,    34.11
       18.0,      32.23,    34.53,    31.75,    28.79,    33.86
       19.0,      31.80,    34.18,    31.20,    28.40,    33.41
       20.0,      31.27,    33.73,    30.55,    27.94,    32.87
       21.0,      30.71,    33.25,    29.85,    27.47,    32.29
       22.0,      30.17,    32.78,    29.17,    27.00,    31.73
       23.0,      29.65,    32.34,    28.53,    26.55,    31.20
       24.0,      29.17,    31.92,    27.92,    26.13,    30.70
       25.0,      28.70,    31.52,    27.35,    25.72,    30.22
       26.0,      28.25,    31.14,    26.79,    25.32,    29.76
       27.0,      27.82,    30.77,    26.26,    24.93,    29.32
       28.0,      27.40,    30.41,    25.75,    24.55,    28.89
       29.0,      26.99,    30.06,    25.26,    24.18,    28.48
       30.0,      26.60,    29.73,    24.78,    23.82,    28.08
       31.0,      26.23,    29.41,    24.33,    23.47,    27.70
       32.0,      25.86,    29.10,    23.89,    23.13,    27.33
       33.0,      25.51,    28.79,    23.47,    22.80,    26.97
       34.0,      25.17,    28.50,    23.06,    22.48,    26.63
       35.0,      24.84,    28.22,    22.67,    22.17,    26.30
       36.0,      24.52,    27.95,    22.29,    21.86,    25.98
       37.0,      24.21,    27.68,    21.92,    21.57,    25.67
       38.0,      23.91,    27.43,    21.57,    21.28,    25.37
       39.0,      23.62,    27.18,    21.24,    21.00,    25.08
       40.0,      23.35,    26.94,    20.91,    20.73,    24.81
       41.0,      23.08,    26.71,    20.60,    20.46,    24.54
       42.0,      22.81,    26.48,    20.29,    20.20,    24.28
       43.0,      22.56,    26.27,    20.00,    19.95,    24.03
       44.0,      22.32,    26.06,    19.72,    19.71,    23.78
       45.0,      22.08,    25.85,    19.45,    19.47,    23.55
       46.0,      21.85,    25.65,    19.19,    19.24,    23.32
       47.0,      21.63,    25.46,    18.94,    19.01,    23.11
       48.0,      21.41,    25.27,    18.70,    18.79,    22.89
       49.0,      21.21,    25.09,    18.46,    18.58,    22.69
       50.0,      21.00,    24.92,    18.24,    18.37,    22.49
       51.0,      20.81,    24.75,    18.02,    18.17,    22.30
       52.0,      20.62,    24.58,    17.81,    17.98,    22.11
       53.0,      20.44,    24.42,    17.60,    17.78,    21.93
       54.0,      20.26,    24.26,    17.41,    17.60,    21.76
       55.0,      20.08,    24.11,    17.22,    17.42,    21.59
       56.0,      19.92,    23.96,    17.04,    17.24,    21.43
       57.0,      19.75,    23.82,    16.86,    17.07,    21.27
       58.0,      19.60,    23.68,    16.69,    16.90,    21.12
       59.0,      19.44,    23.54,    16.53,    16.74,    20.97
       60.0,      19.29,    23.41,    16.37,    16.58,    20.82
       61.0,      19.15,    23.28,    16.21,    16.42,    20.68
       62.0,      19.01,    23.15,    16.06,    16.27,    20.55
       63.0,      18.87,    23.03,    15.92,    16.13,    20.42
       64.0,      18.74,    22.91,    15.78,    15.98,    20.29
       65.0,      18.61,    22.80,    15.65,    15.85,    20.16
       66.0,      18.49,    22.68,    15.52,    15.71,    20.04
       67.0,      18.37,    22.57,    15.39,    15.58,    19.93
       68.0,      18.25,    22.46,    15.27,    15.45,    19.81
       69.0,      18.13,    22.36,    15.15,    15.32,    19.70
       70.0,      18.02,    22.25,    15.04,    15.20,    19.59
       71.0,      17.91,    22.15,    14.93,    15.08,    19.49
       72.0,      17.81,    22.05,    14.82,    14.97,    19.38
       73.0,      17.70,    21.96,    14.72,    14.85,    19.29
       74.0,      17.60,    21.86,    14.62,    14.74,    19.19
       75.0,      17.50,    21.77,    14.52,    14.64,    19.09
       76.0,      17.41,    21.68,    14.42,    14.53,    19.00
       77.0,      17.32,    21.59,    14.33,    14.43,    18.91
       78.0,      17.22,    21.50,    14.24,    14.33,    18.82
       79.0,      17.14,    21.42,    14.16,    14.23,    18.74
       80.0,      17.05,    21.33,    14.07,    14.14,    18.65
       81.0,      16.97,    21.25,    13.99,    14.05,    18.57
       82.0,      16.88,    21.17,    13.91,    13.96,    18.49
       83.0,      16.80,    21.09,    13.84,    13.87,    18.42
       84.0,      16.72,    21.01,    13.76,    13.78,    18.34
       85.0,      16.65,    20.94,    13.69,    13.70,    18.27
       86.0,      16.57,    20.86,    13.62,    13.62,    18.19
       87.0,      16.50,    20.79,    13.55,    13.54,    18.12
       88.0,      16.43,    20.71,    13.48,    13.46,    18.05
       89.0,      16.36,    20.64,    13.42,    13.39,    17.98
       90.0,      16.29,    20.57,    13.35,    13.31,    17.92
       91.0,      16.22,    20.50,    13.29,    13.24,    17.85
       92.0,      16.16,    20.44,    13.23,    13.17,    17.79
       93.0,      16.09,    20.37,    13.17,    13.10,    17.72
       94.0,      16.03,    20.30,    13.12,    13.04,    17.66
       95.0,      15.97,    20.24,    13.06,    12.97,    17.60
       96.0,      15.91,    20.17,    13.01,    12.91,    17.54
       97.0,      15.85,    20.11,    12.95,    12.84,    17.48
       98.0,      15.79,    20.05,    12.90,    12.78,    17.43
       99.0,      15.73,    19.99,    12.85,    12.72,    17.37
      100.0,      15.68,    19.93,    12.80,    12.67,    17.32
      101.0,      15.62,    19.87,    12.75,    12.61,    17.26
      102.0,      15.57,    19.81,    12.71,    12.55,    17.21
      103.0,      15.52,    19.75,    12.66,    12.50,    17.15
      104.0,      15.46,    19.69,    12.61,    12.45,    17.10
      105.0,      15.41,    19.63,    12.57,    12.39,    17.05
      106.0,      15.36,    19.58,    12.53,    12.34,    17.00
      107.0,      15.31,    19.52,    12.48,    12.29,    16.95
      108.0,      15.26,    19.47,    12.44,    12.25,    16.90
      109.0,      15.22,    19.41,    12.40,    12.20,    16.85
      110.0,      15.17,    19.36,    12.36,    12.15,    16.81
      111.0,      15.12,    19.31,    12.32,    12.11,    16.76
      112.0,      15.08,    19.25,    12.28,    12.06,    16.71
      113.0,      15.03,    19.20,    12.25,    12.02,    16.67
      114.0,      14.99,    19.15,    12.21,    11.98,    16.62
      115.0,      14.95,    19.10,    12.17,    11.93,    16.58
      116.0,      14.90,    19.05,    12.14,    11.89,    16.53
      117.0,      14.86,    19.00,    12.10,    11.85,    16.49
      118.0,      14.82,    18.95,    12.07,    11.82,    16.45
      119.0,      14.78,    18.90,    12.03,    11.78,    16.40
      120.0,      14.74,    18.85,    12.00,    11.74,    16.36
      121.0,      14.70,    18.80,    11.96,    11.70,    16.32
      122.0,      14.66,    18.75,    11.93,    11.67,    16.28
      123.0,      14.62,    18.70,    11.90,    11.63,    16.24
      124.0,      14.58,    18.65,    11.87,    11.60,    16.20
      125.0,      14.54,    18.61,    11.84,    11.56,    16.16
      126.0,      14.50,    18.56,    11.81,    11.53,    16.12
      127.0,      14.47,    18.51,    11.78,    11.50,    16.08
      128.0,      14.43,    18.47,    11.75,    11.46,    16.04
      129.0,      14.39,    18.42,    11.72,    11.43,    16.00
      130.0,      14.36,    18.37,    11.69,    11.40,    15.96
      131.0,      14.32,    18.33,    11.66,    11.37,    15.93
      132.0,      14.29,    18.28,    11.63,    11.34,    15.89
      133.0,      14.25,    18.24,    11.60,    11.31,    15.85
      134.0,      14.22,    18.19,    11.57,    11.28,    15.81
      135.0,      14.18,    18.15,    11.55,    11.26,    15.78
      136.0,      14.15,    18.10,    11.52,    11.23,    15.74
      137.0,      14.11,    18.06,    11.49,    11.20,    15.71
      138.0,      14.08,    18.02,    11.46,    11.17,    15.67
      139.0,      14.05,    17.97,    11.44,    11.15,    15.63
      140.0,      14.02,    17.93,    11.41,    11.12,    15.60
      141.0,      13.98,    17.89,    11.39,    11.10,    15.56
      142.0,      13.95,    17.84,    11.36,    11.07,    15.53
      143.0,      13.92,    17.80,    11.33,    11.05,    15.49
      144.0,      13.89,    17.76,    11.31,    11.02,    15.46
      145.0,      13.86,    17.72,    11.28,    11.00,    15.42
      146.0,      13.83,    17.68,    11.26,    10.98,    15.39
      147.0,      13.79,    17.63,    11.24,    10.95,    15.36
      148.0,      13.76,    17.59,    11.21,    10.93,    15.32
      149.0,      13.73,    17.55,    11.19,    10.91,    15.29
      150.0,      13.70,    17.51,    11.16,    10.89,    15.26
      151.0,      13.67,    17.47,    11.14,    10.86,    15.22
      152.0,      13.64,    17.43,    11.12,    10.84,    15.19
      153.0,      13.61,    17.39,    11.09,    10.82,    15.16
      154.0,      13.58,    17.35,    11.07,    10.80,    15.12
      155.0,      13.56,    17.31,    11.05,    10.78,    15.09
      156.0,      13.53,    17.27,    11.02,    10.76,    15.06
      157.0,      13.50,    17.23,    11.00,    10.74,    15.03
      158.0,      13.47,    17.19,    10.98,    10.72,    14.99
      159.0,      13.44,    17.15,    10.95,    10.70,    14.96
      160.0,      13.41,    17.11,    10.93,    10.68,    14.93
      161.0,      13.38,    17.07,    10.91,    10.66,    14.90
      162.0,      13.36,    17.03,    10.89,    10.64,    14.87
      163.0,      13.33,    16.99,    10.87,    10.63,    14.84
      164.0,      13.30,    16.95,    10.84,    10.61,    14.80
      165.0,      13.27,    16.91,    10.82,    10.59,    14.77
      166.0,      13.25,    16.87,    10.80,    10.57,    14.74
      167.0,      13.22,    16.83,    10.78,    10.56,    14.71
      168.0,      13.19,    16.80,    10.76,    10.54,    14.68
      169.0,      13.17,    16.76,    10.74,    10.52,    14.65
      170.0,      13.14,    16.72,    10.71,    10.50,    14.62
      171.0,      13.11,    16.68,    10.69,    10.49,    14.59
      172.0,      13.09,    16.64,    10.67,    10.47,    14.56
      173.0,      13.06,    16.60,    10.65,    10.45,    14.53
      174.0,      13.03,    16.57,    10.63,    10.44,    14.50
      175.0,      13.01,    16.53,    10.61,    10.42,    14.47
      176.0,      12.98,    16.49,    10.59,    10.41,    14.44
      177.0,      12.96,    16.45,    10.57,    10.39,    14.41
      178.0,      12.93,    16.42,    10.55,    10.37,    14.38
      179.0,      12.90,    16.38,    10.53,    10.36,    14.35
      180.0,      12.88,    16.34,    10.51,    10.34,    14.32
      181.0,      12.85,    16.31,    10.49,    10.33,    14.29
      182.0,      12.83,    16.27,    10.47,    10.31,    14.26
      183.0,      12.80,    16.23,    10.45,    10.30,    14.23
      184.0,      12.78,    16.20,    10.43,    10.28,    14.20
      185.0,      12.75,    16.16,    10.41,    10.27,    14.17
      186.0,      12.73,    16.12,    10.39,    10.26,    14.14
      187.0,      12.70,    16.09,    10.37,    10.24,    14.12
      188.0,      12.68,    16.05,    10.35,    10.23,    14.09
      189.0,      12.65,    16.01,    10.33,    10.21,    14.06
      190.0,      12.63,    15.98,    10.31,    10.20,    14.03
      191.0,      12.60,    15.94,    10.29,    10.19,    14.00
      192.0,      12.58,    15.91,    10.27,    10.17,    13.97
      193.0,      12.56,    15.87,    10.25,    10.16,    13.94
      194.0,      12.53,    15.84,    10.23,    10.14,    13.92
      195.0,      12.51,    15.80,    10.21,    10.13,    13.89
      196.0,      12.48,    15.76,    10.19,    10.12,    13.86
      197.0,      12.46,    15.73,    10.17,    10.10,    13.83
      198.0,      12.44,    15.69,    10.15,    10.09,    13.80
      199.0,      12.41,    15.66,    10.14,    10.08,    13.77
      200.0,      12.39,    15.62,    10.12,    10.07,    13.75
      201.0,      12.36,    15.59,    10.10,    10.05,    13.72
      202.0,      12.34,    15.55,    10.08,    10.04,    13.69
      203.0,      12.32,    15.52,    10.06,    10.03,    13.66
      204.0,      12.29,    15.48,    10.04,    10.01,    13.64
      205.0,      12.27,    15.45,    10.02,    10.00,    13.61
      206.0,      12.25,    15.41,    10.00,     9.99,    13.58
      207.0,      12.22,    15.38,     9.98,     9.98,    13.55
      208.0,      12.20,    15.35,     9.97,     9.96,    13.53
      209.0,      12.18,    15.31,     9.95,     9.95,    13.50
      210.0,      12.15,    15.28,     9.93,     9.94,    13.47
      211.0,      12.13,    15.24,     9.91,     9.93,    13.44
      212.0,      12.11,    15.21,     9.89,     9.92,    13.42
      213.0,      12.09,    15.18,     9.87,     9.90,    13.39
      214.0,      12.06,    15.14,     9.86,     9.89,    13.36
      215.0,      12.04,    15.11,     9.84,     9.88,    13.34
      216.0,      12.02,    15.07,     9.82,     9.87,    13.31
      217.0,      11.99,    15.04,     9.80,     9.86,    13.28
      218.0,      11.97,    15.01,     9.78,     9.84,    13.26
      219.0,      11.95,    14.97,     9.76,     9.83,    13.23
      220.0,      11.93,    14.94,     9.75,     9.82,    13.20
      221.0,      11.90,    14.91,     9.73,     9.81,    13.18
      222.0,      11.88,    14.87,     9.71,     9.80,    13.15
      223.0,      11.86,    14.84,     9.69,     9.79,    13.12
      224.0,      11.84,    14.81,     9.67,     9.78,    13.10
      225.0,      11.82,    14.77,     9.66,     9.76,    13.07
      226.0,      11.79,    14.74,     9.64,     9.75,    13.04
      227.0,      11.77,    14.71,     9.62,     9.74,    13.02
      228.0,      11.75,    14.68,     9.60,     9.73,    12.99
      229.0,      11.73,    14.64,     9.59,     9.72,    12.97
      230.0,      11.71,    14.61,     9.57,     9.71,    12.94
      231.0,      11.68,    14.58,     9.55,     9.70,    12.91
      232.0,      11.66,    14.54,     9.53,     9.69,    12.89
      233.0,      11.64,    14.51,     9.51,     9.67,    12.86
      234.0,      11.62,    14.48,     9.50,     9.66,    12.84
      235.0,      11.60,    14.45,     9.48,     9.65,    12.81
      236.0,      11.58,    14.42,     9.46,     9.64,    12.78
      237.0,      11.55,    14.38,     9.44,     9.63,    12.76
      238.0,      11.53,    14.35,     9.43,     9.62,    12.73
      239.0,      11.51,    14.32,     9.41,     9.61,    12.71
      240.0,      11.49,    14.29,     9.39,     9.60,    12.68
      241.0,      11.47,    14.26,     9.38,     9.59,    12.66
      242.0,      11.45,    14.22,     9.36,     9.58,    12.63
      243.0,      11.43,    14.19,     9.34,     9.57,    12.61
      244.0,      11.41,    14.16,     9.32,     9.56,    12.58
      245.0,      11.38,    14.13,     9.31,     9.55,    12.56
      246.0,      11.36,    14.10,     9.29,     9.54,    12.53
      247.0,      11.34,    14.07,     9.27,     9.52,    12.51
      248.0,      11.32,    14.04,     9.26,     9.51,    12.48
      249.0,      11.30,    14.00,     9.24,     9.50,    12.46
      250.0,      11.28,    13.97,     9.22,     9.49,    12.43
      251.0,      11.26,    13.94,     9.20,     9.48,    12.41
      252.0,      11.24,    13.91,     9.19,     9.47,    12.38
      253.0,      11.22,    13.88,     9.17,     9.46,    12.36
      254.0,      11.20,    13.85,     9.15,     9.45,    12.33
      255.0,      11.18,    13.82,     9.14,     9.44,    12.31
      256.0,      11.16,    13.79,     9.12,     9.43,    12.28
      257.0,      11.13,    13.76,     9.10,     9.42,    12.26
      258.0,      11.11,    13.73,     9.09,     9.41,    12.23
      259.0,      11.09,    13.70,     9.07,     9.40,    12.21
      260.0,      11.07,    13.67,     9.05,     9.39,    12.18
      261.0,      11.05,    13.64,     9.04,     9.38,    12.16
      262.0,      11.03,    13.60,     9.02,     9.37,    12.13
      263.0,      11.01,    13.57,     9.00,     9.36,    12.11
      264.0,      10.99,    13.54,     8.99,     9.35,    12.09
      265.0,      10.97,    13.51,     8.97,     9.34,    12.06
      266.0,      10.95,    13.48,     8.95,     9.33,    12.04
      267.0,      10.93,    13.45,     8.94,     9.32,    12.01
      268.0,      10.91,    13.42,     8.92,     9.31,    11.99
      269.0,      10.89,    13.39,     8.91,     9.30,    11.97
      270.0,      10.87,    13.36,     8.89,     9.29,    11.94
      271.0,      10.85,    13.33,     8.87,     9.28,    11.92
      272.0,      10.83,    13.31,     8.86,     9.27,    11.89
      273.0,      10.81,    13.28,     8.84,     9.26,    11.87
      274.0,      10.79,    13.25,     8.82,     9.25,    11.85
      275.0,      10.77,    13.22,     8.81,     9.24,    11.82
      276.0,      10.75,    13.19,     8.79,     9.23,    11.80
      277.0,      10.73,    13.16,     8.78,     9.22,    11.78
      278.0,      10.71,    13.13,     8.76,     9.21,    11.75
      279.0,      10.69,    13.10,     8.74,     9.20,    11.73
      280.0,      10.67,    13.07,     8.73,     9.19,    11.70
      281.0,      10.65,    13.04,     8.71,     9.18,    11.68
      282.0,      10.63,    13.01,     8.70,     9.17,    11.66
      283.0,      10.62,    12.98,     8.68,     9.16,    11.63
      284.0,      10.60,    12.95,     8.66,     9.15,    11.61
      285.0,      10.58,    12.93,     8.65,     9.14,    11.59
      286.0,      10.56,    12.90,     8.63,     9.13,    11.56
      287.0,      10.54,    12.87,     8.62,     9.12,    11.54
      288.0,      10.52,    12.84,     8.60,     9.11,    11.52
      289.0,      10.50,    12.81,     8.59,     9.10,    11.50
      290.0,      10.48,    12.78,     8.57,     9.09,    11.47
      291.0,      10.46,    12.75,     8.55,     9.09,    11.45
      292.0,      10.44,    12.73,     8.54,     9.08,    11.43
      293.0,      10.42,    12.70,     8.52,     9.07,    11.40
      294.0,      10.40,    12.67,     8.51,     9.06,    11.38
      295.0,      10.38,    12.64,     8.49,     9.05,    11.36
      296.0,      10.37,    12.61,     8.48,     9.04,    11.34
      297.0,      10.35,    12.59,     8.46,     9.03,    11.31
      298.0,      10.33,    12.56,     8.44,     9.02,    11.29
      299.0,      10.31,    12.53,     8.43,     9.01,    11.27
      300.0,      10.29,    12.50,     8.41,     9.00,    11.25
      301.0,      10.27,    12.47,     8.40,     8.99,    11.22
      302.0,      10.25,    12.45,     8.38,     8.98,    11.20
      303.0,      10.23,    12.42,     8.37,     8.97,    11.18
      304.0,      10.22,    12.39,     8.35,     8.96,    11.16
      305.0,      10.20,    12.36,     8.34,     8.95,    11.13
      306.0,      10.18,    12.34,     8.32,     8.94,    11.11
      307.0,      10.16,    12.31,     8.31,     8.93,    11.09
      308.0,      10.14,    12.28,     8.29,     8.92,    11.07
      309.0,      10.12,    12.25,     8.28,     8.92,    11.04
      310.0,      10.10,    12.23,     8.26,     8.91,    11.02
