Radius (km), Mean (m/s), NE (m/s), SE (m/s), SW (m/s), NW (m/s)
        0.0,       0.00,     0.00,     0.00,     0.00,     0.00
        1.0,       2.68,     2.68,     2.67,     2.71,     2.68
        2.0,       4.21,     4.27,     4.27,     4.04,     4.27
        3.0,       5.49,     5.60,     5.63,     5.11,     5.61
        4.0,       6.62,     6.78,     6.85,     6.04,     6.80
        5.0,       7.66,     7.87,     7.97,     6.87,     7.91
        6.0,       8.62,     8.89,     9.02,     7.64,     8.94
        7.0,       9.54,     9.86,    10.02,     8.35,     9.91
        8.0,      10.40,    10.78,    10.97,     9.02,    10.84
        9.0,      11.24,    11.66,    11.89,     9.65,    11.74
       10.0,      12.04,    12.51,    12.77,    10.26,    12.60
       11.0,      12.81,    13.34,    13.63,    10.84,    13.43
       12.0,      13.56,    14.14,    14.46,    11.40,    14.25
       13.0,      14.32,    14.96,    15.30,    11.95,    15.06
       14.0,      15.09,    15.80,    16.17,    12.51,    15.89
       15.0,      15.92,    16.71,    17.12,    13.09,    16.76
       16.0,      16.82,    17.70,    18.17,    13.71,    17.69
       17.0,      17.78,    18.75,    19.31,    14.39,    18.67
       18.0,      18.79,    19.84,    20.53,    15.10,    19.70
       19.0,      19.81,    20.94,    21.76,    15.83,    20.73
       20.0,      20.80,    21.98,    22.96,    16.54,    21.73
       21.0,      21.70,    22.92,    24.03,    17.21,    22.65
       22.0,      22.47,    23.70,    24.93,    17.78,    23.45
       23.0,      23.06,    24.31,    25.61,    18.23,    24.09
       24.0,      23.47,    24.72,    26.02,    18.54,    24.57
       25.0,      23.68,    24.94,    26.19,    18.71,    24.89
       26.0,      23.73,    24.99,    26.13,    18.74,    25.05
       27.0,      23.63,    24.91,    25.88,    18.66,    25.08
       28.0,      23.43,    24.73,    25.49,    18.49,    25.03
       29.0,      23.17,    24.50,    25.03,    18.26,    24.91
       30.0,      22.89,    24.24,    24.53,    18.00,    24.77
       31.0,      22.60,    23.99,    24.04,    17.73,    24.63
       32.0,      22.32,    23.75,    23.57,    17.47,    24.49
       33.0,      22.06,    23.52,    23.13,    17.22,    24.35
       34.0,      21.81,    23.30,    22.71,    16.98,    24.23
       35.0,      21.57,    23.09,    22.30,    16.75,    24.11
       36.0,      21.33,    22.89,    21.92,    16.53,    23.99
       37.0,      21.11,    22.70,    21.54,    16.31,    23.88
       38.0,      20.89,    22.51,    21.18,    16.09,    23.77
       39.0,      20.68,    22.33,    20.84,    15.88,    23.66
       40.0,      20.47,    22.16,    20.51,    15.67,    23.55
       41.0,      20.27,    21.99,    20.19,    15.47,    23.44
       42.0,      20.08,    21.82,    19.88,    15.27,    23.34
       43.0,      19.89,    21.66,    19.58,    15.07,    23.24
       44.0,      19.71,    21.51,    19.30,    14.88,    23.14
       45.0,      19.53,    21.36,    19.02,    14.70,    23.04
       46.0,      19.36,    21.22,    18.76,    14.51,    22.95
       47.0,      19.19,    21.08,    18.50,    14.33,    22.85
       48.0,      19.03,    20.95,    18.26,    14.16,    22.76
       49.0,      18.87,    20.82,    18.02,    13.99,    22.67
       50.0,      18.72,    20.69,    17.79,    13.82,    22.58
       51.0,      18.57,    20.57,    17.57,    13.65,    22.50
       52.0,      18.43,    20.45,    17.36,    13.49,    22.41
       53.0,      18.29,    20.33,    17.16,    13.33,    22.33
       54.0,      18.15,    20.22,    16.96,    13.18,    22.25
       55.0,      18.02,    20.12,    16.77,    13.03,    22.17
       56.0,      17.89,    20.01,    16.59,    12.88,    22.09
       57.0,      17.77,    19.91,    16.41,    12.73,    22.01
       58.0,      17.64,    19.81,    16.24,    12.59,    21.93
       59.0,      17.52,    19.71,    16.08,    12.45,    21.86
       60.0,      17.41,    19.62,    15.92,    12.31,    21.78
       61.0,      17.30,    19.53,    15.77,    12.18,    21.71
       62.0,      17.19,    19.44,    15.62,    12.05,    21.64
       63.0,      17.08,    19.36,    15.48,    11.92,    21.57
       64.0,      16.98,    19.27,    15.34,    11.79,    21.50
       65.0,      16.87,    19.19,    15.21,    11.67,    21.43
       66.0,      16.78,    19.11,    15.08,    11.55,    21.36
       67.0,      16.68,    19.04,    14.96,    11.43,    21.30
       68.0,      16.59,    18.96,    14.84,    11.31,    21.23
       69.0,      16.49,    18.89,    14.72,    11.20,    21.17
       70.0,      16.40,    18.82,    14.61,    11.09,    21.10
       71.0,      16.32,    18.75,    14.50,    10.98,    21.04
       72.0,      16.23,    18.68,    14.40,    10.87,    20.98
       73.0,      16.15,    18.62,    14.30,    10.77,    20.92
       74.0,      16.07,    18.55,    14.20,    10.66,    20.86
       75.0,      15.99,    18.49,    14.11,    10.56,    20.80
       76.0,      15.91,    18.43,    14.02,    10.46,    20.74
       77.0,      15.84,    18.37,    13.93,    10.37,    20.68
       78.0,      15.76,    18.31,    13.84,    10.27,    20.62
       79.0,      15.69,    18.25,    13.76,    10.18,    20.56
       80.0,      15.62,    18.20,    13.68,    10.09,    20.51
       81.0,      15.55,    18.14,    13.60,    10.00,    20.45
       82.0,      15.48,    18.09,    13.53,     9.91,    20.40
       83.0,      15.42,    18.03,    13.46,     9.83,    20.34
       84.0,      15.35,    17.98,    13.39,     9.74,    20.29
       85.0,      15.29,    17.93,    13.32,     9.66,    20.23
       86.0,      15.22,    17.88,    13.25,     9.58,    20.18
       87.0,      15.16,    17.83,    13.19,     9.50,    20.13
       88.0,      15.10,    17.79,    13.13,     9.42,    20.08
       89.0,      15.05,    17.74,    13.07,     9.35,    20.03
       90.0,      14.99,    17.69,    13.01,     9.27,    19.97
       91.0,      14.93,    17.65,    12.95,     9.20,    19.92
       92.0,      14.88,    17.61,    12.90,     9.13,    19.87
       93.0,      14.82,    17.56,    12.84,     9.06,    19.82
       94.0,      14.77,    17.52,    12.79,     8.99,    19.77
       95.0,      14.72,    17.48,    12.74,     8.92,    19.73
       96.0,      14.67,    17.44,    12.69,     8.86,    19.68
       97.0,      14.61,    17.40,    12.64,     8.79,    19.63
       98.0,      14.57,    17.36,    12.60,     8.73,    19.58
       99.0,      14.52,    17.32,    12.55,     8.66,    19.53
      100.0,      14.47,    17.28,    12.51,     8.60,    19.49
      101.0,      14.42,    17.24,    12.46,     8.54,    19.44
      102.0,      14.38,    17.20,    12.42,     8.48,    19.40
      103.0,      14.33,    17.16,    12.38,     8.43,    19.35
      104.0,      14.29,    17.13,    12.34,     8.37,    19.30
      105.0,      14.24,    17.09,    12.30,     8.32,    19.26
      106.0,      14.20,    17.05,    12.26,     8.26,    19.21
      107.0,      14.16,    17.02,    12.23,     8.21,    19.17
      108.0,      14.11,    16.98,    12.19,     8.15,    19.12
      109.0,      14.07,    16.95,    12.16,     8.10,    19.08
      110.0,      14.03,    16.92,    12.12,     8.05,    19.04
      111.0,      13.99,    16.88,    12.09,     8.00,    18.99
      112.0,      13.95,    16.85,    12.05,     7.96,    18.95
      113.0,      13.91,    16.82,    12.02,     7.91,    18.91
      114.0,      13.87,    16.78,    11.99,     7.86,    18.86
      115.0,      13.84,    16.75,    11.96,     7.81,    18.82
      116.0,      13.80,    16.72,    11.93,     7.77,    18.78
      117.0,      13.76,    16.69,    11.90,     7.73,    18.74
      118.0,      13.73,    16.66,    11.87,     7.68,    18.69
      119.0,      13.69,    16.63,    11.84,     7.64,    18.65
      120.0,      13.65,    16.59,    11.81,     7.60,    18.61
      121.0,      13.62,    16.56,    11.79,     7.56,    18.57
      122.0,      13.58,    16.53,    11.76,     7.52,    18.53
      123.0,      13.55,    16.50,    11.73,     7.48,    18.49
      124.0,      13.52,    16.47,    11.71,     7.44,    18.45
      125.0,      13.48,    16.45,    11.68,     7.40,    18.41
      126.0,      13.45,    16.42,    11.66,     7.36,    18.37
      127.0,      13.42,    16.39,    11.63,     7.33,    18.33
      128.0,      13.39,    16.36,    11.61,     7.29,    18.29
      129.0,      13.35,    16.33,    11.58,     7.26,    18.25
      130.0,      13.32,    16.30,    11.56,     7.22,    18.21
      131.0,      13.29,    16.27,    11.54,     7.19,    18.17
      132.0,      13.26,    16.24,    11.51,     7.15,    18.13
      133.0,      13.23,    16.22,    11.49,     7.12,    18.09
      134.0,      13.20,    16.19,    11.47,     7.09,    18.05
      135.0,      13.17,    16.16,    11.45,     7.06,    18.01
      136.0,      13.14,    16.13,    11.43,     7.02,    17.97
      137.0,      13.11,    16.11,    11.40,     6.99,    17.94
      138.0,      13.08,    16.08,    11.38,     6.96,    17.90
      139.0,      13.05,    16.05,    11.36,     6.93,    17.86
      140.0,      13.02,    16.03,    11.34,     6.91,    17.82
      141.0,      13.00,    16.00,    11.32,     6.88,    17.78
      142.0,      12.97,    15.97,    11.30,     6.85,    17.75
      143.0,      12.94,    15.95,    11.28,     6.82,    17.71
      144.0,      12.91,    15.92,    11.26,     6.79,    17.67
      145.0,      12.88,    15.90,    11.24,     6.77,    17.63
      146.0,      12.86,    15.87,    11.22,     6.74,    17.60
      147.0,      12.83,    15.84,    11.20,     6.72,    17.56
      148.0,      12.80,    15.82,    11.19,     6.69,    17.52
      149.0,      12.78,    15.79,    11.17,     6.67,    17.49
      150.0,      12.75,    15.77,    11.15,     6.64,    17.45
      151.0,      12.72,    15.74,    11.13,     6.62,    17.41
      152.0,      12.70,    15.72,    11.11,     6.59,    17.38
      153.0,      12.67,    15.69,    11.09,     6.57,    17.34
      154.0,      12.65,    15.67,    11.08,     6.55,    17.30
      155.0,      12.62,    15.64,    11.06,     6.52,    17.27
      156.0,      12.60,    15.62,    11.04,     6.50,    17.23
      157.0,      12.57,    15.59,    11.02,     6.48,    17.19
      158.0,      12.55,    15.57,    11.01,     6.46,    17.16
      159.0,      12.52,    15.54,    10.99,     6.44,    17.12
      160.0,      12.50,    15.52,    10.97,     6.42,    17.09
      161.0,      12.47,    15.49,    10.96,     6.40,    17.05
      162.0,      12.45,    15.47,    10.94,     6.38,    17.02
      163.0,      12.43,    15.44,    10.92,     6.36,    16.98
      164.0,      12.40,    15.42,    10.91,     6.34,    16.95
      165.0,      12.38,    15.40,    10.89,     6.32,    16.91
      166.0,      12.35,    15.37,    10.87,     6.30,    16.88
      167.0,      12.33,    15.35,    10.86,     6.28,    16.84
      168.0,      12.31,    15.32,    10.84,     6.26,    16.81
      169.0,      12.28,    15.30,    10.82,     6.24,    16.77
      170.0,      12.26,    15.28,    10.81,     6.23,    16.74
      171.0,      12.24,    15.25,    10.79,     6.21,    16.70
      172.0,      12.22,    15.23,    10.78,     6.19,    16.67
      173.0,      12.19,    15.21,    10.76,     6.17,    16.63
      174.0,      12.17,    15.18,    10.75,     6.16,    16.60
      175.0,      12.15,    15.16,    10.73,     6.14,    16.57
      176.0,      12.13,    15.14,    10.71,     6.12,    16.53
      177.0,      12.10,    15.11,    10.70,     6.11,    16.50
      178.0,      12.08,    15.09,    10.68,     6.09,    16.46
      179.0,      12.06,    15.07,    10.67,     6.08,    16.43
      180.0,      12.04,    15.04,    10.65,     6.06,    16.40
      181.0,      12.02,    15.02,    10.64,     6.05,    16.36
      182.0,      11.99,    15.00,    10.62,     6.03,    16.33
      183.0,      11.97,    14.97,    10.61,     6.02,    16.30
      184.0,      11.95,    14.95,    10.59,     6.00,    16.26
      185.0,      11.93,    14.93,    10.58,     5.99,    16.23
      186.0,      11.91,    14.91,    10.56,     5.97,    16.20
      187.0,      11.89,    14.88,    10.55,     5.96,    16.16
      188.0,      11.87,    14.86,    10.53,     5.94,    16.13
      189.0,      11.85,    14.84,    10.52,     5.93,    16.10
      190.0,      11.82,    14.81,    10.50,     5.92,    16.06
      191.0,      11.80,    14.79,    10.49,     5.90,    16.03
      192.0,      11.78,    14.77,    10.48,     5.89,    16.00
      193.0,      11.76,    14.75,    10.46,     5.88,    15.96
      194.0,      11.74,    14.72,    10.45,     5.87,    15.93
      195.0,      11.72,    14.70,    10.43,     5.85,    15.90
      196.0,      11.70,    14.68,    10.42,     5.84,    15.87
      197.0,      11.68,    14.66,    10.40,     5.83,    15.83
      198.0,      11.66,    14.64,    10.39,     5.82,    15.80
      199.0,      11.64,    14.61,    10.38,     5.80,    15.77
      200.0,      11.62,    14.59,    10.36,     5.79,    15.74
      201.0,      11.60,    14.57,    10.35,     5.78,    15.71
      202.0,      11.58,    14.55,    10.33,     5.77,    15.67
      203.0,      11.56,    14.52,    10.32,     5.76,    15.64
      204.0,      11.54,    14.50,    10.30,     5.75,    15.61
      205.0,      11.52,    14.48,    10.29,     5.73,    15.58
      206.0,      11.50,    14.46,    10.28,     5.72,    15.55
      207.0,      11.48,    14.44,    10.26,     5.71,    15.51
      208.0,      11.46,    14.41,    10.25,     5.70,    15.48
      209.0,      11.44,    14.39,    10.24,     5.69,    15.45
      210.0,      11.42,    14.37,    10.22,     5.68,    15.42
      211.0,      11.40,    14.35,    10.21,     5.67,    15.39
      212.0,      11.38,    14.33,    10.19,     5.66,    15.36
      213.0,      11.37,    14.31,    10.18,     5.65,    15.33
      214.0,      11.35,    14.28,    10.17,     5.64,    15.30
      215.0,      11.33,    14.26,    10.15,     5.63,    15.26
      216.0,      11.31,    14.24,    10.14,     5.62,    15.23
      217.0,      11.29,    14.22,    10.13,     5.61,    15.20
      218.0,      11.27,    14.20,    10.11,     5.60,    15.17
      219.0,      11.25,    14.18,    10.10,     5.59,    15.14
      220.0,      11.23,    14.16,    10.08,     5.58,    15.11
      221.0,      11.21,    14.13,    10.07,     5.57,    15.08
      222.0,      11.20,    14.11,    10.06,     5.56,    15.05
      223.0,      11.18,    14.09,    10.04,     5.55,    15.02
      224.0,      11.16,    14.07,    10.03,     5.54,    14.99
      225.0,      11.14,    14.05,    10.02,     5.53,    14.96
      226.0,      11.12,    14.03,    10.00,     5.53,    14.93
      227.0,      11.10,    14.01,     9.99,     5.52,    14.90
      228.0,      11.08,    13.99,     9.98,     5.51,    14.87
      229.0,      11.07,    13.96,     9.96,     5.50,    14.84
      230.0,      11.05,    13.94,     9.95,     5.49,    14.81
      231.0,      11.03,    13.92,     9.94,     5.48,    14.78
      232.0,      11.01,    13.90,     9.92,     5.47,    14.75
      233.0,      10.99,    13.88,     9.91,     5.46,    14.72
      234.0,      10.97,    13.86,     9.90,     5.46,    14.69
      235.0,      10.96,    13.84,     9.88,     5.45,    14.66
      236.0,      10.94,    13.82,     9.87,     5.44,    14.63
      237.0,      10.92,    13.80,     9.86,     5.43,    14.60
      238.0,      10.90,    13.78,     9.85,     5.42,    14.57
      239.0,      10.89,    13.76,     9.83,     5.42,    14.54
      240.0,      10.87,    13.73,     9.82,     5.41,    14.51
      241.0,      10.85,    13.71,     9.81,     5.40,    14.48
      242.0,      10.83,    13.69,     9.79,     5.39,    14.45
      243.0,      10.81,    13.67,     9.78,     5.38,    14.42
      244.0,      10.80,    13.65,     9.77,     5.38,    14.39
      245.0,      10.78,    13.63,     9.75,     5.37,    14.36
      246.0,      10.76,    13.61,     9.74,     5.36,    14.33
      247.0,      10.74,    13.59,     9.73,     5.35,    14.30
      248.0,      10.73,    13.57,     9.72,     5.35,    14.27
      249.0,      10.71,    13.55,     9.70,     5.34,    14.24
      250.0,      10.69,    13.53,     9.69,     5.33,    14.22
      251.0,      10.67,    13.51,     9.68,     5.32,    14.19
      252.0,      10.66,    13.49,     9.66,     5.32,    14.16
      253.0,      10.64,    13.47,     9.65,     5.31,    14.13
      254.0,      10.62,    13.45,     9.64,     5.30,    14.10
      255.0,      10.61,    13.43,     9.63,     5.30,    14.07
      256.0,      10.59,    13.41,     9.61,     5.29,    14.04
      257.0,      10.57,    13.39,     9.60,     5.28,    14.02
      258.0,      10.55,    13.37,     9.59,     5.27,    13.99
      259.0,      10.54,    13.35,     9.58,     5.27,    13.96
      260.0,      10.52,    13.33,     9.56,     5.26,    13.93
      261.0,      10.50,    13.31,     9.55,     5.25,    13.90
      262.0,      10.49,    13.29,     9.54,     5.25,    13.87
      263.0,      10.47,    13.27,     9.52,     5.24,    13.85
      264.0,      10.45,    13.25,     9.51,     5.23,    13.82
      265.0,      10.44,    13.23,     9.50,     5.23,    13.79
      266.0,      10.42,    13.21,     9.49,     5.22,    13.76
      267.0,      10.40,    13.19,     9.47,     5.21,    13.73
      268.0,      10.39,    13.17,     9.46,     5.21,    13.71
      269.0,      10.37,    13.15,     9.45,     5.20,    13.68
      270.0,      10.35,    13.13,     9.44,     5.19,    13.65
      271.0,      10.34,    13.11,     9.42,     5.19,    13.62
      272.0,      10.32,    13.09,     9.41,     5.18,    13.59
      273.0,      10.30,    13.07,     9.40,     5.17,    13.57
      274.0,      10.29,    13.05,     9.39,     5.17,    13.54
      275.0,      10.27,    13.03,     9.37,     5.16,    13.51
      276.0,      10.25,    13.01,     9.36,     5.15,    13.49
      277.0,      10.24,    12.99,     9.35,     5.15,    13.46
      278.0,      10.22,    12.97,     9.34,     5.14,    13.43
      279.0,      10.20,    12.95,     9.33,     5.14,    13.40
      280.0,      10.19,    12.93,     9.31,     5.13,    13.38
      281.0,      10.17,    12.91,     9.30,     5.12,    13.35
      282.0,      10.16,    12.89,     9.29,     5.12,    13.32
      283.0,      10.14,    12.87,     9.28,     5.11,    13.29
      284.0,      10.12,    12.86,     9.26,     5.10,    13.27
      285.0,      10.11,    12.84,     9.25,     5.10,    13.24
      286.0,      10.09,    12.82,     9.24,     5.09,    13.21
      287.0,      10.07,    12.80,     9.23,     5.09,    13.19
      288.0,      10.06,    12.78,     9.22,     5.08,    13.16
      289.0,      10.04,    12.76,     9.20,     5.07,    13.13
      290.0,      10.03,    12.74,     9.19,     5.07,    13.11
      291.0,      10.01,    12.72,     9.18,     5.06,    13.08
      292.0,       9.99,    12.70,     9.17,     5.06,    13.05
      293.0,       9.98,    12.68,     9.15,     5.05,    13.03
      294.0,       9.96,    12.66,     9.14,     5.05,    13.00
      295.0,       9.95,    12.64,     9.13,     5.04,    12.98
      296.0,       9.93,    12.63,     9.12,     5.03,    12.95
      297.0,       9.92,    12.61,     9.11,     5.03,    12.92
      298.0,       9.90,    12.59,     9.09,     5.02,    12.90
      299.0,       9.88,    12.57,     9.08,     5.02,    12.87
      300.0,       9.87,    12.55,     9.07,     5.01,    12.84
      301.0,       9.85,    12.53,     9.06,     5.00,    12.82
      302.0,       9.84,    12.51,     9.05,     5.00,    12.79
      303.0,       9.82,    12.49,     9.03,     4.99,    12.77
      304.0,       9.81,    12.47,     9.02,     4.99,    12.74
      305.0,       9.79,    12.46,     9.01,     4.98,    12.71
      306.0,       9.78,    12.44,     9.00,     4.98,    12.69
      307.0,       9.76,    12.42,     8.99,     4.97,    12.66
      308.0,       9.74,    12.40,     8.98,     4.97,    12.64
      309.0,       9.73,    12.38,     8.96,     4.96,    12.61
      310.0,       9.71,    12.36,     8.95,     4.95,    12.59
