Radius (km), Mean (m/s), NE (m/s), SE (m/s), SW (m/s), NW (m/s)
        0.0,       0.00,     0.00,     0.00,     0.00,     0.00
        1.0,       1.16,     1.04,     1.27,     1.27,     1.04
        2.0,       2.24,     2.08,     2.39,     2.39,     2.08
        3.0,       3.29,     3.12,     3.46,     3.46,     3.12
        4.0,       4.32,     4.16,     4.49,     4.49,     4.16
        5.0,       5.35,     5.19,     5.50,     5.50,     5.19
        6.0,       6.36,     6.23,     6.50,     6.50,     6.23
        7.0,       7.37,     7.27,     7.48,     7.48,     7.27
        8.0,       8.37,     8.30,     8.45,     8.45,     8.30
        9.0,       9.37,     9.34,     9.41,     9.41,     9.34
       10.0,      10.36,    10.37,    10.35,    10.35,    10.37
       11.0,      11.35,    11.40,    11.29,    11.29,    11.40
       12.0,      12.33,    12.44,    12.22,    12.22,    12.44
       13.0,      13.31,    13.47,    13.15,    13.15,    13.47
       14.0,      14.29,    14.50,    14.07,    14.07,    14.50
       15.0,      15.26,    15.54,    14.98,    14.98,    15.54
       16.0,      16.23,    16.57,    15.89,    15.89,    16.57
       17.0,      17.20,    17.60,    16.79,    16.79,    17.60
       18.0,      18.16,    18.64,    17.69,    17.69,    18.64
       19.0,      19.13,    19.67,    18.58,    18.58,    19.67
       20.0,      20.09,    20.70,    19.47,    19.47,    20.70
       21.0,      21.05,    21.73,    20.36,    20.36,    21.73
       22.0,      22.00,    22.76,    21.24,    21.24,    22.76
       23.0,      22.96,    23.80,    22.12,    22.12,    23.80
       24.0,      23.91,    24.83,    23.00,    23.00,    24.83
       25.0,      24.86,    25.86,    23.87,    23.87,    25.86
       26.0,      25.81,    26.89,    24.74,    24.74,    26.89
       27.0,      26.76,    27.92,    25.60,    25.60,    27.92
       28.0,      27.71,    28.95,    26.46,    26.46,    28.95
       29.0,      28.65,    29.98,    27.32,    27.32,    29.98
       30.0,      29.60,    31.02,    28.18,    28.18,    31.02
       31.0,      30.56,    32.08,    29.05,    29.04,    32.06
       32.0,      31.55,    33.21,    29.95,    29.90,    33.13
       33.0,      32.62,    34.49,    30.93,    30.78,    34.29
       34.0,      33.81,    35.95,    32.04,    31.71,    35.55
       35.0,      35.15,    37.62,    33.31,    32.73,    36.94
       36.0,      36.62,    39.47,    34.72,    33.84,    38.46
       37.0,      38.19,    41.41,    36.24,    35.04,    40.07
       38.0,      39.78,    43.36,    37.78,    36.30,    41.70
       39.0,      41.31,    45.17,    39.26,    37.56,    43.27
       40.0,      42.69,    46.74,    40.57,    38.76,    44.71
       41.0,      43.84,    47.96,    41.62,    39.84,    45.93
       42.0,      44.68,    48.77,    42.36,    40.73,    46.88
       43.0,      45.20,    49.14,    42.75,    41.38,    47.54
       44.0,      45.40,    49.10,    42.80,    41.79,    47.91
       45.0,      45.30,    48.71,    42.54,    41.96,    48.00
       46.0,      44.97,    48.05,    42.04,    41.91,    47.88
       47.0,      44.47,    47.21,    41.38,    41.69,    47.60
       48.0,      43.88,    46.29,    40.62,    41.35,    47.24
       49.0,      43.25,    45.36,    39.84,    40.95,    46.83
       50.0,      42.62,    44.46,    39.08,    40.53,    46.42
       51.0,      42.02,    43.60,    38.35,    40.13,    46.02
       52.0,      41.46,    42.79,    37.67,    39.74,    45.64
       53.0,      40.92,    42.02,    37.02,    39.38,    45.28
       54.0,      40.41,    41.28,    36.40,    39.04,    44.91
       55.0,      39.90,    40.56,    35.80,    38.70,    44.56
       56.0,      39.42,    39.88,    35.22,    38.36,    44.20
       57.0,      38.94,    39.21,    34.67,    38.04,    43.86
       58.0,      38.49,    38.58,    34.14,    37.72,    43.51
       59.0,      38.04,    37.97,    33.62,    37.40,    43.17
       60.0,      37.61,    37.38,    33.13,    37.09,    42.84
       61.0,      37.19,    36.81,    32.65,    36.79,    42.50
       62.0,      36.78,    36.26,    32.19,    36.49,    42.17
       63.0,      36.39,    35.74,    31.75,    36.20,    41.85
       64.0,      36.00,    35.23,    31.33,    35.91,    41.53
       65.0,      35.63,    34.75,    30.92,    35.63,    41.21
       66.0,      35.26,    34.28,    30.52,    35.35,    40.90
       67.0,      34.91,    33.83,    30.14,    35.08,    40.59
       68.0,      34.57,    33.39,    29.77,    34.81,    40.28
       69.0,      34.23,    32.98,    29.42,    34.54,    39.98
       70.0,      33.91,    32.57,    29.08,    34.28,    39.68
       71.0,      33.59,    32.19,    28.75,    34.03,    39.39
       72.0,      33.28,    31.81,    28.44,    33.78,    39.10
       73.0,      32.98,    31.45,    28.13,    33.53,    38.81
       74.0,      32.69,    31.11,    27.84,    33.29,    38.52
       75.0,      32.40,    30.77,    27.55,    33.05,    38.24
       76.0,      32.13,    30.45,    27.28,    32.81,    37.96
       77.0,      31.86,    30.14,    27.02,    32.58,    37.69
       78.0,      31.59,    29.84,    26.76,    32.36,    37.42
       79.0,      31.34,    29.55,    26.52,    32.13,    37.15
       80.0,      31.09,    29.28,    26.28,    31.91,    36.88
       81.0,      30.84,    29.01,    26.05,    31.70,    36.62
       82.0,      30.61,    28.75,    25.83,    31.48,    36.36
       83.0,      30.37,    28.50,    25.61,    31.27,    36.11
       84.0,      30.15,    28.26,    25.41,    31.07,    35.85
       85.0,      29.93,    28.03,    25.21,    30.86,    35.60
       86.0,      29.71,    27.81,    25.02,    30.67,    35.36
       87.0,      29.50,    27.59,    24.83,    30.47,    35.11
       88.0,      29.30,    27.38,    24.65,    30.27,    34.87
       89.0,      29.09,    27.18,    24.48,    30.08,    34.63
       90.0,      28.90,    26.99,    24.31,    29.90,    34.40
       91.0,      28.71,    26.80,    24.15,    29.71,    34.16
       92.0,      28.52,    26.62,    23.99,    29.53,    33.93
       93.0,      28.34,    26.45,    23.84,    29.35,    33.70
       94.0,      28.16,    26.28,    23.69,    29.17,    33.48
       95.0,      27.98,    26.12,    23.55,    29.00,    33.26
       96.0,      27.81,    25.96,    23.41,    28.83,    33.04
       97.0,      27.64,    25.81,    23.28,    28.66,    32.82
       98.0,      27.48,    25.66,    23.15,    28.49,    32.60
       99.0,      27.32,    25.52,    23.03,    28.33,    32.39
      100.0,      27.16,    25.38,    22.91,    28.17,    32.18
      101.0,      27.00,    25.25,    22.79,    28.01,    31.97
      102.0,      26.85,    25.12,    22.68,    27.85,    31.77
      103.0,      26.71,    25.00,    22.56,    27.70,    31.57
      104.0,      26.56,    24.88,    22.46,    27.54,    31.36
      105.0,      26.42,    24.76,    22.35,    27.39,    31.17
      106.0,      26.28,    24.65,    22.25,    27.24,    30.97
      107.0,      26.14,    24.54,    22.16,    27.10,    30.78
      108.0,      26.01,    24.43,    22.06,    26.95,    30.59
      109.0,      25.88,    24.33,    21.97,    26.81,    30.40
      110.0,      25.75,    24.23,    21.88,    26.67,    30.21
      111.0,      25.62,    24.13,    21.79,    26.53,    30.02
      112.0,      25.50,    24.04,    21.71,    26.39,    29.84
      113.0,      25.37,    23.95,    21.62,    26.26,    29.66
      114.0,      25.25,    23.86,    21.54,    26.13,    29.48
      115.0,      25.14,    23.78,    21.47,    25.99,    29.30
      116.0,      25.02,    23.69,    21.39,    25.86,    29.13
      117.0,      24.91,    23.61,    21.32,    25.74,    28.96
      118.0,      24.79,    23.53,    21.24,    25.61,    28.79
      119.0,      24.68,    23.46,    21.17,    25.48,    28.62
      120.0,      24.58,    23.38,    21.10,    25.36,    28.45
      121.0,      24.47,    23.31,    21.04,    25.24,    28.29
      122.0,      24.36,    23.24,    20.97,    25.12,    28.12
      123.0,      24.26,    23.17,    20.91,    25.00,    27.96
      124.0,      24.16,    23.11,    20.85,    24.88,    27.80
      125.0,      24.06,    23.04,    20.79,    24.77,    27.64
      126.0,      23.96,    22.98,    20.73,    24.65,    27.49
      127.0,      23.86,    22.92,    20.67,    24.54,    27.33
      128.0,      23.77,    22.86,    20.61,    24.43,    27.18
      129.0,      23.68,    22.80,    20.56,    24.32,    27.03
      130.0,      23.58,    22.74,    20.50,    24.21,    26.88
      131.0,      23.49,    22.69,    20.45,    24.10,    26.73
      132.0,      23.40,    22.63,    20.40,    23.99,    26.59
      133.0,      23.31,    22.58,    20.35,    23.89,    26.44
      134.0,      23.23,    22.53,    20.30,    23.78,    26.30
      135.0,      23.14,    22.48,    20.25,    23.68,    26.16
      136.0,      23.06,    22.43,    20.20,    23.58,    26.02
      137.0,      22.97,    22.38,    20.15,    23.48,    25.88
      138.0,      22.89,    22.33,    20.11,    23.38,    25.75
      139.0,      22.81,    22.29,    20.06,    23.28,    25.61
      140.0,      22.73,    22.24,    20.02,    23.18,    25.48
      141.0,      22.65,    22.20,    19.97,    23.08,    25.35
      142.0,      22.57,    22.15,    19.93,    22.99,    25.22
      143.0,      22.49,    22.11,    19.89,    22.89,    25.09
      144.0,      22.42,    22.07,    19.85,    22.80,    24.96
      145.0,      22.34,    22.03,    19.80,    22.70,    24.83
      146.0,      22.27,    21.99,    19.76,    22.61,    24.71
      147.0,      22.20,    21.95,    19.72,    22.52,    24.59
      148.0,      22.12,    21.91,    19.69,    22.43,    24.46
      149.0,      22.05,    21.87,    19.65,    22.34,    24.34
      150.0,      21.98,    21.83,    19.61,    22.25,    24.22
      151.0,      21.91,    21.80,    19.57,    22.17,    24.11
      152.0,      21.84,    21.76,    19.53,    22.08,    23.99
      153.0,      21.77,    21.72,    19.50,    21.99,    23.87
      154.0,      21.70,    21.69,    19.46,    21.91,    23.76
      155.0,      21.64,    21.66,    19.43,    21.82,    23.65
      156.0,      21.57,    21.62,    19.39,    21.74,    23.53
      157.0,      21.51,    21.59,    19.36,    21.66,    23.42
      158.0,      21.44,    21.55,    19.32,    21.58,    23.31
      159.0,      21.38,    21.52,    19.29,    21.49,    23.21
      160.0,      21.31,    21.49,    19.26,    21.41,    23.10
      161.0,      21.25,    21.46,    19.22,    21.33,    22.99
      162.0,      21.19,    21.43,    19.19,    21.26,    22.89
      163.0,      21.13,    21.40,    19.16,    21.18,    22.79
      164.0,      21.07,    21.36,    19.13,    21.10,    22.68
      165.0,      21.01,    21.33,    19.09,    21.02,    22.58
      166.0,      20.95,    21.30,    19.06,    20.95,    22.48
      167.0,      20.89,    21.27,    19.03,    20.87,    22.38
      168.0,      20.83,    21.25,    19.00,    20.79,    22.28
      169.0,      20.77,    21.22,    18.97,    20.72,    22.19
      170.0,      20.72,    21.19,    18.94,    20.65,    22.09
      171.0,      20.66,    21.16,    18.91,    20.57,    21.99
      172.0,      20.60,    21.13,    18.88,    20.50,    21.90
      173.0,      20.55,    21.10,    18.85,    20.43,    21.81
      174.0,      20.49,    21.08,    18.82,    20.36,    21.72
      175.0,      20.44,    21.05,    18.79,    20.29,    21.62
      176.0,      20.38,    21.02,    18.76,    20.21,    21.53
      177.0,      20.33,    21.00,    18.73,    20.14,    21.44
      178.0,      20.28,    20.97,    18.71,    20.08,    21.36
      179.0,      20.22,    20.94,    18.68,    20.01,    21.27
      180.0,      20.17,    20.92,    18.65,    19.94,    21.18
      181.0,      20.12,    20.89,    18.62,    19.87,    21.10
      182.0,      20.07,    20.87,    18.59,    19.80,    21.01
      183.0,      20.02,    20.84,    18.57,    19.74,    20.93
      184.0,      19.97,    20.81,    18.54,    19.67,    20.84
      185.0,      19.92,    20.79,    18.51,    19.60,    20.76
      186.0,      19.87,    20.76,    18.48,    19.54,    20.68
      187.0,      19.82,    20.74,    18.46,    19.47,    20.60
      188.0,      19.77,    20.72,    18.43,    19.41,    20.52
      189.0,      19.72,    20.69,    18.40,    19.34,    20.44
      190.0,      19.67,    20.67,    18.38,    19.28,    20.36
      191.0,      19.62,    20.64,    18.35,    19.22,    20.29
      192.0,      19.58,    20.62,    18.32,    19.15,    20.21
      193.0,      19.53,    20.59,    18.30,    19.09,    20.13
      194.0,      19.48,    20.57,    18.27,    19.03,    20.06
      195.0,      19.44,    20.55,    18.25,    18.97,    19.99
      196.0,      19.39,    20.52,    18.22,    18.90,    19.91
      197.0,      19.34,    20.50,    18.20,    18.84,    19.84
      198.0,      19.30,    20.48,    18.17,    18.78,    19.77
      199.0,      19.25,    20.45,    18.14,    18.72,    19.70
      200.0,      19.21,    20.43,    18.12,    18.66,    19.63
      201.0,      19.17,    20.41,    18.09,    18.60,    19.56
      202.0,      19.12,    20.38,    18.07,    18.54,    19.49
      203.0,      19.08,    20.36,    18.04,    18.49,    19.42
      204.0,      19.03,    20.34,    18.02,    18.43,    19.35
      205.0,      18.99,    20.32,    17.99,    18.37,    19.28
      206.0,      18.95,    20.29,    17.97,    18.31,    19.22
      207.0,      18.91,    20.27,    17.94,    18.25,    19.15
      208.0,      18.86,    20.25,    17.92,    18.20,    19.09
      209.0,      18.82,    20.23,    17.89,    18.14,    19.02
      210.0,      18.78,    20.20,    17.87,    18.08,    18.96
      211.0,      18.74,    20.18,    17.85,    18.03,    18.89
      212.0,      18.70,    20.16,    17.82,    17.97,    18.83
      213.0,      18.66,    20.14,    17.80,    17.92,    18.77
      214.0,      18.61,    20.12,    17.77,    17.86,    18.71
      215.0,      18.57,    20.10,    17.75,    17.81,    18.65
      216.0,      18.53,    20.07,    17.72,    17.75,    18.59
      217.0,      18.49,    20.05,    17.70,    17.70,    18.53
      218.0,      18.45,    20.03,    17.68,    17.64,    18.47
      219.0,      18.42,    20.01,    17.65,    17.59,    18.41
      220.0,      18.38,    19.99,    17.63,    17.53,    18.35
      221.0,      18.34,    19.97,    17.61,    17.48,    18.30
      222.0,      18.30,    19.94,    17.58,    17.43,    18.24
      223.0,      18.26,    19.92,    17.56,    17.38,    18.18
      224.0,      18.22,    19.90,    17.53,    17.32,    18.13
      225.0,      18.18,    19.88,    17.51,    17.27,    18.07
      226.0,      18.15,    19.86,    17.49,    17.22,    18.02
      227.0,      18.11,    19.84,    17.46,    17.17,    17.96
      228.0,      18.07,    19.82,    17.44,    17.12,    17.91
      229.0,      18.03,    19.80,    17.42,    17.06,    17.85
      230.0,      18.00,    19.77,    17.39,    17.01,    17.80
      231.0,      17.96,    19.75,    17.37,    16.96,    17.75
      232.0,      17.92,    19.73,    17.35,    16.91,    17.70
      233.0,      17.89,    19.71,    17.32,    16.86,    17.65
      234.0,      17.85,    19.69,    17.30,    16.81,    17.60
      235.0,      17.81,    19.67,    17.28,    16.76,    17.55
      236.0,      17.78,    19.65,    17.26,    16.71,    17.50
      237.0,      17.74,    19.63,    17.23,    16.66,    17.45
      238.0,      17.71,    19.61,    17.21,    16.61,    17.40
      239.0,      17.67,    19.59,    17.19,    16.57,    17.35
      240.0,      17.64,    19.57,    17.16,    16.52,    17.30
      241.0,      17.60,    19.55,    17.14,    16.47,    17.25
      242.0,      17.57,    19.53,    17.12,    16.42,    17.21
      243.0,      17.53,    19.51,    17.10,    16.37,    17.16
      244.0,      17.50,    19.49,    17.07,    16.32,    17.11
      245.0,      17.46,    19.47,    17.05,    16.28,    17.07
      246.0,      17.43,    19.44,    17.03,    16.23,    17.02
      247.0,      17.40,    19.42,    17.01,    16.18,    16.97
      248.0,      17.36,    19.40,    16.98,    16.14,    16.93
      249.0,      17.33,    19.38,    16.96,    16.09,    16.89
      250.0,      17.30,    19.36,    16.94,    16.04,    16.84
      251.0,      17.26,    19.34,    16.92,    16.00,    16.80
      252.0,      17.23,    19.32,    16.89,    15.95,    16.75
      253.0,      17.20,    19.30,    16.87,    15.90,    16.71
      254.0,      17.16,    19.28,    16.85,    15.86,    16.67
      255.0,      17.13,    19.26,    16.83,    15.81,    16.63
      256.0,      17.10,    19.24,    16.81,    15.77,    16.59
      257.0,      17.07,    19.22,    16.78,    15.72,    16.54
      258.0,      17.04,    19.20,    16.76,    15.68,    16.50
      259.0,      17.00,    19.18,    16.74,    15.63,    16.46
      260.0,      16.97,    19.16,    16.72,    15.59,    16.42
      261.0,      16.94,    19.14,    16.70,    15.54,    16.38
      262.0,      16.91,    19.12,    16.67,    15.50,    16.34
      263.0,      16.88,    19.10,    16.65,    15.45,    16.30
      264.0,      16.85,    19.08,    16.63,    15.41,    16.26
      265.0,      16.81,    19.06,    16.61,    15.36,    16.22
      266.0,      16.78,    19.04,    16.59,    15.32,    16.19
      267.0,      16.75,    19.02,    16.56,    15.28,    16.15
      268.0,      16.72,    19.00,    16.54,    15.23,    16.11
      269.0,      16.69,    18.99,    16.52,    15.19,    16.07
      270.0,      16.66,    18.97,    16.50,    15.15,    16.03
      271.0,      16.63,    18.95,    16.48,    15.10,    16.00
      272.0,      16.60,    18.93,    16.46,    15.06,    15.96
      273.0,      16.57,    18.91,    16.43,    15.02,    15.92
      274.0,      16.54,    18.89,    16.41,    14.98,    15.89
      275.0,      16.51,    18.87,    16.39,    14.93,    15.85
      276.0,      16.48,    18.85,    16.37,    14.89,    15.82
      277.0,      16.45,    18.83,    16.35,    14.85,    15.78
      278.0,      16.42,    18.81,    16.33,    14.81,    15.75
      279.0,      16.39,    18.79,    16.31,    14.77,    15.71
      280.0,      16.36,    18.77,    16.28,    14.72,    15.68
      281.0,      16.34,    18.75,    16.26,    14.68,    15.64
      282.0,      16.31,    18.73,    16.24,    14.64,    15.61
      283.0,      16.28,    18.71,    16.22,    14.60,    15.58
      284.0,      16.25,    18.69,    16.20,    14.56,    15.54
      285.0,      16.22,    18.67,    16.18,    14.52,    15.51
      286.0,      16.19,    18.65,    16.16,    14.48,    15.48
      287.0,      16.16,    18.63,    16.14,    14.44,    15.45
      288.0,      16.13,    18.62,    16.11,    14.40,    15.41
      289.0,      16.11,    18.60,    16.09,    14.36,    15.38
      290.0,      16.08,    18.58,    16.07,    14.32,    15.35
      291.0,      16.05,    18.56,    16.05,    14.28,    15.32
      292.0,      16.02,    18.54,    16.03,    14.24,    15.29
      293.0,      15.99,    18.52,    16.01,    14.20,    15.25
      294.0,      15.97,    18.50,    15.99,    14.16,    15.22
      295.0,      15.94,    18.48,    15.97,    14.12,    15.19
      296.0,      15.91,    18.46,    15.95,    14.08,    15.16
      297.0,      15.88,    18.44,    15.93,    14.04,    15.13
      298.0,      15.86,    18.42,    15.90,    14.00,    15.10
      299.0,      15.83,    18.41,    15.88,    13.96,    15.07
      300.0,      15.80,    18.39,    15.86,    13.92,    15.04
      301.0,      15.78,    18.37,    15.84,    13.88,    15.01
      302.0,      15.75,    18.35,    15.82,    13.84,    14.98
      303.0,      15.72,    18.33,    15.80,    13.81,    14.96
      304.0,      15.70,    18.31,    15.78,    13.77,    14.93
      305.0,      15.67,    18.29,    15.76,    13.73,    14.90
      306.0,      15.64,    18.27,    15.74,    13.69,    14.87
      307.0,      15.62,    18.25,    15.72,    13.65,    14.84
      308.0,      15.59,    18.24,    15.70,    13.61,    14.81
      309.0,      15.56,    18.22,    15.68,    13.58,    14.79
      310.0,      15.54,    18.20,    15.66,    13.54,    14.76
