Radius (km), Mean (m/s), NE (m/s), SE (m/s), SW (m/s), NW (m/s)
        0.0,       0.00,     0.00,     0.00,     0.00,     0.00
        1.0,       1.19,     1.22,     1.22,     1.36,     0.96
        2.0,       2.41,     2.46,     2.46,     2.64,     2.09
        3.0,       3.65,     3.71,     3.71,     3.91,     3.29
        4.0,       4.90,     4.97,     4.97,     5.15,     4.54
        5.0,       6.17,     6.23,     6.23,     6.39,     5.82
        6.0,       7.43,     7.49,     7.49,     7.61,     7.14
        7.0,       8.71,     8.76,     8.76,     8.83,     8.48
        8.0,       9.99,    10.03,    10.03,    10.04,     9.85
        9.0,      11.27,    11.30,    11.30,    11.24,    11.24
       10.0,      12.56,    12.58,    12.58,    12.44,    12.65
       11.0,      13.85,    13.86,    13.86,    13.63,    14.07
       12.0,      15.15,    15.13,    15.13,    14.82,    15.51
       13.0,      16.45,    16.41,    16.41,    16.01,    16.96
       14.0,      17.75,    17.70,    17.70,    17.19,    18.43
       15.0,      19.06,    18.98,    18.98,    18.37,    19.91
       16.0,      20.37,    20.26,    20.26,    19.55,    21.40
       17.0,      21.68,    21.55,    21.55,    20.73,    22.90
       18.0,      23.00,    22.84,    22.84,    21.90,    24.42
       19.0,      24.31,    24.12,    24.12,    23.07,    25.94
       20.0,      25.63,    25.41,    25.41,    24.23,    27.47
       21.0,      26.96,    26.70,    26.70,    25.40,    29.02
       22.0,      28.30,    28.02,    28.02,    26.57,    30.58
       23.0,      29.69,    29.40,    29.41,    27.76,    32.21
       24.0,      31.20,    30.89,    30.92,    29.03,    33.95
       25.0,      32.86,    32.53,    32.62,    30.41,    35.88
       26.0,      34.70,    34.31,    34.50,    31.95,    38.03
       27.0,      36.70,    36.21,    36.55,    33.64,    40.38
       28.0,      38.80,    38.19,    38.70,    35.44,    42.87
       29.0,      40.93,    40.16,    40.84,    37.29,    45.41
       30.0,      42.96,    42.02,    42.87,    39.08,    47.87
       31.0,      44.79,    43.69,    44.65,    40.72,    50.11
       32.0,      46.33,    45.10,    46.10,    42.10,    52.01
       33.0,      47.49,    46.18,    47.15,    43.16,    53.48
       34.0,      48.26,    46.94,    47.78,    43.85,    54.46
       35.0,      48.63,    47.37,    48.01,    44.17,    54.97
       36.0,      48.66,    47.54,    47.89,    44.15,    55.05
       37.0,      48.41,    47.49,    47.50,    43.86,    54.78
       38.0,      47.97,    47.30,    46.94,    43.37,    54.26
       39.0,      47.42,    47.03,    46.29,    42.76,    53.60
       40.0,      46.83,    46.73,    45.62,    42.11,    52.88
       41.0,      46.26,    46.44,    44.97,    41.47,    52.17
       42.0,      45.72,    46.16,    44.35,    40.87,    51.49
       43.0,      45.21,    45.90,    43.78,    40.30,    50.86
       44.0,      44.72,    45.64,    43.23,    39.77,    50.25
       45.0,      44.25,    45.38,    42.70,    39.26,    49.65
       46.0,      43.79,    45.13,    42.19,    38.77,    49.07
       47.0,      43.34,    44.88,    41.70,    38.29,    48.51
       48.0,      42.91,    44.63,    41.22,    37.83,    47.95
       49.0,      42.49,    44.39,    40.76,    37.39,    47.41
       50.0,      42.07,    44.14,    40.32,    36.96,    46.88
       51.0,      41.67,    43.90,    39.89,    36.54,    46.36
       52.0,      41.28,    43.66,    39.48,    36.14,    45.85
       53.0,      40.90,    43.42,    39.08,    35.75,    45.36
       54.0,      40.53,    43.19,    38.69,    35.37,    44.87
       55.0,      40.17,    42.96,    38.32,    35.00,    44.40
       56.0,      39.81,    42.73,    37.96,    34.65,    43.93
       57.0,      39.47,    42.50,    37.61,    34.30,    43.47
       58.0,      39.13,    42.27,    37.27,    33.97,    43.03
       59.0,      38.81,    42.05,    36.94,    33.65,    42.59
       60.0,      38.49,    41.82,    36.62,    33.33,    42.17
       61.0,      38.18,    41.60,    36.32,    33.03,    41.75
       62.0,      37.87,    41.39,    36.02,    32.74,    41.34
       63.0,      37.57,    41.17,    35.73,    32.45,    40.94
       64.0,      37.28,    40.96,    35.45,    32.17,    40.55
       65.0,      37.00,    40.74,    35.18,    31.90,    40.16
       66.0,      36.72,    40.53,    34.92,    31.64,    39.79
       67.0,      36.45,    40.32,    34.67,    31.39,    39.42
       68.0,      36.18,    40.12,    34.42,    31.14,    39.06
       69.0,      35.93,    39.91,    34.18,    30.90,    38.71
       70.0,      35.67,    39.71,    33.95,    30.67,    38.36
       71.0,      35.42,    39.51,    33.73,    30.44,    38.02
       72.0,      35.18,    39.31,    33.51,    30.22,    37.69
       73.0,      34.94,    39.11,    33.30,    30.00,    37.37
       74.0,      34.71,    38.92,    33.09,    29.79,    37.05
       75.0,      34.48,    38.72,    32.89,    29.59,    36.74
       76.0,      34.26,    38.53,    32.69,    29.39,    36.43
       77.0,      34.04,    38.34,    32.51,    29.20,    36.13
       78.0,      33.83,    38.15,    32.32,    29.01,    35.84
       79.0,      33.62,    37.96,    32.14,    28.82,    35.55
       80.0,      33.41,    37.78,    31.97,    28.64,    35.27
       81.0,      33.21,    37.59,    31.80,    28.47,    34.99
       82.0,      33.02,    37.41,    31.63,    28.30,    34.72
       83.0,      32.82,    37.23,    31.47,    28.13,    34.46
       84.0,      32.63,    37.05,    31.32,    27.96,    34.20
       85.0,      32.45,    36.87,    31.16,    27.80,    33.94
       86.0,      32.26,    36.70,    31.02,    27.65,    33.69
       87.0,      32.08,    36.52,    30.87,    27.50,    33.44
       88.0,      31.91,    36.35,    30.73,    27.35,    33.20
       89.0,      31.73,    36.18,    30.59,    27.20,    32.97
       90.0,      31.56,    36.01,    30.46,    27.06,    32.73
       91.0,      31.40,    35.84,    30.32,    26.92,    32.51
       92.0,      31.23,    35.67,    30.19,    26.78,    32.28
       93.0,      31.07,    35.51,    30.07,    26.65,    32.06
       94.0,      30.91,    35.34,    29.95,    26.51,    31.85
       95.0,      30.76,    35.18,    29.82,    26.38,    31.64
       96.0,      30.60,    35.02,    29.71,    26.26,    31.43
       97.0,      30.45,    34.86,    29.59,    26.13,    31.22
       98.0,      30.30,    34.70,    29.48,    26.01,    31.02
       99.0,      30.16,    34.54,    29.37,    25.89,    30.83
      100.0,      30.01,    34.39,    29.26,    25.77,    30.64
      101.0,      29.87,    34.23,    29.15,    25.66,    30.45
      102.0,      29.73,    34.08,    29.05,    25.54,    30.26
      103.0,      29.60,    33.93,    28.95,    25.43,    30.08
      104.0,      29.46,    33.78,    28.85,    25.32,    29.90
      105.0,      29.33,    33.63,    28.75,    25.21,    29.72
      106.0,      29.20,    33.48,    28.65,    25.11,    29.55
      107.0,      29.07,    33.33,    28.55,    25.00,    29.38
      108.0,      28.94,    33.19,    28.46,    24.90,    29.21
      109.0,      28.81,    33.04,    28.37,    24.80,    29.04
      110.0,      28.69,    32.90,    28.28,    24.70,    28.88
      111.0,      28.57,    32.76,    28.19,    24.60,    28.72
      112.0,      28.45,    32.62,    28.10,    24.50,    28.56
      113.0,      28.33,    32.48,    28.02,    24.41,    28.41
      114.0,      28.21,    32.34,    27.93,    24.31,    28.26
      115.0,      28.09,    32.20,    27.85,    24.22,    28.11
      116.0,      27.98,    32.07,    27.76,    24.13,    27.96
      117.0,      27.87,    31.93,    27.68,    24.04,    27.82
      118.0,      27.76,    31.80,    27.60,    23.95,    27.67
      119.0,      27.65,    31.66,    27.52,    23.86,    27.53
      120.0,      27.54,    31.53,    27.45,    23.77,    27.40
      121.0,      27.43,    31.40,    27.37,    23.68,    27.26
      122.0,      27.32,    31.27,    27.29,    23.60,    27.13
      123.0,      27.22,    31.14,    27.22,    23.51,    27.00
      124.0,      27.11,    31.02,    27.14,    23.43,    26.87
      125.0,      27.01,    30.89,    27.07,    23.34,    26.74
      126.0,      26.91,    30.77,    27.00,    23.26,    26.61
      127.0,      26.81,    30.64,    26.93,    23.18,    26.49
      128.0,      26.71,    30.52,    26.86,    23.10,    26.37
      129.0,      26.61,    30.40,    26.79,    23.02,    26.25
      130.0,      26.52,    30.27,    26.72,    22.94,    26.13
      131.0,      26.42,    30.15,    26.65,    22.86,    26.01
      132.0,      26.32,    30.03,    26.58,    22.79,    25.89
      133.0,      26.23,    29.92,    26.51,    22.71,    25.78
      134.0,      26.14,    29.80,    26.45,    22.63,    25.67
      135.0,      26.04,    29.68,    26.38,    22.56,    25.56
      136.0,      25.95,    29.57,    26.32,    22.48,    25.45
      137.0,      25.86,    29.45,    26.25,    22.41,    25.34
      138.0,      25.77,    29.34,    26.19,    22.34,    25.23
      139.0,      25.69,    29.23,    26.12,    22.26,    25.13
      140.0,      25.60,    29.11,    26.06,    22.19,    25.03
      141.0,      25.51,    29.00,    26.00,    22.12,    24.92
      142.0,      25.42,    28.89,    25.94,    22.05,    24.82
      143.0,      25.34,    28.78,    25.87,    21.98,    24.72
      144.0,      25.25,    28.67,    25.81,    21.91,    24.63
      145.0,      25.17,    28.57,    25.75,    21.84,    24.53
      146.0,      25.09,    28.46,    25.69,    21.77,    24.43
      147.0,      25.01,    28.35,    25.63,    21.70,    24.34
      148.0,      24.92,    28.25,    25.57,    21.63,    24.24
      149.0,      24.84,    28.14,    25.52,    21.56,    24.15
      150.0,      24.76,    28.04,    25.46,    21.49,    24.06
      151.0,      24.68,    27.94,    25.40,    21.43,    23.97
      152.0,      24.60,    27.84,    25.34,    21.36,    23.88
      153.0,      24.53,    27.73,    25.28,    21.29,    23.79
      154.0,      24.45,    27.63,    25.23,    21.23,    23.70
      155.0,      24.37,    27.53,    25.17,    21.16,    23.62
      156.0,      24.29,    27.44,    25.11,    21.10,    23.53
      157.0,      24.22,    27.34,    25.06,    21.03,    23.45
      158.0,      24.14,    27.24,    25.00,    20.97,    23.37
      159.0,      24.07,    27.14,    24.95,    20.90,    23.28
      160.0,      23.99,    27.05,    24.89,    20.84,    23.20
      161.0,      23.92,    26.95,    24.84,    20.78,    23.12
      162.0,      23.85,    26.86,    24.78,    20.71,    23.04
      163.0,      23.78,    26.76,    24.73,    20.65,    22.96
      164.0,      23.70,    26.67,    24.67,    20.59,    22.88
      165.0,      23.63,    26.58,    24.62,    20.53,    22.81
      166.0,      23.56,    26.49,    24.56,    20.47,    22.73
      167.0,      23.49,    26.40,    24.51,    20.40,    22.65
      168.0,      23.42,    26.30,    24.46,    20.34,    22.58
      169.0,      23.35,    26.22,    24.41,    20.28,    22.50
      170.0,      23.28,    26.13,    24.35,    20.22,    22.43
      171.0,      23.21,    26.04,    24.30,    20.16,    22.36
      172.0,      23.15,    25.95,    24.25,    20.10,    22.28
      173.0,      23.08,    25.86,    24.20,    20.04,    22.21
      174.0,      23.01,    25.78,    24.14,    19.98,    22.14
      175.0,      22.94,    25.69,    24.09,    19.92,    22.07
      176.0,      22.88,    25.61,    24.04,    19.86,    22.00
      177.0,      22.81,    25.52,    23.99,    19.81,    21.93
      178.0,      22.75,    25.44,    23.94,    19.75,    21.86
      179.0,      22.68,    25.35,    23.89,    19.69,    21.79
      180.0,      22.62,    25.27,    23.84,    19.63,    21.73
      181.0,      22.55,    25.19,    23.79,    19.57,    21.66
      182.0,      22.49,    25.11,    23.74,    19.52,    21.59
      183.0,      22.42,    25.03,    23.69,    19.46,    21.53
      184.0,      22.36,    24.94,    23.64,    19.40,    21.46
      185.0,      22.30,    24.86,    23.59,    19.34,    21.40
      186.0,      22.24,    24.79,    23.54,    19.29,    21.33
      187.0,      22.17,    24.71,    23.49,    19.23,    21.27
      188.0,      22.11,    24.63,    23.44,    19.18,    21.20
      189.0,      22.05,    24.55,    23.39,    19.12,    21.14
      190.0,      21.99,    24.47,    23.34,    19.06,    21.08
      191.0,      21.93,    24.40,    23.29,    19.01,    21.02
      192.0,      21.87,    24.32,    23.24,    18.95,    20.96
      193.0,      21.81,    24.25,    23.20,    18.90,    20.89
      194.0,      21.75,    24.17,    23.15,    18.84,    20.83
      195.0,      21.69,    24.10,    23.10,    18.79,    20.77
      196.0,      21.63,    24.02,    23.05,    18.73,    20.71
      197.0,      21.57,    23.95,    23.00,    18.68,    20.65
      198.0,      21.51,    23.87,    22.95,    18.62,    20.60
      199.0,      21.45,    23.80,    22.91,    18.57,    20.54
      200.0,      21.40,    23.73,    22.86,    18.52,    20.48
      201.0,      21.34,    23.66,    22.81,    18.46,    20.42
      202.0,      21.28,    23.59,    22.77,    18.41,    20.36
      203.0,      21.22,    23.52,    22.72,    18.36,    20.31
      204.0,      21.17,    23.45,    22.67,    18.30,    20.25
      205.0,      21.11,    23.38,    22.62,    18.25,    20.19
      206.0,      21.05,    23.31,    22.58,    18.20,    20.14
      207.0,      21.00,    23.24,    22.53,    18.15,    20.08
      208.0,      20.94,    23.17,    22.48,    18.09,    20.03
      209.0,      20.89,    23.10,    22.44,    18.04,    19.97
      210.0,      20.83,    23.04,    22.39,    17.99,    19.92
      211.0,      20.78,    22.97,    22.35,    17.94,    19.86
      212.0,      20.72,    22.90,    22.30,    17.88,    19.81
      213.0,      20.67,    22.84,    22.25,    17.83,    19.75
      214.0,      20.62,    22.77,    22.21,    17.78,    19.70
      215.0,      20.56,    22.70,    22.16,    17.73,    19.65
      216.0,      20.51,    22.64,    22.12,    17.68,    19.60
      217.0,      20.45,    22.58,    22.07,    17.63,    19.54
      218.0,      20.40,    22.51,    22.03,    17.58,    19.49
      219.0,      20.35,    22.45,    21.98,    17.53,    19.44
      220.0,      20.30,    22.38,    21.94,    17.48,    19.39
      221.0,      20.24,    22.32,    21.89,    17.43,    19.34
      222.0,      20.19,    22.26,    21.85,    17.38,    19.28
      223.0,      20.14,    22.20,    21.80,    17.33,    19.23
      224.0,      20.09,    22.14,    21.76,    17.28,    19.18
      225.0,      20.04,    22.07,    21.71,    17.23,    19.13
      226.0,      19.99,    22.01,    21.67,    17.18,    19.08
      227.0,      19.93,    21.95,    21.62,    17.13,    19.03
      228.0,      19.88,    21.89,    21.58,    17.08,    18.98
      229.0,      19.83,    21.83,    21.53,    17.03,    18.93
      230.0,      19.78,    21.77,    21.49,    16.98,    18.88
      231.0,      19.73,    21.71,    21.45,    16.93,    18.84
      232.0,      19.68,    21.66,    21.40,    16.88,    18.79
      233.0,      19.63,    21.60,    21.36,    16.84,    18.74
      234.0,      19.58,    21.54,    21.31,    16.79,    18.69
      235.0,      19.53,    21.48,    21.27,    16.74,    18.64
      236.0,      19.48,    21.42,    21.23,    16.69,    18.59
      237.0,      19.44,    21.37,    21.18,    16.64,    18.55
      238.0,      19.39,    21.31,    21.14,    16.60,    18.50
      239.0,      19.34,    21.25,    21.10,    16.55,    18.45
      240.0,      19.29,    21.20,    21.05,    16.50,    18.41
      241.0,      19.24,    21.14,    21.01,    16.45,    18.36
      242.0,      19.19,    21.09,    20.97,    16.41,    18.31
      243.0,      19.15,    21.03,    20.93,    16.36,    18.27
      244.0,      19.10,    20.98,    20.88,    16.31,    18.22
      245.0,      19.05,    20.92,    20.84,    16.27,    18.17
      246.0,      19.00,    20.87,    20.80,    16.22,    18.13
      247.0,      18.96,    20.82,    20.75,    16.17,    18.08
      248.0,      18.91,    20.76,    20.71,    16.13,    18.04
      249.0,      18.86,    20.71,    20.67,    16.08,    17.99
      250.0,      18.82,    20.66,    20.63,    16.03,    17.95
      251.0,      18.77,    20.60,    20.59,    15.99,    17.90
      252.0,      18.72,    20.55,    20.54,    15.94,    17.86
      253.0,      18.68,    20.50,    20.50,    15.90,    17.81
      254.0,      18.63,    20.45,    20.46,    15.85,    17.77
      255.0,      18.59,    20.40,    20.42,    15.81,    17.72
      256.0,      18.54,    20.35,    20.38,    15.76,    17.68
      257.0,      18.50,    20.29,    20.34,    15.72,    17.64
      258.0,      18.45,    20.24,    20.29,    15.67,    17.59
      259.0,      18.41,    20.19,    20.25,    15.63,    17.55
      260.0,      18.36,    20.14,    20.21,    15.58,    17.50
      261.0,      18.32,    20.09,    20.17,    15.54,    17.46
      262.0,      18.27,    20.04,    20.13,    15.49,    17.42
      263.0,      18.23,    20.00,    20.09,    15.45,    17.38
      264.0,      18.18,    19.95,    20.05,    15.40,    17.33
      265.0,      18.14,    19.90,    20.01,    15.36,    17.29
      266.0,      18.09,    19.85,    19.96,    15.32,    17.25
      267.0,      18.05,    19.80,    19.92,    15.27,    17.20
      268.0,      18.01,    19.75,    19.88,    15.23,    17.16
      269.0,      17.96,    19.71,    19.84,    15.19,    17.12
      270.0,      17.92,    19.66,    19.80,    15.14,    17.08
      271.0,      17.88,    19.61,    19.76,    15.10,    17.04
      272.0,      17.83,    19.57,    19.72,    15.06,    17.00
      273.0,      17.79,    19.52,    19.68,    15.01,    16.95
      274.0,      17.75,    19.47,    19.64,    14.97,    16.91
      275.0,      17.71,    19.43,    19.60,    14.93,    16.87
      276.0,      17.66,    19.38,    19.56,    14.88,    16.83
      277.0,      17.62,    19.33,    19.52,    14.84,    16.79
      278.0,      17.58,    19.29,    19.48,    14.80,    16.75
      279.0,      17.54,    19.24,    19.44,    14.76,    16.71
      280.0,      17.50,    19.20,    19.40,    14.72,    16.67
      281.0,      17.45,    19.15,    19.36,    14.67,    16.63
      282.0,      17.41,    19.11,    19.32,    14.63,    16.59
      283.0,      17.37,    19.07,    19.28,    14.59,    16.55
      284.0,      17.33,    19.02,    19.25,    14.55,    16.51
      285.0,      17.29,    18.98,    19.21,    14.51,    16.47
      286.0,      17.25,    18.93,    19.17,    14.46,    16.43
      287.0,      17.21,    18.89,    19.13,    14.42,    16.39
      288.0,      17.17,    18.85,    19.09,    14.38,    16.35
      289.0,      17.13,    18.80,    19.05,    14.34,    16.31
      290.0,      17.09,    18.76,    19.01,    14.30,    16.27
      291.0,      17.05,    18.72,    18.97,    14.26,    16.23
      292.0,      17.01,    18.68,    18.93,    14.22,    16.19
      293.0,      16.96,    18.64,    18.90,    14.18,    16.15
      294.0,      16.93,    18.59,    18.86,    14.14,    16.11
      295.0,      16.89,    18.55,    18.82,    14.10,    16.07
      296.0,      16.85,    18.51,    18.78,    14.06,    16.04
      297.0,      16.81,    18.47,    18.74,    14.02,    16.00
      298.0,      16.77,    18.43,    18.70,    13.98,    15.96
      299.0,      16.73,    18.39,    18.67,    13.94,    15.92
      300.0,      16.69,    18.35,    18.63,    13.90,    15.88
      301.0,      16.65,    18.31,    18.59,    13.86,    15.84
      302.0,      16.61,    18.26,    18.55,    13.82,    15.81
      303.0,      16.57,    18.22,    18.51,    13.78,    15.77
      304.0,      16.53,    18.18,    18.48,    13.74,    15.73
      305.0,      16.49,    18.15,    18.44,    13.70,    15.69
      306.0,      16.46,    18.11,    18.40,    13.66,    15.66
      307.0,      16.42,    18.07,    18.36,    13.62,    15.62
      308.0,      16.38,    18.03,    18.33,    13.58,    15.58
      309.0,      16.34,    17.99,    18.29,    13.54,    15.54
      310.0,      16.30,    17.95,    18.25,    13.51,    15.51
