Radius (km), Mean (m/s), NE (m/s), SE (m/s), SW (m/s), NW (m/s)
        0.0,       0.00,     0.00,     0.00,     0.00,     0.00
        1.0,       1.03,     0.90,     0.99,     1.26,     0.99
        2.0,       1.97,     1.79,     1.91,     2.26,     1.91
        3.0,       2.87,     2.67,     2.80,     3.19,     2.80
        4.0,       3.75,     3.54,     3.69,     4.07,     3.69
        5.0,       4.61,     4.42,     4.56,     4.91,     4.56
        6.0,       5.46,     5.29,     5.42,     5.73,     5.42
        7.0,       6.31,     6.15,     6.27,     6.53,     6.27
        8.0,       7.15,     7.02,     7.12,     7.32,     7.12
        9.0,       7.98,     7.88,     7.97,     8.08,     7.97
       10.0,       8.80,     8.74,     8.81,     8.84,     8.81
       11.0,       9.62,     9.60,     9.64,     9.58,     9.64
       12.0,      10.43,    10.46,    10.47,    10.31,    10.47
       13.0,      11.24,    11.32,    11.30,    11.03,    11.30
       14.0,      12.05,    12.18,    12.13,    11.75,    12.13
       15.0,      12.85,    13.04,    12.95,    12.46,    12.95
       16.0,      13.65,    13.89,    13.77,    13.16,    13.77
       17.0,      14.44,    14.75,    14.59,    13.85,    14.59
       18.0,      15.24,    15.60,    15.40,    14.53,    15.40
       19.0,      16.03,    16.46,    16.21,    15.22,    16.21
       20.0,      16.81,    17.31,    17.02,    15.89,    17.02
       21.0,      17.60,    18.16,    17.83,    16.56,    17.83
       22.0,      18.38,    19.02,    18.64,    17.23,    18.64
       23.0,      19.16,    19.87,    19.44,    17.89,    19.44
       24.0,      19.94,    20.72,    20.25,    18.54,    20.25
       25.0,      20.71,    21.57,    21.05,    19.20,    21.05
       26.0,      21.49,    22.42,    21.85,    19.84,    21.85
       27.0,      22.26,    23.27,    22.65,    20.49,    22.65
       28.0,      23.03,    24.12,    23.44,    21.13,    23.44
       29.0,      23.80,    24.97,    24.24,    21.77,    24.24
       30.0,      24.57,    25.81,    25.03,    22.40,    25.03
       31.0,      25.33,    26.66,    25.82,    23.03,    25.82
       32.0,      26.10,    27.51,    26.61,    23.66,    26.61
       33.0,      26.86,    28.36,    27.40,    24.28,    27.40
       34.0,      27.62,    29.20,    28.19,    24.90,    28.19
       35.0,      28.38,    30.05,    28.98,    25.52,    28.98
       36.0,      29.14,    30.89,    29.77,    26.14,    29.77
       37.0,      29.90,    31.74,    30.55,    26.75,    30.55
       38.0,      30.66,    32.59,    31.34,    27.36,    31.34
       39.0,      31.41,    33.43,    32.12,    27.97,    32.12
       40.0,      32.17,    34.27,    32.90,    28.58,    32.91
       41.0,      32.93,    35.12,    33.69,    29.18,    33.71
       42.0,      33.71,    35.98,    34.50,    29.80,    34.55
       43.0,      34.54,    36.88,    35.36,    30.46,    35.46
       44.0,      35.45,    37.85,    36.31,    31.17,    36.46
       45.0,      36.44,    38.91,    37.34,    31.95,    37.56
       46.0,      37.52,    40.07,    38.47,    32.79,    38.75
       47.0,      38.65,    41.29,    39.66,    33.68,    39.97
       48.0,      39.79,    42.55,    40.86,    34.58,    41.18
       49.0,      40.88,    43.77,    42.00,    35.44,    42.31
       50.0,      41.86,    44.89,    43.03,    36.22,    43.29
       51.0,      42.68,    45.85,    43.89,    36.87,    44.09
       52.0,      43.29,    46.60,    44.53,    37.37,    44.67
       53.0,      43.68,    47.11,    44.93,    37.68,    45.01
       54.0,      43.86,    47.39,    45.10,    37.83,    45.13
       55.0,      43.85,    47.44,    45.07,    37.81,    45.07
       56.0,      43.68,    47.30,    44.87,    37.67,    44.87
       57.0,      43.40,    47.03,    44.55,    37.43,    44.57
       58.0,      43.06,    46.69,    44.18,    37.15,    44.23
       59.0,      42.71,    46.31,    43.79,    36.85,    43.87
       60.0,      42.36,    45.94,    43.41,    36.55,    43.53
       61.0,      42.02,    45.58,    43.05,    36.27,    43.20
       62.0,      41.71,    45.26,    42.72,    36.00,    42.88
       63.0,      41.42,    44.95,    42.40,    35.74,    42.57
       64.0,      41.13,    44.66,    42.10,    35.49,    42.26
       65.0,      40.84,    44.37,    41.80,    35.24,    41.96
       66.0,      40.56,    44.09,    41.51,    34.99,    41.65
       67.0,      40.29,    43.81,    41.23,    34.75,    41.36
       68.0,      40.02,    43.54,    40.96,    34.51,    41.06
       69.0,      39.76,    43.28,    40.69,    34.28,    40.77
       70.0,      39.50,    43.02,    40.43,    34.05,    40.49
       71.0,      39.24,    42.76,    40.18,    33.82,    40.20
       72.0,      38.99,    42.51,    39.94,    33.60,    39.92
       73.0,      38.75,    42.27,    39.70,    33.38,    39.64
       74.0,      38.51,    42.03,    39.46,    33.16,    39.37
       75.0,      38.27,    41.80,    39.23,    32.95,    39.10
       76.0,      38.03,    41.57,    39.01,    32.73,    38.83
       77.0,      37.81,    41.34,    38.79,    32.53,    38.56
       78.0,      37.58,    41.12,    38.58,    32.32,    38.30
       79.0,      37.36,    40.90,    38.38,    32.12,    38.04
       80.0,      37.14,    40.69,    38.17,    31.92,    37.78
       81.0,      36.93,    40.48,    37.98,    31.72,    37.53
       82.0,      36.71,    40.27,    37.78,    31.53,    37.28
       83.0,      36.51,    40.07,    37.59,    31.34,    37.03
       84.0,      36.30,    39.87,    37.41,    31.15,    36.79
       85.0,      36.10,    39.67,    37.23,    30.96,    36.54
       86.0,      35.90,    39.48,    37.05,    30.78,    36.30
       87.0,      35.71,    39.28,    36.87,    30.60,    36.07
       88.0,      35.51,    39.10,    36.70,    30.42,    35.83
       89.0,      35.32,    38.91,    36.54,    30.24,    35.60
       90.0,      35.14,    38.73,    36.37,    30.07,    35.37
       91.0,      34.95,    38.55,    36.21,    29.90,    35.15
       92.0,      34.77,    38.37,    36.06,    29.73,    34.92
       93.0,      34.59,    38.20,    35.90,    29.56,    34.70
       94.0,      34.41,    38.02,    35.75,    29.40,    34.48
       95.0,      34.24,    37.85,    35.60,    29.24,    34.26
       96.0,      34.07,    37.68,    35.45,    29.08,    34.05
       97.0,      33.90,    37.52,    35.31,    28.92,    33.84
       98.0,      33.73,    37.35,    35.17,    28.77,    33.63
       99.0,      33.56,    37.19,    35.03,    28.61,    33.42
      100.0,      33.40,    37.03,    34.89,    28.46,    33.22
      101.0,      33.24,    36.87,    34.76,    28.31,    33.01
      102.0,      33.08,    36.72,    34.62,    28.17,    32.81
      103.0,      32.92,    36.56,    34.49,    28.02,    32.61
      104.0,      32.77,    36.41,    34.36,    27.88,    32.42
      105.0,      32.61,    36.26,    34.24,    27.73,    32.22
      106.0,      32.46,    36.11,    34.11,    27.60,    32.03
      107.0,      32.31,    35.96,    33.99,    27.46,    31.84
      108.0,      32.16,    35.81,    33.87,    27.32,    31.66
      109.0,      32.02,    35.67,    33.75,    27.19,    31.47
      110.0,      31.87,    35.52,    33.63,    27.05,    31.29
      111.0,      31.73,    35.38,    33.51,    26.92,    31.10
      112.0,      31.59,    35.24,    33.40,    26.79,    30.93
      113.0,      31.45,    35.10,    33.28,    26.67,    30.75
      114.0,      31.31,    34.96,    33.17,    26.54,    30.57
      115.0,      31.17,    34.83,    33.06,    26.42,    30.40
      116.0,      31.04,    34.69,    32.95,    26.29,    30.23
      117.0,      30.90,    34.55,    32.84,    26.17,    30.06
      118.0,      30.77,    34.42,    32.73,    26.05,    29.89
      119.0,      30.64,    34.29,    32.62,    25.93,    29.72
      120.0,      30.51,    34.16,    32.52,    25.82,    29.56
      121.0,      30.38,    34.03,    32.41,    25.70,    29.40
      122.0,      30.26,    33.90,    32.31,    25.59,    29.23
      123.0,      30.13,    33.77,    32.21,    25.47,    29.08
      124.0,      30.01,    33.64,    32.11,    25.36,    28.92
      125.0,      29.88,    33.51,    32.01,    25.25,    28.76
      126.0,      29.76,    33.39,    31.91,    25.14,    28.61
      127.0,      29.64,    33.26,    31.81,    25.03,    28.46
      128.0,      29.52,    33.14,    31.71,    24.93,    28.31
      129.0,      29.40,    33.01,    31.61,    24.82,    28.16
      130.0,      29.28,    32.89,    31.52,    24.72,    28.01
      131.0,      29.17,    32.77,    31.42,    24.62,    27.86
      132.0,      29.05,    32.65,    31.33,    24.51,    27.72
      133.0,      28.94,    32.53,    31.24,    24.41,    27.58
      134.0,      28.83,    32.41,    31.14,    24.31,    27.43
      135.0,      28.71,    32.29,    31.05,    24.22,    27.29
      136.0,      28.60,    32.17,    30.96,    24.12,    27.16
      137.0,      28.49,    32.06,    30.87,    24.02,    27.02
      138.0,      28.38,    31.94,    30.78,    23.93,    26.88
      139.0,      28.27,    31.83,    30.69,    23.84,    26.75
      140.0,      28.17,    31.71,    30.60,    23.74,    26.62
      141.0,      28.06,    31.60,    30.51,    23.65,    26.49
      142.0,      27.96,    31.48,    30.42,    23.56,    26.36
      143.0,      27.85,    31.37,    30.34,    23.47,    26.23
      144.0,      27.75,    31.26,    30.25,    23.38,    26.10
      145.0,      27.64,    31.14,    30.16,    23.29,    25.98
      146.0,      27.54,    31.03,    30.08,    23.21,    25.85
      147.0,      27.44,    30.92,    29.99,    23.12,    25.73
      148.0,      27.34,    30.81,    29.91,    23.04,    25.61
      149.0,      27.24,    30.70,    29.82,    22.95,    25.49
      150.0,      27.14,    30.59,    29.74,    22.87,    25.37
      151.0,      27.04,    30.49,    29.66,    22.79,    25.25
      152.0,      26.95,    30.38,    29.57,    22.70,    25.13
      153.0,      26.85,    30.27,    29.49,    22.62,    25.02
      154.0,      26.75,    30.16,    29.41,    22.54,    24.90
      155.0,      26.66,    30.06,    29.33,    22.46,    24.79
      156.0,      26.57,    29.95,    29.25,    22.39,    24.68
      157.0,      26.47,    29.85,    29.17,    22.31,    24.57
      158.0,      26.38,    29.74,    29.09,    22.23,    24.46
      159.0,      26.29,    29.64,    29.01,    22.15,    24.35
      160.0,      26.20,    29.53,    28.93,    22.08,    24.24
      161.0,      26.10,    29.43,    28.85,    22.00,    24.13
      162.0,      26.01,    29.33,    28.77,    21.93,    24.03
      163.0,      25.92,    29.23,    28.69,    21.86,    23.93
      164.0,      25.84,    29.12,    28.61,    21.78,    23.82
      165.0,      25.75,    29.02,    28.54,    21.71,    23.72
      166.0,      25.66,    28.92,    28.46,    21.64,    23.62
      167.0,      25.57,    28.82,    28.38,    21.57,    23.52
      168.0,      25.49,    28.72,    28.30,    21.50,    23.42
      169.0,      25.40,    28.62,    28.23,    21.43,    23.32
      170.0,      25.32,    28.52,    28.15,    21.36,    23.23
      171.0,      25.23,    28.42,    28.08,    21.30,    23.13
      172.0,      25.15,    28.32,    28.00,    21.23,    23.03
      173.0,      25.06,    28.23,    27.93,    21.16,    22.94
      174.0,      24.98,    28.13,    27.85,    21.09,    22.85
      175.0,      24.90,    28.03,    27.78,    21.03,    22.76
      176.0,      24.82,    27.93,    27.70,    20.96,    22.66
      177.0,      24.73,    27.84,    27.63,    20.90,    22.57
      178.0,      24.65,    27.74,    27.55,    20.84,    22.49
      179.0,      24.57,    27.65,    27.48,    20.77,    22.40
      180.0,      24.49,    27.55,    27.41,    20.71,    22.31
      181.0,      24.41,    27.45,    27.33,    20.65,    22.22
      182.0,      24.34,    27.36,    27.26,    20.59,    22.14
      183.0,      24.26,    27.27,    27.19,    20.52,    22.05
      184.0,      24.18,    27.17,    27.12,    20.46,    21.97
      185.0,      24.10,    27.08,    27.05,    20.40,    21.88
      186.0,      24.03,    26.99,    26.97,    20.34,    21.80
      187.0,      23.95,    26.89,    26.90,    20.28,    21.72
      188.0,      23.87,    26.80,    26.83,    20.22,    21.64
      189.0,      23.80,    26.71,    26.76,    20.17,    21.56
      190.0,      23.72,    26.62,    26.69,    20.11,    21.48
      191.0,      23.65,    26.53,    26.62,    20.05,    21.40
      192.0,      23.57,    26.43,    26.55,    19.99,    21.32
      193.0,      23.50,    26.34,    26.48,    19.94,    21.25
      194.0,      23.43,    26.25,    26.41,    19.88,    21.17
      195.0,      23.36,    26.16,    26.34,    19.83,    21.09
      196.0,      23.28,    26.07,    26.27,    19.77,    21.02
      197.0,      23.21,    25.98,    26.20,    19.72,    20.95
      198.0,      23.14,    25.90,    26.13,    19.66,    20.87
      199.0,      23.07,    25.81,    26.06,    19.61,    20.80
      200.0,      23.00,    25.72,    25.99,    19.55,    20.73
      201.0,      22.93,    25.63,    25.93,    19.50,    20.66
      202.0,      22.86,    25.54,    25.86,    19.45,    20.59
      203.0,      22.79,    25.45,    25.79,    19.39,    20.52
      204.0,      22.72,    25.37,    25.72,    19.34,    20.45
      205.0,      22.65,    25.28,    25.66,    19.29,    20.38
      206.0,      22.58,    25.19,    25.59,    19.24,    20.31
      207.0,      22.51,    25.11,    25.52,    19.19,    20.24
      208.0,      22.45,    25.02,    25.45,    19.14,    20.18
      209.0,      22.38,    24.94,    25.39,    19.09,    20.11
      210.0,      22.31,    24.85,    25.32,    19.04,    20.04
      211.0,      22.25,    24.77,    25.26,    18.99,    19.98
      212.0,      22.18,    24.68,    25.19,    18.94,    19.91
      213.0,      22.12,    24.60,    25.12,    18.89,    19.85
      214.0,      22.05,    24.51,    25.06,    18.84,    19.79
      215.0,      21.98,    24.43,    24.99,    18.79,    19.73
      216.0,      21.92,    24.35,    24.93,    18.74,    19.66
      217.0,      21.86,    24.26,    24.86,    18.69,    19.60
      218.0,      21.79,    24.18,    24.80,    18.65,    19.54
      219.0,      21.73,    24.10,    24.73,    18.60,    19.48
      220.0,      21.66,    24.02,    24.67,    18.55,    19.42
      221.0,      21.60,    23.93,    24.60,    18.51,    19.36
      222.0,      21.54,    23.85,    24.54,    18.46,    19.30
      223.0,      21.48,    23.77,    24.47,    18.41,    19.25
      224.0,      21.41,    23.69,    24.41,    18.37,    19.19
      225.0,      21.35,    23.61,    24.35,    18.32,    19.13
      226.0,      21.29,    23.53,    24.28,    18.28,    19.07
      227.0,      21.23,    23.45,    24.22,    18.23,    19.02
      228.0,      21.17,    23.37,    24.16,    18.19,    18.96
      229.0,      21.11,    23.29,    24.09,    18.14,    18.91
      230.0,      21.05,    23.21,    24.03,    18.10,    18.85
      231.0,      20.99,    23.13,    23.97,    18.05,    18.80
      232.0,      20.93,    23.05,    23.91,    18.01,    18.75
      233.0,      20.87,    22.97,    23.84,    17.97,    18.69
      234.0,      20.81,    22.90,    23.78,    17.92,    18.64
      235.0,      20.75,    22.82,    23.72,    17.88,    18.59
      236.0,      20.69,    22.74,    23.66,    17.84,    18.54
      237.0,      20.64,    22.66,    23.60,    17.80,    18.49
      238.0,      20.58,    22.59,    23.54,    17.75,    18.43
      239.0,      20.52,    22.51,    23.47,    17.71,    18.38
      240.0,      20.46,    22.43,    23.41,    17.67,    18.33
      241.0,      20.40,    22.36,    23.35,    17.63,    18.28
      242.0,      20.35,    22.28,    23.29,    17.59,    18.24
      243.0,      20.29,    22.20,    23.23,    17.54,    18.19
      244.0,      20.24,    22.13,    23.17,    17.50,    18.14
      245.0,      20.18,    22.05,    23.11,    17.46,    18.09
      246.0,      20.12,    21.98,    23.05,    17.42,    18.04
      247.0,      20.07,    21.90,    22.99,    17.38,    18.00
      248.0,      20.01,    21.83,    22.93,    17.34,    17.95
      249.0,      19.96,    21.75,    22.87,    17.30,    17.90
      250.0,      19.90,    21.68,    22.81,    17.26,    17.86
      251.0,      19.85,    21.61,    22.75,    17.22,    17.81
      252.0,      19.79,    21.53,    22.69,    17.18,    17.77
      253.0,      19.74,    21.46,    22.63,    17.14,    17.72
      254.0,      19.69,    21.39,    22.57,    17.10,    17.68
      255.0,      19.63,    21.31,    22.52,    17.07,    17.63
      256.0,      19.58,    21.24,    22.46,    17.03,    17.59
      257.0,      19.53,    21.17,    22.40,    16.99,    17.55
      258.0,      19.47,    21.10,    22.34,    16.95,    17.50
      259.0,      19.42,    21.03,    22.28,    16.91,    17.46
      260.0,      19.37,    20.95,    22.23,    16.87,    17.42
      261.0,      19.32,    20.88,    22.17,    16.84,    17.38
      262.0,      19.26,    20.81,    22.11,    16.80,    17.34
      263.0,      19.21,    20.74,    22.05,    16.76,    17.29
      264.0,      19.16,    20.67,    22.00,    16.72,    17.25
      265.0,      19.11,    20.60,    21.94,    16.69,    17.21
      266.0,      19.06,    20.53,    21.88,    16.65,    17.17
      267.0,      19.01,    20.46,    21.82,    16.61,    17.13
      268.0,      18.96,    20.39,    21.77,    16.58,    17.09
      269.0,      18.91,    20.32,    21.71,    16.54,    17.05
      270.0,      18.86,    20.25,    21.65,    16.50,    17.01
      271.0,      18.81,    20.18,    21.60,    16.47,    16.98
      272.0,      18.76,    20.11,    21.54,    16.43,    16.94
      273.0,      18.71,    20.05,    21.49,    16.39,    16.90
      274.0,      18.66,    19.98,    21.43,    16.36,    16.86
      275.0,      18.61,    19.91,    21.37,    16.32,    16.82
      276.0,      18.56,    19.84,    21.32,    16.29,    16.79
      277.0,      18.51,    19.77,    21.26,    16.25,    16.75
      278.0,      18.46,    19.71,    21.21,    16.22,    16.71
      279.0,      18.41,    19.64,    21.15,    16.18,    16.68
      280.0,      18.36,    19.57,    21.10,    16.15,    16.64
      281.0,      18.32,    19.51,    21.04,    16.11,    16.60
      282.0,      18.27,    19.44,    20.99,    16.08,    16.57
      283.0,      18.22,    19.37,    20.93,    16.04,    16.53
      284.0,      18.17,    19.31,    20.88,    16.01,    16.50
      285.0,      18.13,    19.24,    20.83,    15.97,    16.46
      286.0,      18.08,    19.18,    20.77,    15.94,    16.43
      287.0,      18.03,    19.11,    20.72,    15.91,    16.40
      288.0,      17.99,    19.05,    20.66,    15.87,    16.36
      289.0,      17.94,    18.98,    20.61,    15.84,    16.33
      290.0,      17.89,    18.92,    20.56,    15.80,    16.29
      291.0,      17.85,    18.85,    20.50,    15.77,    16.26
      292.0,      17.80,    18.79,    20.45,    15.74,    16.23
      293.0,      17.76,    18.73,    20.40,    15.70,    16.19
      294.0,      17.71,    18.66,    20.34,    15.67,    16.16
      295.0,      17.66,    18.60,    20.29,    15.64,    16.13
      296.0,      17.62,    18.54,    20.24,    15.60,    16.10
      297.0,      17.57,    18.47,    20.19,    15.57,    16.07
      298.0,      17.53,    18.41,    20.13,    15.54,    16.03
      299.0,      17.48,    18.35,    20.08,    15.51,    16.00
      300.0,      17.44,    18.28,    20.03,    15.47,    15.97
      301.0,      17.40,    18.22,    19.98,    15.44,    15.94
      302.0,      17.35,    18.16,    19.93,    15.41,    15.91
      303.0,      17.31,    18.10,    19.87,    15.38,    15.88
      304.0,      17.26,    18.04,    19.82,    15.34,    15.85
      305.0,      17.22,    17.98,    19.77,    15.31,    15.82
      306.0,      17.18,    17.91,    19.72,    15.28,    15.79
      307.0,      17.13,    17.85,    19.67,    15.25,    15.76
      308.0,      17.09,    17.79,    19.62,    15.22,    15.73
      309.0,      17.05,    17.73,    19.57,    15.19,    15.70
      310.0,      17.00,    17.67,    19.52,    15.15,    15.67
