Radius (km), Mean (m/s), NE (m/s), SE (m/s), SW (m/s), NW (m/s)
        0.0,       0.00,     0.00,     0.00,     0.00,     0.00
        1.0,       1.30,     1.18,     1.23,     1.53,     1.26
        2.0,       2.32,     2.17,     2.24,     2.58,     2.27
        3.0,       3.25,     3.10,     3.18,     3.51,     3.21
        4.0,       4.14,     4.00,     4.07,     4.37,     4.11
        5.0,       4.99,     4.87,     4.93,     5.18,     4.97
        6.0,       5.81,     5.72,     5.77,     5.94,     5.80
        7.0,       6.61,     6.55,     6.59,     6.68,     6.61
        8.0,       7.39,     7.37,     7.40,     7.39,     7.41
        9.0,       8.16,     8.18,     8.19,     8.08,     8.19
       10.0,       8.91,     8.97,     8.97,     8.75,     8.96
       11.0,       9.66,     9.76,     9.74,     9.41,     9.72
       12.0,      10.39,    10.54,    10.50,    10.05,    10.47
       13.0,      11.11,    11.31,    11.25,    10.68,    11.21
       14.0,      11.82,    12.08,    11.99,    11.29,    11.94
       15.0,      12.53,    12.84,    12.72,    11.90,    12.66
       16.0,      13.23,    13.59,    13.45,    12.50,    13.38
       17.0,      13.92,    14.33,    14.17,    13.08,    14.09
       18.0,      14.60,    15.08,    14.89,    13.66,    14.79
       19.0,      15.28,    15.81,    15.60,    14.23,    15.49
       20.0,      15.96,    16.55,    16.31,    14.80,    16.18
       21.0,      16.63,    17.27,    17.01,    15.35,    16.87
       22.0,      17.29,    18.00,    17.70,    15.91,    17.55
       23.0,      17.95,    18.72,    18.39,    16.45,    18.23
       24.0,      18.60,    19.44,    19.08,    16.99,    18.90
       25.0,      19.25,    20.15,    19.77,    17.52,    19.57
       26.0,      19.90,    20.86,    20.45,    18.05,    20.23
       27.0,      20.54,    21.57,    21.12,    18.58,    20.89
       28.0,      21.18,    22.27,    21.80,    19.09,    21.55
       29.0,      21.81,    22.97,    22.46,    19.61,    22.20
       30.0,      22.44,    23.67,    23.13,    20.12,    22.86
       31.0,      23.07,    24.36,    23.79,    20.63,    23.50
       32.0,      23.70,    25.06,    24.45,    21.13,    24.15
       33.0,      24.32,    25.75,    25.11,    21.63,    24.79
       34.0,      24.94,    26.43,    25.77,    22.12,    25.43
       35.0,      25.55,    27.12,    26.42,    22.61,    26.06
       36.0,      26.17,    27.80,    27.07,    23.10,    26.70
       37.0,      26.78,    28.48,    27.72,    23.58,    27.33
       38.0,      27.39,    29.16,    28.36,    24.07,    27.96
       39.0,      27.99,    29.84,    29.00,    24.54,    28.58
       40.0,      28.60,    30.52,    29.65,    25.02,    29.20
       41.0,      29.21,    31.22,    30.30,    25.50,    29.83
       42.0,      29.86,    31.97,    31.00,    25.98,    30.48
       43.0,      30.57,    32.83,    31.79,    26.48,    31.19
       44.0,      31.38,    33.83,    32.68,    27.02,    31.98
       45.0,      32.28,    34.95,    33.69,    27.60,    32.89
       46.0,      33.27,    36.18,    34.80,    28.22,    33.89
       47.0,      34.30,    37.45,    35.95,    28.86,    34.96
       48.0,      35.33,    38.69,    37.08,    29.50,    36.04
       49.0,      36.27,    39.81,    38.11,    30.12,    37.06
       50.0,      37.08,    40.73,    38.97,    30.68,    37.94
       51.0,      37.70,    41.38,    39.61,    31.17,    38.63
       52.0,      38.09,    41.74,    39.99,    31.55,    39.07
       53.0,      38.24,    41.79,    40.10,    31.83,    39.25
       54.0,      38.18,    41.56,    39.96,    32.01,    39.18
       55.0,      37.92,    41.11,    39.62,    32.08,    38.88
       56.0,      37.53,    40.50,    39.12,    32.09,    38.41
       57.0,      37.04,    39.78,    38.53,    32.04,    37.83
       58.0,      36.52,    39.03,    37.91,    31.95,    37.18
       59.0,      35.99,    38.29,    37.28,    31.86,    36.53
       60.0,      35.48,    37.59,    36.69,    31.77,    35.89
       61.0,      35.01,    36.92,    36.13,    31.68,    35.30
       62.0,      34.56,    36.29,    35.60,    31.60,    34.74
       63.0,      34.13,    35.69,    35.09,    31.52,    34.20
       64.0,      33.71,    35.11,    34.61,    31.45,    33.69
       65.0,      33.32,    34.55,    34.14,    31.37,    33.20
       66.0,      32.93,    34.01,    33.69,    31.30,    32.73
       67.0,      32.56,    33.49,    33.25,    31.22,    32.27
       68.0,      32.20,    33.00,    32.83,    31.15,    31.82
       69.0,      31.85,    32.52,    32.43,    31.07,    31.39
       70.0,      31.52,    32.06,    32.04,    31.00,    30.98
       71.0,      31.20,    31.61,    31.67,    30.92,    30.58
       72.0,      30.88,    31.18,    31.30,    30.85,    30.20
       73.0,      30.58,    30.77,    30.96,    30.78,    29.82
       74.0,      30.29,    30.38,    30.62,    30.70,    29.47
       75.0,      30.01,    30.00,    30.30,    30.63,    29.12
       76.0,      29.74,    29.63,    29.98,    30.55,    28.78
       77.0,      29.47,    29.27,    29.68,    30.48,    28.46
       78.0,      29.22,    28.93,    29.39,    30.41,    28.15
       79.0,      28.97,    28.60,    29.11,    30.34,    27.84
       80.0,      28.74,    28.29,    28.84,    30.26,    27.55
       81.0,      28.51,    27.98,    28.58,    30.19,    27.27
       82.0,      28.28,    27.69,    28.33,    30.12,    26.99
       83.0,      28.07,    27.41,    28.09,    30.05,    26.73
       84.0,      27.86,    27.13,    27.85,    29.97,    26.47
       85.0,      27.66,    26.87,    27.62,    29.90,    26.23
       86.0,      27.46,    26.62,    27.41,    29.83,    25.99
       87.0,      27.27,    26.37,    27.19,    29.76,    25.75
       88.0,      27.09,    26.13,    26.99,    29.69,    25.53
       89.0,      26.91,    25.91,    26.79,    29.62,    25.31
       90.0,      26.73,    25.69,    26.60,    29.55,    25.10
       91.0,      26.57,    25.48,    26.42,    29.48,    24.90
       92.0,      26.40,    25.27,    26.24,    29.41,    24.70
       93.0,      26.25,    25.07,    26.07,    29.33,    24.51
       94.0,      26.09,    24.88,    25.90,    29.26,    24.33
       95.0,      25.95,    24.70,    25.74,    29.19,    24.15
       96.0,      25.80,    24.52,    25.58,    29.13,    23.97
       97.0,      25.66,    24.35,    25.43,    29.06,    23.80
       98.0,      25.53,    24.19,    25.29,    28.99,    23.64
       99.0,      25.39,    24.03,    25.15,    28.92,    23.48
      100.0,      25.26,    23.87,    25.01,    28.85,    23.33
      101.0,      25.14,    23.72,    24.87,    28.78,    23.18
      102.0,      25.02,    23.58,    24.75,    28.71,    23.04
      103.0,      24.90,    23.44,    24.62,    28.64,    22.89
      104.0,      24.78,    23.30,    24.50,    28.57,    22.76
      105.0,      24.67,    23.17,    24.38,    28.51,    22.63
      106.0,      24.56,    23.05,    24.27,    28.44,    22.50
      107.0,      24.46,    22.93,    24.16,    28.37,    22.37
      108.0,      24.35,    22.81,    24.05,    28.30,    22.25
      109.0,      24.25,    22.69,    23.95,    28.23,    22.13
      110.0,      24.15,    22.58,    23.85,    28.17,    22.02
      111.0,      24.06,    22.47,    23.75,    28.10,    21.91
      112.0,      23.96,    22.37,    23.65,    28.03,    21.80
      113.0,      23.87,    22.27,    23.56,    27.97,    21.69
      114.0,      23.78,    22.17,    23.47,    27.90,    21.59
      115.0,      23.70,    22.08,    23.38,    27.83,    21.49
      116.0,      23.61,    21.99,    23.30,    27.77,    21.39
      117.0,      23.53,    21.90,    23.21,    27.70,    21.29
      118.0,      23.44,    21.81,    23.13,    27.63,    21.20
      119.0,      23.37,    21.73,    23.05,    27.57,    21.11
      120.0,      23.29,    21.65,    22.98,    27.50,    21.02
      121.0,      23.21,    21.57,    22.90,    27.44,    20.94
      122.0,      23.14,    21.49,    22.83,    27.37,    20.85
      123.0,      23.06,    21.42,    22.76,    27.31,    20.77
      124.0,      22.99,    21.34,    22.69,    27.24,    20.69
      125.0,      22.92,    21.27,    22.62,    27.18,    20.61
      126.0,      22.85,    21.20,    22.55,    27.11,    20.54
      127.0,      22.78,    21.14,    22.49,    27.05,    20.46
      128.0,      22.72,    21.07,    22.42,    26.98,    20.39
      129.0,      22.65,    21.01,    22.36,    26.92,    20.32
      130.0,      22.59,    20.95,    22.30,    26.86,    20.25
      131.0,      22.53,    20.89,    22.24,    26.79,    20.18
      132.0,      22.46,    20.83,    22.19,    26.73,    20.11
      133.0,      22.40,    20.77,    22.13,    26.67,    20.04
      134.0,      22.34,    20.72,    22.07,    26.60,    19.98
      135.0,      22.28,    20.66,    22.02,    26.54,    19.92
      136.0,      22.23,    20.61,    21.97,    26.48,    19.85
      137.0,      22.17,    20.56,    21.91,    26.41,    19.79
      138.0,      22.11,    20.51,    21.86,    26.35,    19.73
      139.0,      22.06,    20.46,    21.81,    26.29,    19.68
      140.0,      22.00,    20.41,    21.76,    26.23,    19.62
      141.0,      21.95,    20.36,    21.71,    26.16,    19.56
      142.0,      21.90,    20.32,    21.67,    26.10,    19.51
      143.0,      21.85,    20.27,    21.62,    26.04,    19.45
      144.0,      21.79,    20.23,    21.57,    25.98,    19.40
      145.0,      21.74,    20.18,    21.53,    25.92,    19.35
      146.0,      21.69,    20.14,    21.48,    25.85,    19.30
      147.0,      21.64,    20.10,    21.44,    25.79,    19.24
      148.0,      21.60,    20.06,    21.40,    25.73,    19.19
      149.0,      21.55,    20.02,    21.35,    25.67,    19.15
      150.0,      21.50,    19.98,    21.31,    25.61,    19.10
      151.0,      21.45,    19.94,    21.27,    25.55,    19.05
      152.0,      21.41,    19.90,    21.23,    25.49,    19.00
      153.0,      21.36,    19.87,    21.19,    25.43,    18.96
      154.0,      21.31,    19.83,    21.15,    25.37,    18.91
      155.0,      21.27,    19.79,    21.11,    25.31,    18.86
      156.0,      21.22,    19.76,    21.07,    25.25,    18.82
      157.0,      21.18,    19.72,    21.03,    25.19,    18.78
      158.0,      21.14,    19.69,    21.00,    25.13,    18.73
      159.0,      21.09,    19.66,    20.96,    25.07,    18.69
      160.0,      21.05,    19.62,    20.92,    25.01,    18.65
      161.0,      21.01,    19.59,    20.89,    24.95,    18.61
      162.0,      20.97,    19.56,    20.85,    24.89,    18.56
      163.0,      20.92,    19.53,    20.82,    24.83,    18.52
      164.0,      20.88,    19.50,    20.78,    24.77,    18.48
      165.0,      20.84,    19.47,    20.75,    24.72,    18.44
      166.0,      20.80,    19.43,    20.71,    24.66,    18.40
      167.0,      20.76,    19.40,    20.68,    24.60,    18.36
      168.0,      20.72,    19.38,    20.64,    24.54,    18.33
      169.0,      20.68,    19.35,    20.61,    24.48,    18.29
      170.0,      20.64,    19.32,    20.58,    24.43,    18.25
      171.0,      20.60,    19.29,    20.54,    24.37,    18.21
      172.0,      20.56,    19.26,    20.51,    24.31,    18.17
      173.0,      20.53,    19.23,    20.48,    24.25,    18.14
      174.0,      20.49,    19.20,    20.45,    24.20,    18.10
      175.0,      20.45,    19.18,    20.42,    24.14,    18.06
      176.0,      20.41,    19.15,    20.38,    24.08,    18.03
      177.0,      20.37,    19.12,    20.35,    24.02,    17.99
      178.0,      20.34,    19.10,    20.32,    23.97,    17.96
      179.0,      20.30,    19.07,    20.29,    23.91,    17.92
      180.0,      20.26,    19.04,    20.26,    23.85,    17.89
      181.0,      20.22,    19.02,    20.23,    23.80,    17.85
      182.0,      20.19,    18.99,    20.20,    23.74,    17.82
      183.0,      20.15,    18.97,    20.17,    23.69,    17.78
      184.0,      20.12,    18.94,    20.14,    23.63,    17.75
      185.0,      20.08,    18.92,    20.11,    23.57,    17.72
      186.0,      20.04,    18.89,    20.08,    23.52,    17.68
      187.0,      20.01,    18.87,    20.05,    23.46,    17.65
      188.0,      19.97,    18.84,    20.02,    23.41,    17.62
      189.0,      19.94,    18.82,    19.99,    23.35,    17.58
      190.0,      19.90,    18.80,    19.96,    23.30,    17.55
      191.0,      19.87,    18.77,    19.94,    23.24,    17.52
      192.0,      19.83,    18.75,    19.91,    23.19,    17.49
      193.0,      19.80,    18.72,    19.88,    23.13,    17.45
      194.0,      19.76,    18.70,    19.85,    23.08,    17.42
      195.0,      19.73,    18.68,    19.82,    23.02,    17.39
      196.0,      19.69,    18.65,    19.79,    22.97,    17.36
      197.0,      19.66,    18.63,    19.77,    22.92,    17.33
      198.0,      19.63,    18.61,    19.74,    22.86,    17.30
      199.0,      19.59,    18.59,    19.71,    22.81,    17.27
      200.0,      19.56,    18.56,    19.68,    22.76,    17.24
      201.0,      19.53,    18.54,    19.66,    22.70,    17.20
      202.0,      19.49,    18.52,    19.63,    22.65,    17.17
      203.0,      19.46,    18.50,    19.60,    22.59,    17.14
      204.0,      19.43,    18.47,    19.57,    22.54,    17.11
      205.0,      19.39,    18.45,    19.55,    22.49,    17.08
      206.0,      19.36,    18.43,    19.52,    22.44,    17.05
      207.0,      19.33,    18.41,    19.49,    22.38,    17.02
      208.0,      19.29,    18.39,    19.47,    22.33,    16.99
      209.0,      19.26,    18.36,    19.44,    22.28,    16.96
      210.0,      19.23,    18.34,    19.41,    22.23,    16.93
      211.0,      19.20,    18.32,    19.39,    22.17,    16.90
      212.0,      19.16,    18.30,    19.36,    22.12,    16.88
      213.0,      19.13,    18.28,    19.33,    22.07,    16.85
      214.0,      19.10,    18.26,    19.31,    22.02,    16.82
      215.0,      19.07,    18.24,    19.28,    21.97,    16.79
      216.0,      19.04,    18.21,    19.26,    21.91,    16.76
      217.0,      19.00,    18.19,    19.23,    21.86,    16.73
      218.0,      18.97,    18.17,    19.20,    21.81,    16.70
      219.0,      18.94,    18.15,    19.18,    21.76,    16.67
      220.0,      18.91,    18.13,    19.15,    21.71,    16.64
      221.0,      18.88,    18.11,    19.13,    21.66,    16.62
      222.0,      18.85,    18.09,    19.10,    21.61,    16.59
      223.0,      18.81,    18.07,    19.08,    21.56,    16.56
      224.0,      18.78,    18.05,    19.05,    21.51,    16.53
      225.0,      18.75,    18.03,    19.02,    21.46,    16.50
      226.0,      18.72,    18.01,    19.00,    21.41,    16.47
      227.0,      18.69,    17.99,    18.97,    21.35,    16.45
      228.0,      18.66,    17.97,    18.95,    21.30,    16.42
      229.0,      18.63,    17.95,    18.92,    21.25,    16.39
      230.0,      18.60,    17.92,    18.90,    21.20,    16.36
      231.0,      18.57,    17.90,    18.87,    21.16,    16.34
      232.0,      18.54,    17.88,    18.85,    21.11,    16.31
      233.0,      18.51,    17.86,    18.82,    21.06,    16.28
      234.0,      18.48,    17.84,    18.80,    21.01,    16.25
      235.0,      18.45,    17.82,    18.77,    20.96,    16.23
      236.0,      18.41,    17.80,    18.75,    20.91,    16.20
      237.0,      18.38,    17.78,    18.72,    20.86,    16.17
      238.0,      18.35,    17.76,    18.70,    20.81,    16.14
      239.0,      18.32,    17.74,    18.67,    20.76,    16.12
      240.0,      18.29,    17.72,    18.65,    20.71,    16.09
      241.0,      18.26,    17.70,    18.63,    20.66,    16.06
      242.0,      18.23,    17.68,    18.60,    20.62,    16.04
      243.0,      18.20,    17.67,    18.58,    20.57,    16.01
      244.0,      18.17,    17.65,    18.55,    20.52,    15.98
      245.0,      18.15,    17.63,    18.53,    20.47,    15.96
      246.0,      18.12,    17.61,    18.50,    20.42,    15.93
      247.0,      18.09,    17.59,    18.48,    20.38,    15.90
      248.0,      18.06,    17.57,    18.45,    20.33,    15.88
      249.0,      18.03,    17.55,    18.43,    20.28,    15.85
      250.0,      18.00,    17.53,    18.41,    20.23,    15.82
      251.0,      17.97,    17.51,    18.38,    20.19,    15.80
      252.0,      17.94,    17.49,    18.36,    20.14,    15.77
      253.0,      17.91,    17.47,    18.33,    20.09,    15.74
      254.0,      17.88,    17.45,    18.31,    20.04,    15.72
      255.0,      17.85,    17.43,    18.29,    20.00,    15.69
      256.0,      17.82,    17.41,    18.26,    19.95,    15.67
      257.0,      17.79,    17.39,    18.24,    19.90,    15.64
      258.0,      17.76,    17.37,    18.21,    19.86,    15.61
      259.0,      17.74,    17.35,    18.19,    19.81,    15.59
      260.0,      17.71,    17.33,    18.17,    19.77,    15.56
      261.0,      17.68,    17.32,    18.14,    19.72,    15.54
      262.0,      17.65,    17.30,    18.12,    19.67,    15.51
      263.0,      17.62,    17.28,    18.09,    19.63,    15.48
      264.0,      17.59,    17.26,    18.07,    19.58,    15.46
      265.0,      17.56,    17.24,    18.05,    19.54,    15.43
      266.0,      17.54,    17.22,    18.02,    19.49,    15.41
      267.0,      17.51,    17.20,    18.00,    19.44,    15.38
      268.0,      17.48,    17.18,    17.98,    19.40,    15.36
      269.0,      17.45,    17.16,    17.95,    19.35,    15.33
      270.0,      17.42,    17.14,    17.93,    19.31,    15.31
      271.0,      17.39,    17.13,    17.91,    19.26,    15.28
      272.0,      17.37,    17.11,    17.88,    19.22,    15.26
      273.0,      17.34,    17.09,    17.86,    19.17,    15.23
      274.0,      17.31,    17.07,    17.84,    19.13,    15.21
      275.0,      17.28,    17.05,    17.81,    19.08,    15.18
      276.0,      17.25,    17.03,    17.79,    19.04,    15.16
      277.0,      17.23,    17.01,    17.77,    19.00,    15.13
      278.0,      17.20,    16.99,    17.74,    18.95,    15.11
      279.0,      17.17,    16.98,    17.72,    18.91,    15.08
      280.0,      17.14,    16.96,    17.70,    18.86,    15.06
      281.0,      17.12,    16.94,    17.67,    18.82,    15.03
      282.0,      17.09,    16.92,    17.65,    18.77,    15.01
      283.0,      17.06,    16.90,    17.63,    18.73,    14.98
      284.0,      17.03,    16.88,    17.61,    18.69,    14.96
      285.0,      17.01,    16.86,    17.58,    18.64,    14.93
      286.0,      16.98,    16.85,    17.56,    18.60,    14.91
      287.0,      16.95,    16.83,    17.54,    18.56,    14.88
      288.0,      16.92,    16.81,    17.51,    18.51,    14.86
      289.0,      16.90,    16.79,    17.49,    18.47,    14.83
      290.0,      16.87,    16.77,    17.47,    18.43,    14.81
      291.0,      16.84,    16.75,    17.45,    18.38,    14.78
      292.0,      16.82,    16.74,    17.42,    18.34,    14.76
      293.0,      16.79,    16.72,    17.40,    18.30,    14.74
      294.0,      16.76,    16.70,    17.38,    18.26,    14.71
      295.0,      16.73,    16.68,    17.36,    18.21,    14.69
      296.0,      16.71,    16.66,    17.33,    18.17,    14.66
      297.0,      16.68,    16.64,    17.31,    18.13,    14.64
      298.0,      16.65,    16.63,    17.29,    18.09,    14.62
      299.0,      16.63,    16.61,    17.26,    18.05,    14.59
      300.0,      16.60,    16.59,    17.24,    18.00,    14.57
      301.0,      16.57,    16.57,    17.22,    17.96,    14.54
      302.0,      16.55,    16.55,    17.20,    17.92,    14.52
      303.0,      16.52,    16.54,    17.18,    17.88,    14.50
      304.0,      16.49,    16.52,    17.15,    17.84,    14.47
      305.0,      16.47,    16.50,    17.13,    17.79,    14.45
      306.0,      16.44,    16.48,    17.11,    17.75,    14.42
      307.0,      16.42,    16.46,    17.09,    17.71,    14.40
      308.0,      16.39,    16.44,    17.06,    17.67,    14.38
      309.0,      16.36,    16.43,    17.04,    17.63,    14.35
      310.0,      16.34,    16.41,    17.02,    17.59,    14.33
