Radius (km), Mean (m/s), NE (m/s), SE (m/s), SW (m/s), NW (m/s)
        0.0,       0.00,     0.00,     0.00,     0.00,     0.00
        1.0,       1.62,     1.27,     1.54,     2.00,     1.65
        2.0,       2.86,     2.51,     2.84,     3.16,     2.95
        3.0,       4.02,     3.74,     4.05,     4.13,     4.14
        4.0,       5.11,     4.96,     5.22,     4.99,     5.27
        5.0,       6.16,     6.17,     6.35,     5.79,     6.36
        6.0,       7.19,     7.38,     7.45,     6.53,     7.41
        7.0,       8.19,     8.58,     8.53,     7.23,     8.43
        8.0,       9.17,     9.78,     9.59,     7.89,     9.43
        9.0,      10.14,    10.97,    10.64,     8.53,    10.41
       10.0,      11.09,    12.17,    11.67,     9.15,    11.37
       11.0,      12.03,    13.36,    12.69,     9.74,    12.32
       12.0,      12.95,    14.55,    13.70,    10.32,    13.25
       13.0,      13.87,    15.74,    14.70,    10.88,    14.17
       14.0,      14.78,    16.92,    15.69,    11.42,    15.08
       15.0,      15.68,    18.10,    16.67,    11.95,    15.98
       16.0,      16.57,    19.29,    17.64,    12.47,    16.87
       17.0,      17.45,    20.47,    18.61,    12.98,    17.75
       18.0,      18.33,    21.65,    19.57,    13.48,    18.62
       19.0,      19.20,    22.82,    20.52,    13.97,    19.48
       20.0,      20.07,    24.00,    21.47,    14.46,    20.34
       21.0,      20.93,    25.18,    22.42,    14.93,    21.19
       22.0,      21.81,    26.39,    23.39,    15.40,    22.05
       23.0,      22.73,    27.69,    24.44,    15.88,    22.93
       24.0,      23.75,    29.12,    25.61,    16.37,    23.88
       25.0,      24.88,    30.75,    26.94,    16.91,    24.92
       26.0,      26.13,    32.56,    28.43,    17.48,    26.05
       27.0,      27.48,    34.53,    30.05,    18.08,    27.27
       28.0,      28.89,    36.57,    31.73,    18.71,    28.54
       29.0,      30.28,    38.59,    33.37,    19.33,    29.81
       30.0,      31.57,    40.47,    34.87,    19.92,    31.01
       31.0,      32.69,    42.09,    36.14,    20.46,    32.08
       32.0,      33.58,    43.35,    37.10,    20.91,    32.97
       33.0,      34.21,    44.22,    37.70,    21.27,    33.63
       34.0,      34.55,    44.66,    37.94,    21.52,    34.06
       35.0,      34.63,    44.72,    37.86,    21.67,    34.26
       36.0,      34.48,    44.44,    37.50,    21.73,    34.27
       37.0,      34.17,    43.92,    36.93,    21.72,    34.12
       38.0,      33.75,    43.25,    36.25,    21.66,    33.87
       39.0,      33.28,    42.50,    35.51,    21.56,    33.56
       40.0,      32.80,    41.74,    34.78,    21.46,    33.23
       41.0,      32.34,    41.00,    34.07,    21.36,    32.91
       42.0,      31.89,    40.31,    33.40,    21.26,    32.61
       43.0,      31.48,    39.65,    32.77,    21.16,    32.32
       44.0,      31.07,    39.02,    32.16,    21.07,    32.05
       45.0,      30.69,    38.41,    31.58,    20.98,    31.78
       46.0,      30.31,    37.82,    31.02,    20.89,    31.52
       47.0,      29.95,    37.25,    30.48,    20.80,    31.27
       48.0,      29.60,    36.69,    29.96,    20.71,    31.02
       49.0,      29.26,    36.16,    29.46,    20.63,    30.78
       50.0,      28.93,    35.65,    28.98,    20.54,    30.54
       51.0,      28.61,    35.15,    28.51,    20.45,    30.31
       52.0,      28.30,    34.66,    28.07,    20.36,    30.09
       53.0,      28.00,    34.20,    27.64,    20.28,    29.87
       54.0,      27.71,    33.75,    27.23,    20.19,    29.66
       55.0,      27.42,    33.31,    26.83,    20.11,    29.45
       56.0,      27.15,    32.89,    26.45,    20.02,    29.25
       57.0,      26.89,    32.48,    26.08,    19.94,    29.05
       58.0,      26.63,    32.09,    25.73,    19.86,    28.85
       59.0,      26.38,    31.70,    25.39,    19.77,    28.66
       60.0,      26.14,    31.33,    25.06,    19.69,    28.48
       61.0,      25.91,    30.98,    24.74,    19.61,    28.30
       62.0,      25.68,    30.63,    24.44,    19.53,    28.12
       63.0,      25.46,    30.29,    24.15,    19.45,    27.95
       64.0,      25.25,    29.97,    23.86,    19.37,    27.78
       65.0,      25.04,    29.66,    23.59,    19.29,    27.62
       66.0,      24.84,    29.35,    23.33,    19.21,    27.46
       67.0,      24.64,    29.06,    23.08,    19.13,    27.30
       68.0,      24.45,    28.77,    22.83,    19.05,    27.14
       69.0,      24.26,    28.50,    22.60,    18.97,    26.99
       70.0,      24.09,    28.23,    22.37,    18.89,    26.85
       71.0,      23.91,    27.97,    22.15,    18.82,    26.70
       72.0,      23.74,    27.72,    21.94,    18.74,    26.56
       73.0,      23.58,    27.48,    21.74,    18.66,    26.42
       74.0,      23.42,    27.24,    21.55,    18.59,    26.29
       75.0,      23.26,    27.01,    21.36,    18.51,    26.15
       76.0,      23.11,    26.79,    21.18,    18.44,    26.02
       77.0,      22.96,    26.58,    21.00,    18.36,    25.90
       78.0,      22.82,    26.37,    20.83,    18.29,    25.77
       79.0,      22.68,    26.17,    20.67,    18.22,    25.65
       80.0,      22.54,    25.97,    20.51,    18.14,    25.53
       81.0,      22.41,    25.78,    20.36,    18.07,    25.41
       82.0,      22.28,    25.60,    20.21,    18.00,    25.30
       83.0,      22.15,    25.42,    20.07,    17.93,    25.19
       84.0,      22.03,    25.25,    19.93,    17.85,    25.07
       85.0,      21.91,    25.08,    19.80,    17.78,    24.97
       86.0,      21.79,    24.92,    19.67,    17.71,    24.86
       87.0,      21.68,    24.76,    19.55,    17.64,    24.76
       88.0,      21.57,    24.61,    19.43,    17.57,    24.65
       89.0,      21.46,    24.46,    19.32,    17.50,    24.55
       90.0,      21.35,    24.31,    19.20,    17.44,    24.45
       91.0,      21.25,    24.17,    19.10,    17.37,    24.36
       92.0,      21.15,    24.03,    18.99,    17.30,    24.26
       93.0,      21.05,    23.90,    18.89,    17.23,    24.17
       94.0,      20.95,    23.77,    18.79,    17.16,    24.07
       95.0,      20.86,    23.64,    18.70,    17.10,    23.98
       96.0,      20.76,    23.52,    18.61,    17.03,    23.89
       97.0,      20.67,    23.40,    18.52,    16.96,    23.81
       98.0,      20.59,    23.29,    18.43,    16.90,    23.72
       99.0,      20.50,    23.17,    18.35,    16.83,    23.64
      100.0,      20.41,    23.07,    18.27,    16.77,    23.55
      101.0,      20.33,    22.96,    18.19,    16.70,    23.47
      102.0,      20.25,    22.85,    18.12,    16.64,    23.39
      103.0,      20.17,    22.75,    18.04,    16.58,    23.31
      104.0,      20.09,    22.65,    17.97,    16.51,    23.23
      105.0,      20.02,    22.56,    17.90,    16.45,    23.15
      106.0,      19.94,    22.46,    17.83,    16.39,    23.08
      107.0,      19.87,    22.37,    17.77,    16.33,    23.00
      108.0,      19.80,    22.28,    17.71,    16.26,    22.93
      109.0,      19.72,    22.20,    17.64,    16.20,    22.86
      110.0,      19.66,    22.11,    17.58,    16.14,    22.78
      111.0,      19.59,    22.03,    17.53,    16.08,    22.71
      112.0,      19.52,    21.95,    17.47,    16.02,    22.64
      113.0,      19.45,    21.87,    17.41,    15.96,    22.57
      114.0,      19.39,    21.79,    17.36,    15.90,    22.51
      115.0,      19.33,    21.72,    17.31,    15.84,    22.44
      116.0,      19.26,    21.64,    17.26,    15.78,    22.37
      117.0,      19.20,    21.57,    17.21,    15.72,    22.31
      118.0,      19.14,    21.50,    17.16,    15.66,    22.24
      119.0,      19.08,    21.43,    17.11,    15.61,    22.18
      120.0,      19.02,    21.37,    17.07,    15.55,    22.11
      121.0,      18.97,    21.30,    17.02,    15.49,    22.05
      122.0,      18.91,    21.24,    16.98,    15.43,    21.99
      123.0,      18.85,    21.17,    16.94,    15.38,    21.93
      124.0,      18.80,    21.11,    16.90,    15.32,    21.87
      125.0,      18.75,    21.05,    16.85,    15.27,    21.81
      126.0,      18.69,    20.99,    16.82,    15.21,    21.75
      127.0,      18.64,    20.93,    16.78,    15.15,    21.69
      128.0,      18.59,    20.88,    16.74,    15.10,    21.63
      129.0,      18.54,    20.82,    16.70,    15.05,    21.58
      130.0,      18.49,    20.77,    16.66,    14.99,    21.52
      131.0,      18.44,    20.71,    16.63,    14.94,    21.46
      132.0,      18.39,    20.66,    16.59,    14.88,    21.41
      133.0,      18.34,    20.61,    16.56,    14.83,    21.35
      134.0,      18.29,    20.56,    16.53,    14.78,    21.30
      135.0,      18.24,    20.51,    16.49,    14.72,    21.25
      136.0,      18.20,    20.46,    16.46,    14.67,    21.19
      137.0,      18.15,    20.41,    16.43,    14.62,    21.14
      138.0,      18.10,    20.36,    16.40,    14.57,    21.09
      139.0,      18.06,    20.31,    16.37,    14.52,    21.04
      140.0,      18.01,    20.27,    16.34,    14.46,    20.98
      141.0,      17.97,    20.22,    16.31,    14.41,    20.93
      142.0,      17.93,    20.18,    16.28,    14.36,    20.88
      143.0,      17.88,    20.13,    16.25,    14.31,    20.83
      144.0,      17.84,    20.09,    16.22,    14.26,    20.78
      145.0,      17.80,    20.05,    16.20,    14.21,    20.73
      146.0,      17.76,    20.01,    16.17,    14.16,    20.68
      147.0,      17.71,    19.96,    16.14,    14.11,    20.64
      148.0,      17.67,    19.92,    16.12,    14.06,    20.59
      149.0,      17.63,    19.88,    16.09,    14.01,    20.54
      150.0,      17.59,    19.84,    16.06,    13.97,    20.49
      151.0,      17.55,    19.80,    16.04,    13.92,    20.45
      152.0,      17.51,    19.76,    16.01,    13.87,    20.40
      153.0,      17.47,    19.73,    15.99,    13.82,    20.35
      154.0,      17.43,    19.69,    15.96,    13.78,    20.31
      155.0,      17.39,    19.65,    15.94,    13.73,    20.26
      156.0,      17.36,    19.61,    15.92,    13.68,    20.21
      157.0,      17.32,    19.58,    15.89,    13.63,    20.17
      158.0,      17.28,    19.54,    15.87,    13.59,    20.12
      159.0,      17.24,    19.50,    15.85,    13.54,    20.08
      160.0,      17.21,    19.47,    15.82,    13.50,    20.03
      161.0,      17.17,    19.43,    15.80,    13.45,    19.99
      162.0,      17.13,    19.40,    15.78,    13.41,    19.95
      163.0,      17.10,    19.37,    15.76,    13.36,    19.90
      164.0,      17.06,    19.33,    15.74,    13.32,    19.86
      165.0,      17.03,    19.30,    15.71,    13.27,    19.82
      166.0,      16.99,    19.26,    15.69,    13.23,    19.77
      167.0,      16.95,    19.23,    15.67,    13.18,    19.73
      168.0,      16.92,    19.20,    15.65,    13.14,    19.69
      169.0,      16.88,    19.17,    15.63,    13.10,    19.65
      170.0,      16.85,    19.13,    15.61,    13.05,    19.60
      171.0,      16.82,    19.10,    15.59,    13.01,    19.56
      172.0,      16.78,    19.07,    15.57,    12.97,    19.52
      173.0,      16.75,    19.04,    15.55,    12.92,    19.48
      174.0,      16.71,    19.01,    15.53,    12.88,    19.44
      175.0,      16.68,    18.98,    15.51,    12.84,    19.40
      176.0,      16.65,    18.95,    15.49,    12.80,    19.36
      177.0,      16.61,    18.92,    15.47,    12.76,    19.32
      178.0,      16.58,    18.89,    15.45,    12.71,    19.27
      179.0,      16.55,    18.86,    15.43,    12.67,    19.23
      180.0,      16.52,    18.83,    15.41,    12.63,    19.19
      181.0,      16.48,    18.80,    15.39,    12.59,    19.15
      182.0,      16.45,    18.77,    15.37,    12.55,    19.12
      183.0,      16.42,    18.74,    15.36,    12.51,    19.08
      184.0,      16.39,    18.71,    15.34,    12.47,    19.04
      185.0,      16.36,    18.68,    15.32,    12.43,    19.00
      186.0,      16.33,    18.65,    15.30,    12.39,    18.96
      187.0,      16.29,    18.62,    15.28,    12.35,    18.92
      188.0,      16.26,    18.59,    15.26,    12.31,    18.88
      189.0,      16.23,    18.57,    15.24,    12.27,    18.84
      190.0,      16.20,    18.54,    15.23,    12.24,    18.80
      191.0,      16.17,    18.51,    15.21,    12.20,    18.77
      192.0,      16.14,    18.48,    15.19,    12.16,    18.73
      193.0,      16.11,    18.45,    15.17,    12.12,    18.69
      194.0,      16.08,    18.43,    15.15,    12.08,    18.65
      195.0,      16.05,    18.40,    15.14,    12.05,    18.61
      196.0,      16.02,    18.37,    15.12,    12.01,    18.58
      197.0,      15.99,    18.35,    15.10,    11.97,    18.54
      198.0,      15.96,    18.32,    15.08,    11.93,    18.50
      199.0,      15.93,    18.29,    15.07,    11.90,    18.46
      200.0,      15.90,    18.26,    15.05,    11.86,    18.43
      201.0,      15.87,    18.24,    15.03,    11.82,    18.39
      202.0,      15.84,    18.21,    15.01,    11.79,    18.35
      203.0,      15.81,    18.19,    15.00,    11.75,    18.32
      204.0,      15.78,    18.16,    14.98,    11.72,    18.28
      205.0,      15.75,    18.13,    14.96,    11.68,    18.24
      206.0,      15.73,    18.11,    14.95,    11.64,    18.21
      207.0,      15.70,    18.08,    14.93,    11.61,    18.17
      208.0,      15.67,    18.05,    14.91,    11.57,    18.13
      209.0,      15.64,    18.03,    14.89,    11.54,    18.10
      210.0,      15.61,    18.00,    14.88,    11.50,    18.06
      211.0,      15.58,    17.98,    14.86,    11.47,    18.03
      212.0,      15.56,    17.95,    14.84,    11.44,    17.99
      213.0,      15.53,    17.93,    14.83,    11.40,    17.96
      214.0,      15.50,    17.90,    14.81,    11.37,    17.92
      215.0,      15.47,    17.88,    14.79,    11.33,    17.89
      216.0,      15.44,    17.85,    14.78,    11.30,    17.85
      217.0,      15.42,    17.83,    14.76,    11.27,    17.81
      218.0,      15.39,    17.80,    14.74,    11.23,    17.78
      219.0,      15.36,    17.78,    14.73,    11.20,    17.74
      220.0,      15.33,    17.75,    14.71,    11.17,    17.71
      221.0,      15.31,    17.73,    14.70,    11.13,    17.68
      222.0,      15.28,    17.70,    14.68,    11.10,    17.64
      223.0,      15.25,    17.68,    14.66,    11.07,    17.61
      224.0,      15.23,    17.65,    14.65,    11.04,    17.57
      225.0,      15.20,    17.63,    14.63,    11.00,    17.54
      226.0,      15.17,    17.60,    14.61,    10.97,    17.50
      227.0,      15.15,    17.58,    14.60,    10.94,    17.47
      228.0,      15.12,    17.55,    14.58,    10.91,    17.43
      229.0,      15.09,    17.53,    14.57,    10.88,    17.40
      230.0,      15.07,    17.51,    14.55,    10.85,    17.37
      231.0,      15.04,    17.48,    14.53,    10.82,    17.33
      232.0,      15.01,    17.46,    14.52,    10.79,    17.30
      233.0,      14.99,    17.43,    14.50,    10.75,    17.27
      234.0,      14.96,    17.41,    14.49,    10.72,    17.23
      235.0,      14.94,    17.38,    14.47,    10.69,    17.20
      236.0,      14.91,    17.36,    14.45,    10.66,    17.16
      237.0,      14.88,    17.34,    14.44,    10.63,    17.13
      238.0,      14.86,    17.31,    14.42,    10.60,    17.10
      239.0,      14.83,    17.29,    14.41,    10.57,    17.07
      240.0,      14.81,    17.27,    14.39,    10.54,    17.03
      241.0,      14.78,    17.24,    14.37,    10.51,    17.00
      242.0,      14.76,    17.22,    14.36,    10.49,    16.97
      243.0,      14.73,    17.19,    14.34,    10.46,    16.93
      244.0,      14.71,    17.17,    14.33,    10.43,    16.90
      245.0,      14.68,    17.15,    14.31,    10.40,    16.87
      246.0,      14.66,    17.12,    14.30,    10.37,    16.83
      247.0,      14.63,    17.10,    14.28,    10.34,    16.80
      248.0,      14.61,    17.08,    14.26,    10.31,    16.77
      249.0,      14.58,    17.05,    14.25,    10.28,    16.74
      250.0,      14.56,    17.03,    14.23,    10.26,    16.71
      251.0,      14.53,    17.01,    14.22,    10.23,    16.67
      252.0,      14.51,    16.98,    14.20,    10.20,    16.64
      253.0,      14.48,    16.96,    14.19,    10.17,    16.61
      254.0,      14.46,    16.94,    14.17,    10.15,    16.58
      255.0,      14.43,    16.92,    14.16,    10.12,    16.54
      256.0,      14.41,    16.89,    14.14,    10.09,    16.51
      257.0,      14.38,    16.87,    14.12,    10.06,    16.48
      258.0,      14.36,    16.85,    14.11,    10.04,    16.45
      259.0,      14.34,    16.82,    14.09,    10.01,    16.42
      260.0,      14.31,    16.80,    14.08,     9.98,    16.39
      261.0,      14.29,    16.78,    14.06,     9.96,    16.35
      262.0,      14.26,    16.76,    14.05,     9.93,    16.32
      263.0,      14.24,    16.73,    14.03,     9.90,    16.29
      264.0,      14.22,    16.71,    14.02,     9.88,    16.26
      265.0,      14.19,    16.69,    14.00,     9.85,    16.23
      266.0,      14.17,    16.67,    13.99,     9.83,    16.20
      267.0,      14.14,    16.64,    13.97,     9.80,    16.17
      268.0,      14.12,    16.62,    13.96,     9.77,    16.14
      269.0,      14.10,    16.60,    13.94,     9.75,    16.10
      270.0,      14.07,    16.58,    13.93,     9.72,    16.07
      271.0,      14.05,    16.55,    13.91,     9.70,    16.04
      272.0,      14.03,    16.53,    13.90,     9.67,    16.01
      273.0,      14.00,    16.51,    13.88,     9.65,    15.98
      274.0,      13.98,    16.49,    13.87,     9.62,    15.95
      275.0,      13.96,    16.46,    13.85,     9.60,    15.92
      276.0,      13.93,    16.44,    13.84,     9.57,    15.89
      277.0,      13.91,    16.42,    13.82,     9.55,    15.86
      278.0,      13.89,    16.40,    13.81,     9.52,    15.83
      279.0,      13.87,    16.37,    13.79,     9.50,    15.80
      280.0,      13.84,    16.35,    13.78,     9.48,    15.77
      281.0,      13.82,    16.33,    13.76,     9.45,    15.74
      282.0,      13.80,    16.31,    13.75,     9.43,    15.71
      283.0,      13.77,    16.29,    13.73,     9.40,    15.68
      284.0,      13.75,    16.26,    13.72,     9.38,    15.65
      285.0,      13.73,    16.24,    13.70,     9.36,    15.62
      286.0,      13.71,    16.22,    13.69,     9.33,    15.59
      287.0,      13.68,    16.20,    13.67,     9.31,    15.56
      288.0,      13.66,    16.18,    13.66,     9.29,    15.53
      289.0,      13.64,    16.16,    13.64,     9.26,    15.50
      290.0,      13.62,    16.13,    13.63,     9.24,    15.47
      291.0,      13.59,    16.11,    13.61,     9.22,    15.44
      292.0,      13.57,    16.09,    13.60,     9.19,    15.41
      293.0,      13.55,    16.07,    13.58,     9.17,    15.38
      294.0,      13.53,    16.05,    13.57,     9.15,    15.35
      295.0,      13.51,    16.03,    13.55,     9.13,    15.32
      296.0,      13.48,    16.00,    13.54,     9.10,    15.29
      297.0,      13.46,    15.98,    13.52,     9.08,    15.26
      298.0,      13.44,    15.96,    13.51,     9.06,    15.23
      299.0,      13.42,    15.94,    13.49,     9.04,    15.20
      300.0,      13.40,    15.92,    13.48,     9.02,    15.17
      301.0,      13.38,    15.90,    13.46,     8.99,    15.14
      302.0,      13.35,    15.88,    13.45,     8.97,    15.12
      303.0,      13.33,    15.85,    13.44,     8.95,    15.09
      304.0,      13.31,    15.83,    13.42,     8.93,    15.06
      305.0,      13.29,    15.81,    13.41,     8.91,    15.03
      306.0,      13.27,    15.79,    13.39,     8.89,    15.00
      307.0,      13.25,    15.77,    13.38,     8.87,    14.97
      308.0,      13.22,    15.75,    13.36,     8.84,    14.94
      309.0,      13.20,    15.73,    13.35,     8.82,    14.91
      310.0,      13.18,    15.71,    13.33,     8.80,    14.89
