Radius (km), Mean (m/s), NE (m/s), SE (m/s), SW (m/s), NW (m/s)
        0.0,       0.00,     0.00,     0.00,     0.00,     0.00
        1.0,       1.12,     1.01,     1.24,     1.24,     1.01
        2.0,       2.19,     2.03,     2.35,     2.35,     2.03
        3.0,       3.23,     3.06,     3.41,     3.41,     3.06
        4.0,       4.27,     4.09,     4.44,     4.44,     4.09
        5.0,       5.29,     5.12,     5.46,     5.46,     5.12
        6.0,       6.31,     6.16,     6.46,     6.46,     6.16
        7.0,       7.32,     7.20,     7.44,     7.44,     7.20
        8.0,       8.33,     8.24,     8.42,     8.42,     8.24
        9.0,       9.33,     9.29,     9.38,     9.38,     9.29
       10.0,      10.33,    10.33,    10.34,    10.34,    10.33
       11.0,      11.33,    11.38,    11.28,    11.28,    11.38
       12.0,      12.32,    12.42,    12.22,    12.22,    12.42
       13.0,      13.32,    13.47,    13.16,    13.16,    13.47
       14.0,      14.30,    14.52,    14.09,    14.09,    14.52
       15.0,      15.29,    15.57,    15.01,    15.01,    15.57
       16.0,      16.28,    16.62,    15.93,    15.93,    16.62
       17.0,      17.26,    17.67,    16.85,    16.85,    17.67
       18.0,      18.24,    18.72,    17.76,    17.76,    18.72
       19.0,      19.22,    19.78,    18.67,    18.67,    19.78
       20.0,      20.20,    20.83,    19.57,    19.57,    20.83
       21.0,      21.18,    21.88,    20.47,    20.47,    21.88
       22.0,      22.15,    22.94,    21.36,    21.36,    22.94
       23.0,      23.12,    23.99,    22.26,    22.26,    23.99
       24.0,      24.10,    25.05,    23.15,    23.15,    25.05
       25.0,      25.07,    26.11,    24.03,    24.03,    26.11
       26.0,      26.04,    27.16,    24.92,    24.92,    27.16
       27.0,      27.01,    28.22,    25.80,    25.80,    28.22
       28.0,      27.98,    29.28,    26.68,    26.68,    29.28
       29.0,      28.94,    30.34,    27.55,    27.55,    30.34
       30.0,      29.91,    31.39,    28.43,    28.43,    31.39
       31.0,      30.88,    32.46,    29.30,    29.30,    32.45
       32.0,      31.85,    33.53,    30.18,    30.17,    33.52
       33.0,      32.86,    34.65,    31.09,    31.07,    34.63
       34.0,      33.93,    35.84,    32.07,    32.03,    35.81
       35.0,      35.11,    37.12,    33.15,    33.07,    37.08
       36.0,      36.39,    38.52,    34.33,    34.23,    38.47
       37.0,      37.77,    40.01,    35.62,    35.48,    39.96
       38.0,      39.20,    41.54,    36.95,    36.80,    41.51
       39.0,      40.64,    43.06,    38.29,    38.14,    43.06
       40.0,      41.99,    44.51,    39.54,    39.40,    44.53
       41.0,      43.20,    45.80,    40.64,    40.53,    45.85
       42.0,      44.20,    46.88,    41.52,    41.45,    46.96
       43.0,      44.94,    47.71,    42.15,    42.11,    47.80
       44.0,      45.41,    48.28,    42.50,    42.49,    48.37
       45.0,      45.61,    48.60,    42.60,    42.60,    48.66
       46.0,      45.59,    48.70,    42.47,    42.47,    48.72
       47.0,      45.39,    48.64,    42.16,    42.15,    48.59
       48.0,      45.07,    48.48,    41.75,    41.70,    48.34
       49.0,      44.68,    48.25,    41.28,    41.18,    48.02
       50.0,      44.29,    48.01,    40.80,    40.65,    47.68
       51.0,      43.90,    47.78,    40.34,    40.14,    47.34
       52.0,      43.54,    47.57,    39.91,    39.66,    47.03
       53.0,      43.21,    47.36,    39.51,    39.22,    46.74
       54.0,      42.89,    47.17,    39.13,    38.79,    46.45
       55.0,      42.58,    46.97,    38.77,    38.39,    46.17
       56.0,      42.27,    46.78,    38.41,    37.99,    45.90
       57.0,      41.97,    46.59,    38.06,    37.61,    45.62
       58.0,      41.68,    46.40,    37.73,    37.24,    45.35
       59.0,      41.39,    46.21,    37.40,    36.88,    45.08
       60.0,      41.11,    46.02,    37.09,    36.53,    44.82
       61.0,      40.84,    45.83,    36.78,    36.19,    44.55
       62.0,      40.57,    45.64,    36.48,    35.87,    44.29
       63.0,      40.31,    45.45,    36.19,    35.55,    44.03
       64.0,      40.05,    45.27,    35.91,    35.24,    43.78
       65.0,      39.79,    45.08,    35.63,    34.93,    43.52
       66.0,      39.54,    44.90,    35.37,    34.64,    43.27
       67.0,      39.30,    44.72,    35.11,    34.36,    43.02
       68.0,      39.06,    44.53,    34.86,    34.08,    42.77
       69.0,      38.83,    44.35,    34.61,    33.81,    42.53
       70.0,      38.59,    44.17,    34.37,    33.55,    42.29
       71.0,      38.37,    43.99,    34.14,    33.29,    42.05
       72.0,      38.14,    43.82,    33.91,    33.04,    41.81
       73.0,      37.93,    43.64,    33.69,    32.80,    41.57
       74.0,      37.71,    43.46,    33.48,    32.56,    41.34
       75.0,      37.50,    43.29,    33.27,    32.33,    41.11
       76.0,      37.29,    43.11,    33.06,    32.10,    40.88
       77.0,      37.08,    42.94,    32.86,    31.88,    40.65
       78.0,      36.88,    42.77,    32.67,    31.67,    40.43
       79.0,      36.68,    42.60,    32.47,    31.46,    40.20
       80.0,      36.49,    42.42,    32.29,    31.26,    39.98
       81.0,      36.29,    42.25,    32.11,    31.06,    39.76
       82.0,      36.10,    42.09,    31.93,    30.86,    39.54
       83.0,      35.92,    41.92,    31.75,    30.67,    39.33
       84.0,      35.73,    41.75,    31.58,    30.48,    39.12
       85.0,      35.55,    41.58,    31.42,    30.30,    38.90
       86.0,      35.37,    41.42,    31.25,    30.12,    38.69
       87.0,      35.20,    41.25,    31.09,    29.95,    38.49
       88.0,      35.02,    41.09,    30.94,    29.78,    38.28
       89.0,      34.85,    40.92,    30.78,    29.61,    38.08
       90.0,      34.68,    40.76,    30.63,    29.45,    37.88
       91.0,      34.51,    40.60,    30.48,    29.29,    37.67
       92.0,      34.35,    40.44,    30.34,    29.13,    37.48
       93.0,      34.18,    40.28,    30.20,    28.97,    37.28
       94.0,      34.02,    40.12,    30.06,    28.82,    37.08
       95.0,      33.86,    39.96,    29.92,    28.67,    36.89
       96.0,      33.70,    39.80,    29.79,    28.53,    36.70
       97.0,      33.55,    39.65,    29.65,    28.38,    36.51
       98.0,      33.39,    39.49,    29.52,    28.24,    36.32
       99.0,      33.24,    39.34,    29.40,    28.10,    36.13
      100.0,      33.09,    39.18,    29.27,    27.96,    35.95
      101.0,      32.94,    39.03,    29.15,    27.83,    35.76
      102.0,      32.80,    38.87,    29.03,    27.70,    35.58
      103.0,      32.65,    38.72,    28.91,    27.57,    35.40
      104.0,      32.51,    38.57,    28.79,    27.44,    35.22
      105.0,      32.36,    38.42,    28.67,    27.31,    35.04
      106.0,      32.22,    38.27,    28.56,    27.19,    34.87
      107.0,      32.08,    38.12,    28.44,    27.07,    34.69
      108.0,      31.94,    37.97,    28.33,    26.95,    34.52
      109.0,      31.81,    37.83,    28.22,    26.83,    34.35
      110.0,      31.67,    37.68,    28.12,    26.71,    34.18
      111.0,      31.54,    37.53,    28.01,    26.60,    34.01
      112.0,      31.40,    37.39,    27.90,    26.48,    33.84
      113.0,      31.27,    37.24,    27.80,    26.37,    33.68
      114.0,      31.14,    37.10,    27.70,    26.26,    33.51
      115.0,      31.01,    36.95,    27.59,    26.15,    33.35
      116.0,      30.88,    36.81,    27.49,    26.04,    33.19
      117.0,      30.76,    36.67,    27.39,    25.93,    33.03
      118.0,      30.63,    36.53,    27.30,    25.83,    32.87
      119.0,      30.50,    36.39,    27.20,    25.72,    32.71
      120.0,      30.38,    36.25,    27.10,    25.62,    32.55
      121.0,      30.26,    36.11,    27.01,    25.52,    32.40
      122.0,      30.14,    35.97,    26.91,    25.42,    32.24
      123.0,      30.01,    35.83,    26.82,    25.32,    32.09
      124.0,      29.89,    35.69,    26.73,    25.22,    31.94
      125.0,      29.78,    35.56,    26.64,    25.12,    31.79
      126.0,      29.66,    35.42,    26.55,    25.02,    31.64
      127.0,      29.54,    35.29,    26.46,    24.93,    31.49
      128.0,      29.42,    35.15,    26.37,    24.83,    31.34
      129.0,      29.31,    35.02,    26.28,    24.74,    31.20
      130.0,      29.19,    34.88,    26.19,    24.65,    31.05
      131.0,      29.08,    34.75,    26.11,    24.55,    30.91
      132.0,      28.97,    34.62,    26.02,    24.46,    30.77
      133.0,      28.86,    34.49,    25.94,    24.37,    30.62
      134.0,      28.74,    34.36,    25.85,    24.28,    30.48
      135.0,      28.63,    34.23,    25.77,    24.19,    30.35
      136.0,      28.52,    34.10,    25.69,    24.10,    30.21
      137.0,      28.41,    33.97,    25.60,    24.02,    30.07
      138.0,      28.31,    33.84,    25.52,    23.93,    29.93
      139.0,      28.20,    33.71,    25.44,    23.84,    29.80
      140.0,      28.09,    33.59,    25.36,    23.76,    29.66
      141.0,      27.99,    33.46,    25.28,    23.67,    29.53
      142.0,      27.88,    33.33,    25.20,    23.59,    29.40
      143.0,      27.78,    33.21,    25.12,    23.50,    29.27
      144.0,      27.67,    33.08,    25.04,    23.42,    29.14
      145.0,      27.57,    32.96,    24.96,    23.34,    29.01
      146.0,      27.47,    32.84,    24.89,    23.26,    28.88
      147.0,      27.36,    32.71,    24.81,    23.17,    28.76
      148.0,      27.26,    32.59,    24.73,    23.09,    28.63
      149.0,      27.16,    32.47,    24.66,    23.01,    28.50
      150.0,      27.06,    32.35,    24.58,    22.93,    28.38
      151.0,      26.96,    32.23,    24.51,    22.85,    28.26
      152.0,      26.86,    32.11,    24.43,    22.78,    28.13
      153.0,      26.76,    31.99,    24.36,    22.70,    28.01
      154.0,      26.67,    31.87,    24.28,    22.62,    27.89
      155.0,      26.57,    31.75,    24.21,    22.54,    27.77
      156.0,      26.47,    31.63,    24.14,    22.46,    27.65
      157.0,      26.38,    31.51,    24.07,    22.39,    27.53
      158.0,      26.28,    31.40,    23.99,    22.31,    27.42
      159.0,      26.18,    31.28,    23.92,    22.24,    27.30
      160.0,      26.09,    31.17,    23.85,    22.16,    27.19
      161.0,      26.00,    31.05,    23.78,    22.09,    27.07
      162.0,      25.90,    30.94,    23.71,    22.01,    26.96
      163.0,      25.81,    30.82,    23.64,    21.94,    26.84
      164.0,      25.72,    30.71,    23.57,    21.86,    26.73
      165.0,      25.63,    30.60,    23.50,    21.79,    26.62
      166.0,      25.53,    30.48,    23.43,    21.72,    26.51
      167.0,      25.44,    30.37,    23.36,    21.64,    26.40
      168.0,      25.35,    30.26,    23.29,    21.57,    26.29
      169.0,      25.26,    30.15,    23.22,    21.50,    26.18
      170.0,      25.17,    30.04,    23.15,    21.43,    26.07
      171.0,      25.08,    29.93,    23.09,    21.36,    25.97
      172.0,      25.00,    29.82,    23.02,    21.29,    25.86
      173.0,      24.91,    29.71,    22.95,    21.21,    25.75
      174.0,      24.82,    29.60,    22.88,    21.14,    25.65
      175.0,      24.73,    29.49,    22.82,    21.07,    25.55
      176.0,      24.65,    29.39,    22.75,    21.00,    25.44
      177.0,      24.56,    29.28,    22.68,    20.94,    25.34
      178.0,      24.47,    29.17,    22.62,    20.87,    25.24
      179.0,      24.39,    29.07,    22.55,    20.80,    25.14
      180.0,      24.30,    28.96,    22.49,    20.73,    25.03
      181.0,      24.22,    28.86,    22.42,    20.66,    24.93
      182.0,      24.13,    28.75,    22.36,    20.59,    24.84
      183.0,      24.05,    28.65,    22.29,    20.53,    24.74
      184.0,      23.97,    28.54,    22.23,    20.46,    24.64
      185.0,      23.88,    28.44,    22.16,    20.39,    24.54
      186.0,      23.80,    28.34,    22.10,    20.32,    24.44
      187.0,      23.72,    28.24,    22.03,    20.26,    24.35
      188.0,      23.64,    28.14,    21.97,    20.19,    24.25
      189.0,      23.56,    28.03,    21.91,    20.13,    24.16
      190.0,      23.48,    27.93,    21.84,    20.06,    24.06
      191.0,      23.39,    27.83,    21.78,    19.99,    23.97
      192.0,      23.31,    27.73,    21.72,    19.93,    23.88
      193.0,      23.23,    27.63,    21.66,    19.86,    23.78
      194.0,      23.15,    27.53,    21.59,    19.80,    23.69
      195.0,      23.08,    27.44,    21.53,    19.74,    23.60
      196.0,      23.00,    27.34,    21.47,    19.67,    23.51
      197.0,      22.92,    27.24,    21.41,    19.61,    23.42
      198.0,      22.84,    27.14,    21.35,    19.54,    23.33
      199.0,      22.76,    27.05,    21.29,    19.48,    23.24
      200.0,      22.69,    26.95,    21.22,    19.42,    23.15
      201.0,      22.61,    26.85,    21.16,    19.35,    23.06
      202.0,      22.53,    26.76,    21.10,    19.29,    22.98
      203.0,      22.46,    26.66,    21.04,    19.23,    22.89
      204.0,      22.38,    26.57,    20.98,    19.17,    22.80
      205.0,      22.30,    26.47,    20.92,    19.11,    22.72
      206.0,      22.23,    26.38,    20.86,    19.04,    22.63
      207.0,      22.15,    26.29,    20.80,    18.98,    22.55
      208.0,      22.08,    26.19,    20.74,    18.92,    22.46
      209.0,      22.01,    26.10,    20.68,    18.86,    22.38
      210.0,      21.93,    26.01,    20.63,    18.80,    22.29
      211.0,      21.86,    25.92,    20.57,    18.74,    22.21
      212.0,      21.79,    25.83,    20.51,    18.68,    22.13
      213.0,      21.71,    25.74,    20.45,    18.62,    22.05
      214.0,      21.64,    25.64,    20.39,    18.56,    21.97
      215.0,      21.57,    25.55,    20.33,    18.50,    21.88
      216.0,      21.50,    25.46,    20.27,    18.44,    21.80
      217.0,      21.42,    25.38,    20.22,    18.38,    21.72
      218.0,      21.35,    25.29,    20.16,    18.32,    21.64
      219.0,      21.28,    25.20,    20.10,    18.26,    21.57
      220.0,      21.21,    25.11,    20.04,    18.20,    21.49
      221.0,      21.14,    25.02,    19.99,    18.14,    21.41
      222.0,      21.07,    24.93,    19.93,    18.08,    21.33
      223.0,      21.00,    24.85,    19.87,    18.03,    21.25
      224.0,      20.93,    24.76,    19.82,    17.97,    21.18
      225.0,      20.86,    24.67,    19.76,    17.91,    21.10
      226.0,      20.79,    24.59,    19.71,    17.85,    21.02
      227.0,      20.72,    24.50,    19.65,    17.79,    20.95
      228.0,      20.66,    24.42,    19.59,    17.74,    20.87
      229.0,      20.59,    24.33,    19.54,    17.68,    20.80
      230.0,      20.52,    24.25,    19.48,    17.62,    20.72
      231.0,      20.45,    24.16,    19.43,    17.57,    20.65
      232.0,      20.38,    24.08,    19.37,    17.51,    20.58
      233.0,      20.32,    24.00,    19.32,    17.45,    20.50
      234.0,      20.25,    23.91,    19.26,    17.40,    20.43
      235.0,      20.18,    23.83,    19.21,    17.34,    20.36
      236.0,      20.12,    23.75,    19.15,    17.29,    20.29
      237.0,      20.05,    23.67,    19.10,    17.23,    20.22
      238.0,      19.99,    23.59,    19.04,    17.18,    20.14
      239.0,      19.92,    23.50,    18.99,    17.12,    20.07
      240.0,      19.86,    23.42,    18.94,    17.07,    20.00
      241.0,      19.79,    23.34,    18.88,    17.01,    19.93
      242.0,      19.73,    23.26,    18.83,    16.96,    19.86
      243.0,      19.66,    23.18,    18.78,    16.90,    19.79
      244.0,      19.60,    23.10,    18.72,    16.85,    19.73
      245.0,      19.54,    23.02,    18.67,    16.79,    19.66
      246.0,      19.47,    22.94,    18.62,    16.74,    19.59
      247.0,      19.41,    22.87,    18.56,    16.69,    19.52
      248.0,      19.35,    22.79,    18.51,    16.63,    19.45
      249.0,      19.28,    22.71,    18.46,    16.58,    19.39
      250.0,      19.22,    22.63,    18.41,    16.53,    19.32
      251.0,      19.16,    22.55,    18.35,    16.47,    19.25
      252.0,      19.10,    22.48,    18.30,    16.42,    19.19
      253.0,      19.04,    22.40,    18.25,    16.37,    19.12
      254.0,      18.97,    22.33,    18.20,    16.32,    19.06
      255.0,      18.91,    22.25,    18.15,    16.26,    18.99
      256.0,      18.85,    22.17,    18.09,    16.21,    18.93
      257.0,      18.79,    22.10,    18.04,    16.16,    18.86
      258.0,      18.73,    22.02,    17.99,    16.11,    18.80
      259.0,      18.67,    21.95,    17.94,    16.06,    18.73
      260.0,      18.61,    21.87,    17.89,    16.00,    18.67
      261.0,      18.55,    21.80,    17.84,    15.95,    18.61
      262.0,      18.49,    21.73,    17.79,    15.90,    18.54
      263.0,      18.43,    21.65,    17.74,    15.85,    18.48
      264.0,      18.37,    21.58,    17.69,    15.80,    18.42
      265.0,      18.31,    21.51,    17.64,    15.75,    18.36
      266.0,      18.25,    21.43,    17.59,    15.70,    18.30
      267.0,      18.20,    21.36,    17.54,    15.65,    18.23
      268.0,      18.14,    21.29,    17.49,    15.60,    18.17
      269.0,      18.08,    21.22,    17.44,    15.55,    18.11
      270.0,      18.02,    21.15,    17.39,    15.50,    18.05
      271.0,      17.96,    21.08,    17.34,    15.45,    17.99
      272.0,      17.91,    21.00,    17.29,    15.40,    17.93
      273.0,      17.85,    20.93,    17.24,    15.35,    17.87
      274.0,      17.79,    20.86,    17.19,    15.30,    17.81
      275.0,      17.74,    20.79,    17.15,    15.25,    17.75
      276.0,      17.68,    20.72,    17.10,    15.20,    17.70
      277.0,      17.62,    20.66,    17.05,    15.15,    17.64
      278.0,      17.57,    20.59,    17.00,    15.11,    17.58
      279.0,      17.51,    20.52,    16.95,    15.06,    17.52
      280.0,      17.46,    20.45,    16.90,    15.01,    17.46
      281.0,      17.40,    20.38,    16.86,    14.96,    17.41
      282.0,      17.35,    20.31,    16.81,    14.91,    17.35
      283.0,      17.29,    20.24,    16.76,    14.87,    17.29
      284.0,      17.24,    20.18,    16.71,    14.82,    17.24
      285.0,      17.18,    20.11,    16.67,    14.77,    17.18
      286.0,      17.13,    20.04,    16.62,    14.72,    17.12
      287.0,      17.07,    19.98,    16.57,    14.68,    17.07
      288.0,      17.02,    19.91,    16.52,    14.63,    17.01
      289.0,      16.97,    19.84,    16.48,    14.58,    16.96
      290.0,      16.91,    19.78,    16.43,    14.54,    16.90
      291.0,      16.86,    19.71,    16.38,    14.49,    16.85
      292.0,      16.81,    19.65,    16.34,    14.44,    16.79
      293.0,      16.75,    19.58,    16.29,    14.40,    16.74
      294.0,      16.70,    19.52,    16.25,    14.35,    16.68
      295.0,      16.65,    19.45,    16.20,    14.30,    16.63
      296.0,      16.59,    19.39,    16.15,    14.26,    16.58
      297.0,      16.54,    19.33,    16.11,    14.21,    16.52
      298.0,      16.49,    19.26,    16.06,    14.17,    16.47
      299.0,      16.44,    19.20,    16.02,    14.12,    16.42
      300.0,      16.39,    19.13,    15.97,    14.08,    16.37
      301.0,      16.34,    19.07,    15.93,    14.03,    16.31
      302.0,      16.28,    19.01,    15.88,    13.99,    16.26
      303.0,      16.23,    18.95,    15.84,    13.94,    16.21
      304.0,      16.18,    18.88,    15.79,    13.90,    16.16
      305.0,      16.13,    18.82,    15.75,    13.85,    16.11
      306.0,      16.08,    18.76,    15.70,    13.81,    16.05
      307.0,      16.03,    18.70,    15.66,    13.76,    16.00
      308.0,      15.98,    18.64,    15.61,    13.72,    15.95
      309.0,      15.93,    18.58,    15.57,    13.68,    15.90
      310.0,      15.88,    18.52,    15.53,    13.63,    15.85
