Radius (km), Mean (m/s), NE (m/s), SE (m/s), SW (m/s), NW (m/s)
        0.0,       0.00,     0.00,     0.00,     0.00,     0.00
        1.0,       1.67,     1.62,     1.68,     1.77,     1.62
        2.0,       2.99,     2.94,     3.00,     3.08,     2.94
        3.0,       4.20,     4.16,     4.21,     4.27,     4.16
        4.0,       5.34,     5.32,     5.35,     5.37,     5.32
        5.0,       6.44,     6.44,     6.45,     6.43,     6.44
        6.0,       7.50,     7.53,     7.51,     7.44,     7.53
        7.0,       8.54,     8.60,     8.54,     8.41,     8.60
        8.0,       9.55,     9.64,     9.55,     9.36,     9.64
        9.0,      10.54,    10.66,    10.54,    10.29,    10.66
       10.0,      11.51,    11.67,    11.51,    11.20,    11.67
       11.0,      12.47,    12.67,    12.46,    12.09,    12.67
       12.0,      13.41,    13.65,    13.40,    12.96,    13.65
       13.0,      14.34,    14.62,    14.33,    13.82,    14.62
       14.0,      15.26,    15.57,    15.25,    14.66,    15.57
       15.0,      16.17,    16.52,    16.15,    15.49,    16.52
       16.0,      17.07,    17.46,    17.05,    16.31,    17.46
       17.0,      17.96,    18.39,    17.93,    17.13,    18.39
       18.0,      18.84,    19.32,    18.81,    17.93,    19.32
       19.0,      19.72,    20.23,    19.68,    18.72,    20.23
       20.0,      20.58,    21.14,    20.54,    19.51,    21.14
       21.0,      21.45,    22.05,    21.40,    20.29,    22.05
       22.0,      22.32,    22.97,    22.28,    21.07,    22.96
       23.0,      23.23,    23.93,    23.21,    21.89,    23.91
       24.0,      24.22,    24.96,    24.23,    22.76,    24.92
       25.0,      25.30,    26.10,    25.36,    23.72,    26.02
       26.0,      26.48,    27.34,    26.60,    24.75,    27.21
       27.0,      27.73,    28.66,    27.93,    25.85,    28.48
       28.0,      29.03,    30.03,    29.31,    26.99,    29.80
       29.0,      30.31,    31.38,    30.66,    28.12,    31.10
       30.0,      31.52,    32.64,    31.91,    29.18,    32.34
       31.0,      32.57,    33.76,    32.98,    30.12,    33.44
       32.0,      33.44,    34.67,    33.83,    30.90,    34.36
       33.0,      34.08,    35.35,    34.42,    31.48,    35.07
       34.0,      34.49,    35.78,    34.74,    31.86,    35.56
       35.0,      34.67,    35.99,    34.82,    32.05,    35.83
       36.0,      34.67,    36.00,    34.69,    32.07,    35.92
       37.0,      34.52,    35.86,    34.40,    31.96,    35.86
       38.0,      34.28,    35.63,    34.02,    31.78,    35.71
       39.0,      33.99,    35.34,    33.59,    31.54,    35.50
       40.0,      33.69,    35.04,    33.14,    31.29,    35.28
       41.0,      33.39,    34.74,    32.71,    31.05,    35.06
       42.0,      33.10,    34.46,    32.30,    30.81,    34.85
       43.0,      32.83,    34.18,    31.90,    30.58,    34.65
       44.0,      32.56,    33.92,    31.52,    30.36,    34.46
       45.0,      32.30,    33.66,    31.14,    30.14,    34.26
       46.0,      32.05,    33.41,    30.78,    29.93,    34.07
       47.0,      31.79,    33.16,    30.42,    29.71,    33.88
       48.0,      31.54,    32.91,    30.07,    29.50,    33.70
       49.0,      31.30,    32.67,    29.73,    29.29,    33.51
       50.0,      31.06,    32.43,    29.39,    29.09,    33.33
       51.0,      30.82,    32.20,    29.06,    28.88,    33.14
       52.0,      30.59,    31.97,    28.75,    28.68,    32.96
       53.0,      30.36,    31.74,    28.43,    28.48,    32.78
       54.0,      30.14,    31.52,    28.13,    28.29,    32.61
       55.0,      29.91,    31.30,    27.83,    28.09,    32.43
       56.0,      29.70,    31.08,    27.54,    27.90,    32.26
       57.0,      29.48,    30.87,    27.26,    27.71,    32.09
       58.0,      29.27,    30.67,    26.98,    27.52,    31.92
       59.0,      29.06,    30.46,    26.71,    27.34,    31.75
       60.0,      28.86,    30.26,    26.44,    27.15,    31.58
       61.0,      28.66,    30.06,    26.18,    26.97,    31.42
       62.0,      28.46,    29.87,    25.93,    26.79,    31.25
       63.0,      28.27,    29.68,    25.68,    26.62,    31.09
       64.0,      28.07,    29.49,    25.44,    26.44,    30.93
       65.0,      27.89,    29.31,    25.20,    26.27,    30.77
       66.0,      27.70,    29.13,    24.97,    26.10,    30.61
       67.0,      27.52,    28.95,    24.74,    25.93,    30.46
       68.0,      27.34,    28.77,    24.52,    25.76,    30.30
       69.0,      27.16,    28.60,    24.30,    25.60,    30.15
       70.0,      26.99,    28.43,    24.09,    25.43,    30.00
       71.0,      26.82,    28.26,    23.89,    25.27,    29.85
       72.0,      26.65,    28.10,    23.68,    25.11,    29.70
       73.0,      26.48,    27.93,    23.49,    24.96,    29.55
       74.0,      26.32,    27.77,    23.29,    24.80,    29.40
       75.0,      26.16,    27.62,    23.10,    24.65,    29.26
       76.0,      26.00,    27.46,    22.92,    24.49,    29.12
       77.0,      25.84,    27.31,    22.74,    24.34,    28.97
       78.0,      25.69,    27.16,    22.56,    24.19,    28.83
       79.0,      25.54,    27.02,    22.39,    24.05,    28.69
       80.0,      25.39,    26.87,    22.22,    23.90,    28.56
       81.0,      25.24,    26.73,    22.05,    23.76,    28.42
       82.0,      25.09,    26.59,    21.89,    23.62,    28.28
       83.0,      24.95,    26.45,    21.73,    23.48,    28.15
       84.0,      24.81,    26.31,    21.58,    23.34,    28.02
       85.0,      24.67,    26.18,    21.43,    23.20,    27.88
       86.0,      24.54,    26.05,    21.28,    23.06,    27.75
       87.0,      24.40,    25.92,    21.13,    22.93,    27.62
       88.0,      24.27,    25.79,    20.99,    22.80,    27.50
       89.0,      24.14,    25.66,    20.85,    22.67,    27.37
       90.0,      24.01,    25.54,    20.72,    22.54,    27.24
       91.0,      23.88,    25.42,    20.58,    22.41,    27.12
       92.0,      23.76,    25.30,    20.45,    22.28,    26.99
       93.0,      23.63,    25.18,    20.33,    22.16,    26.87
       94.0,      23.51,    25.06,    20.20,    22.03,    26.75
       95.0,      23.39,    24.95,    20.08,    21.91,    26.63
       96.0,      23.27,    24.84,    19.96,    21.79,    26.51
       97.0,      23.16,    24.72,    19.84,    21.67,    26.39
       98.0,      23.04,    24.61,    19.73,    21.55,    26.28
       99.0,      22.93,    24.51,    19.62,    21.43,    26.16
      100.0,      22.82,    24.40,    19.51,    21.32,    26.05
      101.0,      22.71,    24.29,    19.40,    21.20,    25.93
      102.0,      22.60,    24.19,    19.29,    21.09,    25.82
      103.0,      22.49,    24.09,    19.19,    20.98,    25.71
      104.0,      22.38,    23.99,    19.09,    20.87,    25.60
      105.0,      22.28,    23.89,    18.99,    20.76,    25.49
      106.0,      22.18,    23.79,    18.89,    20.65,    25.38
      107.0,      22.08,    23.69,    18.80,    20.54,    25.27
      108.0,      21.98,    23.60,    18.70,    20.44,    25.16
      109.0,      21.88,    23.51,    18.61,    20.33,    25.06
      110.0,      21.78,    23.41,    18.52,    20.23,    24.95
      111.0,      21.68,    23.32,    18.44,    20.12,    24.85
      112.0,      21.59,    23.23,    18.35,    20.02,    24.74
      113.0,      21.49,    23.14,    18.27,    19.92,    24.64
      114.0,      21.40,    23.06,    18.18,    19.82,    24.54
      115.0,      21.31,    22.97,    18.10,    19.73,    24.44
      116.0,      21.22,    22.88,    18.02,    19.63,    24.34
      117.0,      21.13,    22.80,    17.95,    19.53,    24.24
      118.0,      21.04,    22.72,    17.87,    19.44,    24.14
      119.0,      20.96,    22.64,    17.80,    19.34,    24.05
      120.0,      20.87,    22.56,    17.72,    19.25,    23.95
      121.0,      20.79,    22.48,    17.65,    19.16,    23.85
      122.0,      20.70,    22.40,    17.58,    19.07,    23.76
      123.0,      20.62,    22.32,    17.51,    18.98,    23.67
      124.0,      20.54,    22.24,    17.44,    18.89,    23.57
      125.0,      20.46,    22.17,    17.38,    18.80,    23.48
      126.0,      20.38,    22.09,    17.31,    18.72,    23.39
      127.0,      20.30,    22.02,    17.25,    18.63,    23.30
      128.0,      20.22,    21.95,    17.18,    18.55,    23.21
      129.0,      20.14,    21.88,    17.12,    18.46,    23.12
      130.0,      20.07,    21.80,    17.06,    18.38,    23.03
      131.0,      19.99,    21.73,    17.00,    18.30,    22.94
      132.0,      19.92,    21.67,    16.94,    18.21,    22.86
      133.0,      19.85,    21.60,    16.89,    18.13,    22.77
      134.0,      19.77,    21.53,    16.83,    18.05,    22.69
      135.0,      19.70,    21.46,    16.77,    17.98,    22.60
      136.0,      19.63,    21.40,    16.72,    17.90,    22.52
      137.0,      19.56,    21.33,    16.67,    17.82,    22.43
      138.0,      19.49,    21.27,    16.61,    17.74,    22.35
      139.0,      19.43,    21.20,    16.56,    17.67,    22.27
      140.0,      19.36,    21.14,    16.51,    17.59,    22.19
      141.0,      19.29,    21.08,    16.46,    17.52,    22.11
      142.0,      19.23,    21.02,    16.41,    17.45,    22.03
      143.0,      19.16,    20.96,    16.37,    17.37,    21.95
      144.0,      19.10,    20.90,    16.32,    17.30,    21.87
      145.0,      19.03,    20.84,    16.27,    17.23,    21.79
      146.0,      18.97,    20.78,    16.23,    17.16,    21.72
      147.0,      18.91,    20.72,    16.18,    17.09,    21.64
      148.0,      18.85,    20.67,    16.14,    17.02,    21.56
      149.0,      18.79,    20.61,    16.09,    16.95,    21.49
      150.0,      18.73,    20.55,    16.05,    16.89,    21.41
      151.0,      18.67,    20.50,    16.01,    16.82,    21.34
      152.0,      18.61,    20.44,    15.97,    16.75,    21.27
      153.0,      18.55,    20.39,    15.93,    16.69,    21.19
      154.0,      18.49,    20.33,    15.89,    16.62,    21.12
      155.0,      18.43,    20.28,    15.85,    16.56,    21.05
      156.0,      18.38,    20.23,    15.81,    16.50,    20.98
      157.0,      18.32,    20.18,    15.77,    16.43,    20.91
      158.0,      18.27,    20.13,    15.73,    16.37,    20.84
      159.0,      18.21,    20.07,    15.69,    16.31,    20.77
      160.0,      18.16,    20.02,    15.66,    16.25,    20.70
      161.0,      18.10,    19.97,    15.62,    16.19,    20.63
      162.0,      18.05,    19.92,    15.59,    16.13,    20.56
      163.0,      18.00,    19.88,    15.55,    16.07,    20.49
      164.0,      17.95,    19.83,    15.52,    16.01,    20.43
      165.0,      17.89,    19.78,    15.48,    15.96,    20.36
      166.0,      17.84,    19.73,    15.45,    15.90,    20.29
      167.0,      17.79,    19.68,    15.41,    15.84,    20.23
      168.0,      17.74,    19.64,    15.38,    15.79,    20.16
      169.0,      17.69,    19.59,    15.35,    15.73,    20.10
      170.0,      17.64,    19.55,    15.32,    15.67,    20.04
      171.0,      17.60,    19.50,    15.29,    15.62,    19.97
      172.0,      17.55,    19.46,    15.26,    15.57,    19.91
      173.0,      17.50,    19.41,    15.23,    15.51,    19.85
      174.0,      17.45,    19.37,    15.20,    15.46,    19.79
      175.0,      17.41,    19.32,    15.17,    15.41,    19.72
      176.0,      17.36,    19.28,    15.14,    15.36,    19.66
      177.0,      17.31,    19.24,    15.11,    15.31,    19.60
      178.0,      17.27,    19.19,    15.08,    15.25,    19.54
      179.0,      17.22,    19.15,    15.05,    15.20,    19.48
      180.0,      17.18,    19.11,    15.02,    15.15,    19.42
      181.0,      17.13,    19.07,    14.99,    15.10,    19.37
      182.0,      17.09,    19.03,    14.97,    15.06,    19.31
      183.0,      17.05,    18.99,    14.94,    15.01,    19.25
      184.0,      17.00,    18.95,    14.91,    14.96,    19.19
      185.0,      16.96,    18.91,    14.89,    14.91,    19.14
      186.0,      16.92,    18.87,    14.86,    14.87,    19.08
      187.0,      16.88,    18.83,    14.84,    14.82,    19.02
      188.0,      16.83,    18.79,    14.81,    14.77,    18.97
      189.0,      16.79,    18.75,    14.79,    14.73,    18.91
      190.0,      16.75,    18.71,    14.76,    14.68,    18.86
      191.0,      16.71,    18.67,    14.74,    14.64,    18.80
      192.0,      16.67,    18.63,    14.71,    14.59,    18.75
      193.0,      16.63,    18.60,    14.69,    14.55,    18.69
      194.0,      16.59,    18.56,    14.66,    14.50,    18.64
      195.0,      16.55,    18.52,    14.64,    14.46,    18.59
      196.0,      16.51,    18.48,    14.62,    14.42,    18.54
      197.0,      16.47,    18.45,    14.59,    14.38,    18.48
      198.0,      16.44,    18.41,    14.57,    14.33,    18.43
      199.0,      16.40,    18.37,    14.55,    14.29,    18.38
      200.0,      16.36,    18.34,    14.53,    14.25,    18.33
      201.0,      16.32,    18.30,    14.50,    14.21,    18.28
      202.0,      16.29,    18.27,    14.48,    14.17,    18.23
      203.0,      16.25,    18.23,    14.46,    14.13,    18.18
      204.0,      16.21,    18.20,    14.44,    14.09,    18.13
      205.0,      16.18,    18.16,    14.42,    14.05,    18.08
      206.0,      16.14,    18.13,    14.39,    14.01,    18.03
      207.0,      16.11,    18.09,    14.37,    13.97,    17.98
      208.0,      16.07,    18.06,    14.35,    13.93,    17.93
      209.0,      16.03,    18.03,    14.33,    13.90,    17.88
      210.0,      16.00,    17.99,    14.31,    13.86,    17.84
      211.0,      15.97,    17.96,    14.29,    13.82,    17.79
      212.0,      15.93,    17.93,    14.27,    13.78,    17.74
      213.0,      15.90,    17.89,    14.25,    13.75,    17.69
      214.0,      15.86,    17.86,    14.23,    13.71,    17.65
      215.0,      15.83,    17.83,    14.21,    13.68,    17.60
      216.0,      15.80,    17.80,    14.19,    13.64,    17.56
      217.0,      15.76,    17.76,    14.17,    13.60,    17.51
      218.0,      15.73,    17.73,    14.15,    13.57,    17.47
      219.0,      15.70,    17.70,    14.13,    13.53,    17.42
      220.0,      15.66,    17.67,    14.11,    13.50,    17.38
      221.0,      15.63,    17.64,    14.10,    13.47,    17.33
      222.0,      15.60,    17.61,    14.08,    13.43,    17.29
      223.0,      15.57,    17.57,    14.06,    13.40,    17.24
      224.0,      15.54,    17.54,    14.04,    13.36,    17.20
      225.0,      15.51,    17.51,    14.02,    13.33,    17.16
      226.0,      15.47,    17.48,    14.00,    13.30,    17.11
      227.0,      15.44,    17.45,    13.99,    13.27,    17.07
      228.0,      15.41,    17.42,    13.97,    13.23,    17.03
      229.0,      15.38,    17.39,    13.95,    13.20,    16.99
      230.0,      15.35,    17.36,    13.93,    13.17,    16.94
      231.0,      15.32,    17.33,    13.91,    13.14,    16.90
      232.0,      15.29,    17.30,    13.90,    13.11,    16.86
      233.0,      15.26,    17.27,    13.88,    13.08,    16.82
      234.0,      15.23,    17.24,    13.86,    13.05,    16.78
      235.0,      15.20,    17.21,    13.84,    13.01,    16.74
      236.0,      15.17,    17.19,    13.83,    12.98,    16.70
      237.0,      15.15,    17.16,    13.81,    12.95,    16.66
      238.0,      15.12,    17.13,    13.79,    12.92,    16.62
      239.0,      15.09,    17.10,    13.78,    12.90,    16.58
      240.0,      15.06,    17.07,    13.76,    12.87,    16.54
      241.0,      15.03,    17.04,    13.74,    12.84,    16.50
      242.0,      15.00,    17.01,    13.73,    12.81,    16.46
      243.0,      14.97,    16.99,    13.71,    12.78,    16.42
      244.0,      14.95,    16.96,    13.69,    12.75,    16.39
      245.0,      14.92,    16.93,    13.68,    12.72,    16.35
      246.0,      14.89,    16.90,    13.66,    12.70,    16.31
      247.0,      14.86,    16.87,    13.65,    12.67,    16.27
      248.0,      14.84,    16.85,    13.63,    12.64,    16.23
      249.0,      14.81,    16.82,    13.61,    12.61,    16.20
      250.0,      14.78,    16.79,    13.60,    12.59,    16.16
      251.0,      14.76,    16.77,    13.58,    12.56,    16.12
      252.0,      14.73,    16.74,    13.57,    12.53,    16.09
      253.0,      14.70,    16.71,    13.55,    12.51,    16.05
      254.0,      14.68,    16.68,    13.53,    12.48,    16.01
      255.0,      14.65,    16.66,    13.52,    12.45,    15.98
      256.0,      14.63,    16.63,    13.50,    12.43,    15.94
      257.0,      14.60,    16.60,    13.49,    12.40,    15.91
      258.0,      14.57,    16.58,    13.47,    12.38,    15.87
      259.0,      14.55,    16.55,    13.46,    12.35,    15.84
      260.0,      14.52,    16.53,    13.44,    12.33,    15.80
      261.0,      14.50,    16.50,    13.43,    12.30,    15.77
      262.0,      14.47,    16.47,    13.41,    12.28,    15.73
      263.0,      14.45,    16.45,    13.40,    12.25,    15.70
      264.0,      14.42,    16.42,    13.38,    12.23,    15.66
      265.0,      14.40,    16.40,    13.37,    12.20,    15.63
      266.0,      14.37,    16.37,    13.35,    12.18,    15.59
      267.0,      14.35,    16.34,    13.34,    12.15,    15.56
      268.0,      14.32,    16.32,    13.32,    12.13,    15.53
      269.0,      14.30,    16.29,    13.31,    12.11,    15.49
      270.0,      14.28,    16.27,    13.29,    12.08,    15.46
      271.0,      14.25,    16.24,    13.28,    12.06,    15.43
      272.0,      14.23,    16.22,    13.26,    12.04,    15.39
      273.0,      14.20,    16.19,    13.25,    12.01,    15.36
      274.0,      14.18,    16.17,    13.23,    11.99,    15.33
      275.0,      14.16,    16.14,    13.22,    11.97,    15.30
      276.0,      14.13,    16.12,    13.20,    11.95,    15.26
      277.0,      14.11,    16.09,    13.19,    11.92,    15.23
      278.0,      14.09,    16.07,    13.18,    11.90,    15.20
      279.0,      14.06,    16.04,    13.16,    11.88,    15.17
      280.0,      14.04,    16.02,    13.15,    11.86,    15.14
      281.0,      14.02,    16.00,    13.13,    11.84,    15.11
      282.0,      14.00,    15.97,    13.12,    11.82,    15.08
      283.0,      13.97,    15.95,    13.10,    11.79,    15.04
      284.0,      13.95,    15.92,    13.09,    11.77,    15.01
      285.0,      13.93,    15.90,    13.08,    11.75,    14.98
      286.0,      13.90,    15.87,    13.06,    11.73,    14.95
      287.0,      13.88,    15.85,    13.05,    11.71,    14.92
      288.0,      13.86,    15.83,    13.03,    11.69,    14.89
      289.0,      13.84,    15.80,    13.02,    11.67,    14.86
      290.0,      13.82,    15.78,    13.01,    11.65,    14.83
      291.0,      13.79,    15.76,    12.99,    11.63,    14.80
      292.0,      13.77,    15.73,    12.98,    11.61,    14.77
      293.0,      13.75,    15.71,    12.96,    11.59,    14.74
      294.0,      13.73,    15.69,    12.95,    11.57,    14.71
      295.0,      13.71,    15.66,    12.94,    11.55,    14.68
      296.0,      13.69,    15.64,    12.92,    11.53,    14.66
      297.0,      13.66,    15.62,    12.91,    11.51,    14.63
      298.0,      13.64,    15.59,    12.90,    11.49,    14.60
      299.0,      13.62,    15.57,    12.88,    11.47,    14.57
      300.0,      13.60,    15.55,    12.87,    11.45,    14.54
      301.0,      13.58,    15.52,    12.86,    11.43,    14.51
      302.0,      13.56,    15.50,    12.84,    11.41,    14.48
      303.0,      13.54,    15.48,    12.83,    11.39,    14.46
      304.0,      13.52,    15.45,    12.81,    11.37,    14.43
      305.0,      13.50,    15.43,    12.80,    11.35,    14.40
      306.0,      13.48,    15.41,    12.79,    11.34,    14.37
      307.0,      13.46,    15.39,    12.77,    11.32,    14.34
      308.0,      13.44,    15.36,    12.76,    11.30,    14.32
      309.0,      13.41,    15.34,    12.75,    11.28,    14.29
      310.0,      13.39,    15.32,    12.73,    11.26,    14.26
