Radius (km), Mean (m/s), NE (m/s), SE (m/s), SW (m/s), NW (m/s)
        0.0,       0.00,     0.00,     0.00,     0.00,     0.00
        1.0,       1.06,     0.94,     0.96,     1.31,     1.05
        2.0,       2.01,     1.84,     1.87,     2.32,     1.99
        3.0,       2.91,     2.73,     2.76,     3.25,     2.90
        4.0,       3.79,     3.61,     3.65,     4.13,     3.79
        5.0,       4.66,     4.48,     4.52,     4.97,     4.66
        6.0,       5.51,     5.35,     5.38,     5.78,     5.51
        7.0,       6.35,     6.21,     6.24,     6.57,     6.36
        8.0,       7.18,     7.07,     7.10,     7.34,     7.20
        9.0,       8.00,     7.93,     7.95,     8.09,     8.03
       10.0,       8.82,     8.78,     8.80,     8.83,     8.85
       11.0,       9.63,     9.64,     9.65,     9.55,     9.67
       12.0,      10.43,    10.49,    10.49,    10.27,    10.48
       13.0,      11.23,    11.33,    11.33,    10.97,    11.29
       14.0,      12.03,    12.18,    12.17,    11.67,    12.09
       15.0,      12.82,    13.02,    13.00,    12.36,    12.89
       16.0,      13.60,    13.86,    13.83,    13.04,    13.68
       17.0,      14.39,    14.71,    14.66,    13.71,    14.47
       18.0,      15.17,    15.54,    15.49,    14.37,    15.26
       19.0,      15.94,    16.38,    16.32,    15.03,    16.04
       20.0,      16.72,    17.22,    17.15,    15.69,    16.82
       21.0,      17.49,    18.05,    17.97,    16.33,    17.60
       22.0,      18.26,    18.89,    18.79,    16.98,    18.38
       23.0,      19.02,    19.72,    19.61,    17.61,    19.15
       24.0,      19.79,    20.55,    20.43,    18.25,    19.92
       25.0,      20.55,    21.38,    21.25,    18.88,    20.69
       26.0,      21.31,    22.21,    22.07,    19.50,    21.45
       27.0,      22.07,    23.04,    22.88,    20.12,    22.22
       28.0,      22.82,    23.87,    23.70,    20.74,    22.98
       29.0,      23.57,    24.70,    24.51,    21.35,    23.74
       30.0,      24.33,    25.52,    25.32,    21.96,    24.50
       31.0,      25.08,    26.35,    26.14,    22.56,    25.25
       32.0,      25.82,    27.18,    26.95,    23.17,    26.01
       33.0,      26.57,    28.00,    27.76,    23.76,    26.76
       34.0,      27.31,    28.82,    28.57,    24.36,    27.51
       35.0,      28.06,    29.65,    29.37,    24.95,    28.26
       36.0,      28.80,    30.47,    30.18,    25.54,    29.00
       37.0,      29.54,    31.29,    30.99,    26.13,    29.75
       38.0,      30.28,    32.11,    31.79,    26.71,    30.49
       39.0,      31.01,    32.93,    32.60,    27.30,    31.24
       40.0,      31.75,    33.75,    33.40,    27.88,    31.98
       41.0,      32.49,    34.57,    34.20,    28.46,    32.72
       42.0,      33.24,    35.40,    35.02,    29.06,    33.47
       43.0,      34.03,    36.27,    35.89,    29.70,    34.26
       44.0,      34.89,    37.22,    36.82,    30.41,    35.11
       45.0,      35.85,    38.26,    37.86,    31.21,    36.06
       46.0,      36.90,    39.41,    39.00,    32.09,    37.11
       47.0,      38.03,    40.65,    40.22,    33.02,    38.24
       48.0,      39.19,    41.93,    41.47,    33.97,    39.41
       49.0,      40.32,    43.18,    42.69,    34.86,    40.55
       50.0,      41.34,    44.33,    43.79,    35.65,    41.60
       51.0,      42.19,    45.30,    44.72,    36.28,    42.48
       52.0,      42.82,    46.03,    45.42,    36.71,    43.13
       53.0,      43.20,    46.48,    45.86,    36.93,    43.52
       54.0,      43.32,    46.66,    46.03,    36.94,    43.65
       55.0,      43.21,    46.58,    45.95,    36.77,    43.52
       56.0,      42.90,    46.28,    45.67,    36.45,    43.19
       57.0,      42.46,    45.82,    45.26,    36.04,    42.71
       58.0,      41.93,    45.26,    44.75,    35.57,    42.14
       59.0,      41.38,    44.68,    44.22,    35.09,    41.54
       60.0,      40.84,    44.09,    43.70,    34.63,    40.95
       61.0,      40.33,    43.55,    43.20,    34.19,    40.39
       62.0,      39.86,    43.04,    42.75,    33.79,    39.86
       63.0,      39.41,    42.56,    42.31,    33.40,    39.38
       64.0,      38.99,    42.10,    41.90,    33.03,    38.91
       65.0,      38.57,    41.66,    41.50,    32.67,    38.46
       66.0,      38.18,    41.24,    41.12,    32.33,    38.03
       67.0,      37.79,    40.82,    40.74,    31.99,    37.61
       68.0,      37.42,    40.42,    40.37,    31.67,    37.20
       69.0,      37.05,    40.03,    40.02,    31.36,    36.80
       70.0,      36.70,    39.65,    39.68,    31.06,    36.42
       71.0,      36.36,    39.29,    39.34,    30.76,    36.05
       72.0,      36.03,    38.93,    39.02,    30.48,    35.69
       73.0,      35.71,    38.58,    38.70,    30.21,    35.34
       74.0,      35.40,    38.25,    38.39,    29.95,    35.00
       75.0,      35.10,    37.92,    38.09,    29.69,    34.68
       76.0,      34.80,    37.60,    37.80,    29.44,    34.36
       77.0,      34.52,    37.29,    37.52,    29.20,    34.05
       78.0,      34.24,    36.99,    37.25,    28.97,    33.75
       79.0,      33.97,    36.70,    36.98,    28.75,    33.46
       80.0,      33.71,    36.41,    36.72,    28.53,    33.18
       81.0,      33.45,    36.13,    36.46,    28.32,    32.90
       82.0,      33.21,    35.86,    36.21,    28.12,    32.64
       83.0,      32.97,    35.60,    35.97,    27.92,    32.38
       84.0,      32.73,    35.34,    35.73,    27.72,    32.12
       85.0,      32.50,    35.09,    35.50,    27.54,    31.88
       86.0,      32.28,    34.85,    35.28,    27.36,    31.64
       87.0,      32.06,    34.61,    35.06,    27.18,    31.41
       88.0,      31.85,    34.38,    34.84,    27.01,    31.18
       89.0,      31.65,    34.15,    34.63,    26.85,    30.96
       90.0,      31.45,    33.93,    34.43,    26.68,    30.74
       91.0,      31.25,    33.71,    34.23,    26.53,    30.54
       92.0,      31.06,    33.50,    34.03,    26.38,    30.33
       93.0,      30.87,    33.29,    33.84,    26.23,    30.13
       94.0,      30.69,    33.09,    33.65,    26.08,    29.94
       95.0,      30.51,    32.89,    33.47,    25.95,    29.75
       96.0,      30.34,    32.70,    33.29,    25.81,    29.56
       97.0,      30.17,    32.51,    33.11,    25.68,    29.38
       98.0,      30.00,    32.32,    32.94,    25.55,    29.21
       99.0,      29.84,    32.14,    32.77,    25.42,    29.03
      100.0,      29.68,    31.96,    32.60,    25.30,    28.86
      101.0,      29.53,    31.78,    32.44,    25.18,    28.70
      102.0,      29.37,    31.61,    32.28,    25.06,    28.54
      103.0,      29.22,    31.44,    32.12,    24.95,    28.38
      104.0,      29.08,    31.28,    31.97,    24.84,    28.23
      105.0,      28.93,    31.12,    31.82,    24.73,    28.07
      106.0,      28.79,    30.96,    31.67,    24.62,    27.93
      107.0,      28.66,    30.80,    31.52,    24.52,    27.78
      108.0,      28.52,    30.65,    31.37,    24.42,    27.64
      109.0,      28.39,    30.50,    31.23,    24.32,    27.50
      110.0,      28.26,    30.35,    31.09,    24.22,    27.36
      111.0,      28.13,    30.20,    30.96,    24.13,    27.23
      112.0,      28.00,    30.06,    30.82,    24.04,    27.09
      113.0,      27.88,    29.92,    30.69,    23.95,    26.96
      114.0,      27.76,    29.78,    30.56,    23.86,    26.84
      115.0,      27.64,    29.64,    30.43,    23.77,    26.71
      116.0,      27.52,    29.51,    30.30,    23.68,    26.59
      117.0,      27.40,    29.37,    30.17,    23.60,    26.47
      118.0,      27.29,    29.24,    30.05,    23.52,    26.35
      119.0,      27.18,    29.11,    29.93,    23.44,    26.23
      120.0,      27.07,    28.99,    29.81,    23.36,    26.12
      121.0,      26.96,    28.86,    29.69,    23.28,    26.00
      122.0,      26.85,    28.74,    29.57,    23.21,    25.89
      123.0,      26.74,    28.61,    29.45,    23.13,    25.78
      124.0,      26.64,    28.49,    29.34,    23.06,    25.67
      125.0,      26.54,    28.37,    29.22,    22.98,    25.57
      126.0,      26.44,    28.26,    29.11,    22.91,    25.46
      127.0,      26.34,    28.14,    29.00,    22.84,    25.36
      128.0,      26.24,    28.02,    28.89,    22.77,    25.26
      129.0,      26.14,    27.91,    28.78,    22.71,    25.15
      130.0,      26.04,    27.80,    28.68,    22.64,    25.05
      131.0,      25.95,    27.69,    28.57,    22.57,    24.96
      132.0,      25.85,    27.58,    28.46,    22.51,    24.86
      133.0,      25.76,    27.47,    28.36,    22.44,    24.76
      134.0,      25.67,    27.36,    28.26,    22.38,    24.67
      135.0,      25.58,    27.25,    28.16,    22.32,    24.57
      136.0,      25.49,    27.15,    28.05,    22.26,    24.48
      137.0,      25.40,    27.04,    27.95,    22.20,    24.39
      138.0,      25.31,    26.94,    27.85,    22.14,    24.30
      139.0,      25.22,    26.84,    27.76,    22.08,    24.21
      140.0,      25.13,    26.74,    27.66,    22.02,    24.12
      141.0,      25.05,    26.64,    27.56,    21.96,    24.03
      142.0,      24.96,    26.54,    27.47,    21.90,    23.95
      143.0,      24.88,    26.44,    27.37,    21.85,    23.86
      144.0,      24.80,    26.34,    27.28,    21.79,    23.77
      145.0,      24.71,    26.24,    27.18,    21.74,    23.69
      146.0,      24.63,    26.15,    27.09,    21.68,    23.61
      147.0,      24.55,    26.05,    27.00,    21.63,    23.52
      148.0,      24.47,    25.96,    26.91,    21.57,    23.44
      149.0,      24.39,    25.86,    26.81,    21.52,    23.36
      150.0,      24.31,    25.77,    26.72,    21.47,    23.28
      151.0,      24.23,    25.68,    26.63,    21.42,    23.20
      152.0,      24.15,    25.58,    26.55,    21.36,    23.12
      153.0,      24.08,    25.49,    26.46,    21.31,    23.04
      154.0,      24.00,    25.40,    26.37,    21.26,    22.96
      155.0,      23.92,    25.31,    26.28,    21.21,    22.88
      156.0,      23.85,    25.22,    26.20,    21.16,    22.81
      157.0,      23.77,    25.13,    26.11,    21.11,    22.73
      158.0,      23.70,    25.05,    26.02,    21.06,    22.65
      159.0,      23.62,    24.96,    25.94,    21.01,    22.58
      160.0,      23.55,    24.87,    25.85,    20.97,    22.50
      161.0,      23.48,    24.78,    25.77,    20.92,    22.43
      162.0,      23.40,    24.70,    25.69,    20.87,    22.36
      163.0,      23.33,    24.61,    25.60,    20.82,    22.28
      164.0,      23.26,    24.53,    25.52,    20.78,    22.21
      165.0,      23.19,    24.44,    25.44,    20.73,    22.14
      166.0,      23.12,    24.36,    25.36,    20.68,    22.07
      167.0,      23.05,    24.28,    25.27,    20.64,    21.99
      168.0,      22.98,    24.19,    25.19,    20.59,    21.92
      169.0,      22.91,    24.11,    25.11,    20.55,    21.85
      170.0,      22.84,    24.03,    25.03,    20.50,    21.78
      171.0,      22.77,    23.95,    24.95,    20.46,    21.71
      172.0,      22.70,    23.86,    24.87,    20.41,    21.64
      173.0,      22.63,    23.78,    24.80,    20.37,    21.57
      174.0,      22.56,    23.70,    24.72,    20.32,    21.51
      175.0,      22.49,    23.62,    24.64,    20.28,    21.44
      176.0,      22.43,    23.54,    24.56,    20.23,    21.37
      177.0,      22.36,    23.46,    24.48,    20.19,    21.30
      178.0,      22.29,    23.39,    24.41,    20.15,    21.24
      179.0,      22.23,    23.31,    24.33,    20.10,    21.17
      180.0,      22.16,    23.23,    24.25,    20.06,    21.10
      181.0,      22.10,    23.15,    24.18,    20.02,    21.04
      182.0,      22.03,    23.07,    24.10,    19.98,    20.97
      183.0,      21.97,    23.00,    24.03,    19.93,    20.90
      184.0,      21.90,    22.92,    23.95,    19.89,    20.84
      185.0,      21.84,    22.84,    23.88,    19.85,    20.77
      186.0,      21.77,    22.77,    23.80,    19.81,    20.71
      187.0,      21.71,    22.69,    23.73,    19.77,    20.65
      188.0,      21.64,    22.62,    23.65,    19.72,    20.58
      189.0,      21.58,    22.54,    23.58,    19.68,    20.52
      190.0,      21.52,    22.47,    23.51,    19.64,    20.45
      191.0,      21.45,    22.39,    23.43,    19.60,    20.39
      192.0,      21.39,    22.32,    23.36,    19.56,    20.33
      193.0,      21.33,    22.25,    23.29,    19.52,    20.27
      194.0,      21.27,    22.17,    23.22,    19.48,    20.20
      195.0,      21.21,    22.10,    23.14,    19.44,    20.14
      196.0,      21.14,    22.03,    23.07,    19.40,    20.08
      197.0,      21.08,    21.96,    23.00,    19.36,    20.02
      198.0,      21.02,    21.88,    22.93,    19.32,    19.96
      199.0,      20.96,    21.81,    22.86,    19.28,    19.90
      200.0,      20.90,    21.74,    22.79,    19.24,    19.83
      201.0,      20.84,    21.67,    22.72,    19.20,    19.77
      202.0,      20.78,    21.60,    22.65,    19.16,    19.71
      203.0,      20.72,    21.53,    22.58,    19.12,    19.65
      204.0,      20.66,    21.46,    22.51,    19.08,    19.59
      205.0,      20.60,    21.39,    22.44,    19.04,    19.53
      206.0,      20.54,    21.32,    22.37,    19.00,    19.47
      207.0,      20.48,    21.25,    22.30,    18.96,    19.42
      208.0,      20.42,    21.18,    22.24,    18.92,    19.36
      209.0,      20.36,    21.11,    22.17,    18.89,    19.30
      210.0,      20.31,    21.04,    22.10,    18.85,    19.24
      211.0,      20.25,    20.97,    22.03,    18.81,    19.18
      212.0,      20.19,    20.90,    21.96,    18.77,    19.12
      213.0,      20.13,    20.83,    21.90,    18.73,    19.06
      214.0,      20.07,    20.77,    21.83,    18.69,    19.01
      215.0,      20.02,    20.70,    21.76,    18.66,    18.95
      216.0,      19.96,    20.63,    21.70,    18.62,    18.89
      217.0,      19.90,    20.57,    21.63,    18.58,    18.83
      218.0,      19.85,    20.50,    21.56,    18.54,    18.78
      219.0,      19.79,    20.43,    21.50,    18.51,    18.72
      220.0,      19.73,    20.37,    21.43,    18.47,    18.66
      221.0,      19.68,    20.30,    21.37,    18.43,    18.61
      222.0,      19.62,    20.23,    21.30,    18.39,    18.55
      223.0,      19.56,    20.17,    21.24,    18.36,    18.50
      224.0,      19.51,    20.10,    21.17,    18.32,    18.44
      225.0,      19.45,    20.04,    21.11,    18.28,    18.38
      226.0,      19.40,    19.97,    21.04,    18.25,    18.33
      227.0,      19.34,    19.91,    20.98,    18.21,    18.27
      228.0,      19.29,    19.84,    20.92,    18.17,    18.22
      229.0,      19.23,    19.78,    20.85,    18.14,    18.16
      230.0,      19.18,    19.71,    20.79,    18.10,    18.11
      231.0,      19.12,    19.65,    20.73,    18.06,    18.06
      232.0,      19.07,    19.59,    20.66,    18.03,    18.00
      233.0,      19.02,    19.52,    20.60,    17.99,    17.95
      234.0,      18.96,    19.46,    20.54,    17.95,    17.89
      235.0,      18.91,    19.40,    20.47,    17.92,    17.84
      236.0,      18.85,    19.34,    20.41,    17.88,    17.79
      237.0,      18.80,    19.27,    20.35,    17.85,    17.73
      238.0,      18.75,    19.21,    20.29,    17.81,    17.68
      239.0,      18.69,    19.15,    20.23,    17.77,    17.63
      240.0,      18.64,    19.09,    20.16,    17.74,    17.57
      241.0,      18.59,    19.02,    20.10,    17.70,    17.52
      242.0,      18.54,    18.96,    20.04,    17.67,    17.47
      243.0,      18.48,    18.90,    19.98,    17.63,    17.42
      244.0,      18.43,    18.84,    19.92,    17.60,    17.36
      245.0,      18.38,    18.78,    19.86,    17.56,    17.31
      246.0,      18.33,    18.72,    19.80,    17.53,    17.26
      247.0,      18.27,    18.66,    19.74,    17.49,    17.21
      248.0,      18.22,    18.60,    19.68,    17.46,    17.16
      249.0,      18.17,    18.54,    19.62,    17.42,    17.10
      250.0,      18.12,    18.48,    19.56,    17.39,    17.05
      251.0,      18.07,    18.42,    19.50,    17.35,    17.00
      252.0,      18.02,    18.36,    19.44,    17.32,    16.95
      253.0,      17.97,    18.30,    19.38,    17.28,    16.90
      254.0,      17.92,    18.24,    19.32,    17.25,    16.85
      255.0,      17.87,    18.18,    19.27,    17.21,    16.80
      256.0,      17.82,    18.12,    19.21,    17.18,    16.75
      257.0,      17.76,    18.07,    19.15,    17.14,    16.70
      258.0,      17.71,    18.01,    19.09,    17.11,    16.65
      259.0,      17.66,    17.95,    19.03,    17.08,    16.60
      260.0,      17.61,    17.89,    18.97,    17.04,    16.55
      261.0,      17.57,    17.83,    18.92,    17.01,    16.50
      262.0,      17.52,    17.78,    18.86,    16.97,    16.45
      263.0,      17.47,    17.72,    18.80,    16.94,    16.40
      264.0,      17.42,    17.66,    18.75,    16.91,    16.35
      265.0,      17.37,    17.61,    18.69,    16.87,    16.30
      266.0,      17.32,    17.55,    18.63,    16.84,    16.26
      267.0,      17.27,    17.49,    18.58,    16.81,    16.21
      268.0,      17.22,    17.44,    18.52,    16.77,    16.16
      269.0,      17.17,    17.38,    18.46,    16.74,    16.11
      270.0,      17.12,    17.32,    18.41,    16.71,    16.06
      271.0,      17.08,    17.27,    18.35,    16.67,    16.01
      272.0,      17.03,    17.21,    18.30,    16.64,    15.97
      273.0,      16.98,    17.16,    18.24,    16.61,    15.92
      274.0,      16.93,    17.10,    18.19,    16.57,    15.87
      275.0,      16.88,    17.05,    18.13,    16.54,    15.82
      276.0,      16.84,    16.99,    18.08,    16.51,    15.78
      277.0,      16.79,    16.94,    18.02,    16.47,    15.73
      278.0,      16.74,    16.88,    17.97,    16.44,    15.68
      279.0,      16.70,    16.83,    17.91,    16.41,    15.64
      280.0,      16.65,    16.77,    17.86,    16.37,    15.59
      281.0,      16.60,    16.72,    17.80,    16.34,    15.54
      282.0,      16.55,    16.67,    17.75,    16.31,    15.50
      283.0,      16.51,    16.61,    17.70,    16.28,    15.45
      284.0,      16.46,    16.56,    17.64,    16.24,    15.40
      285.0,      16.42,    16.51,    17.59,    16.21,    15.36
      286.0,      16.37,    16.45,    17.53,    16.18,    15.31
      287.0,      16.32,    16.40,    17.48,    16.15,    15.27
      288.0,      16.28,    16.35,    17.43,    16.12,    15.22
      289.0,      16.23,    16.29,    17.38,    16.08,    15.17
      290.0,      16.19,    16.24,    17.32,    16.05,    15.13
      291.0,      16.14,    16.19,    17.27,    16.02,    15.08
      292.0,      16.10,    16.14,    17.22,    15.99,    15.04
      293.0,      16.05,    16.09,    17.17,    15.96,    14.99
      294.0,      16.01,    16.03,    17.11,    15.92,    14.95
      295.0,      15.96,    15.98,    17.06,    15.89,    14.90
      296.0,      15.92,    15.93,    17.01,    15.86,    14.86
      297.0,      15.87,    15.88,    16.96,    15.83,    14.82
      298.0,      15.83,    15.83,    16.91,    15.80,    14.77
      299.0,      15.78,    15.78,    16.86,    15.77,    14.73
      300.0,      15.74,    15.73,    16.81,    15.73,    14.68
      301.0,      15.69,    15.68,    16.75,    15.70,    14.64
      302.0,      15.65,    15.63,    16.70,    15.67,    14.60
      303.0,      15.61,    15.57,    16.65,    15.64,    14.55
      304.0,      15.56,    15.52,    16.60,    15.61,    14.51
      305.0,      15.52,    15.47,    16.55,    15.58,    14.47
      306.0,      15.47,    15.42,    16.50,    15.55,    14.42
      307.0,      15.43,    15.38,    16.45,    15.52,    14.38
      308.0,      15.39,    15.33,    16.40,    15.49,    14.34
      309.0,      15.34,    15.28,    16.35,    15.45,    14.29
      310.0,      15.30,    15.23,    16.30,    15.42,    14.25
