Radius (km), Mean (m/s), NE (m/s), SE (m/s), SW (m/s), NW (m/s)
        0.0,       0.00,     0.00,     0.00,     0.00,     0.00
        1.0,       0.88,     0.74,     0.77,     0.98,     1.03
        2.0,       1.50,     1.33,     1.36,     1.63,     1.70
        3.0,       2.06,     1.87,     1.90,     2.20,     2.27
        4.0,       2.57,     2.38,     2.41,     2.72,     2.79
        5.0,       3.06,     2.86,     2.90,     3.21,     3.27
        6.0,       3.53,     3.34,     3.38,     3.67,     3.72
        7.0,       3.98,     3.80,     3.84,     4.11,     4.16
        8.0,       4.41,     4.25,     4.28,     4.54,     4.57
        9.0,       4.83,     4.69,     4.72,     4.95,     4.98
       10.0,       5.25,     5.12,     5.15,     5.35,     5.36
       11.0,       5.65,     5.55,     5.58,     5.74,     5.74
       12.0,       6.05,     5.97,     5.99,     6.12,     6.11
       13.0,       6.44,     6.38,     6.41,     6.49,     6.47
       14.0,       6.82,     6.79,     6.81,     6.85,     6.82
       15.0,       7.20,     7.20,     7.21,     7.21,     7.17
       16.0,       7.57,     7.60,     7.61,     7.56,     7.51
       17.0,       7.94,     7.99,     8.00,     7.91,     7.84
       18.0,       8.30,     8.39,     8.39,     8.25,     8.17
       19.0,       8.65,     8.78,     8.77,     8.58,     8.49
       20.0,       9.01,     9.16,     9.15,     8.91,     8.81
       21.0,       9.36,     9.54,     9.53,     9.24,     9.12
       22.0,       9.70,     9.92,     9.90,     9.56,     9.43
       23.0,      10.05,    10.30,    10.28,     9.88,     9.73
       24.0,      10.39,    10.68,    10.64,    10.20,    10.03
       25.0,      10.72,    11.05,    11.01,    10.51,    10.33
       26.0,      11.06,    11.42,    11.37,    10.82,    10.62
       27.0,      11.39,    11.78,    11.74,    11.12,    10.91
       28.0,      11.72,    12.15,    12.09,    11.42,    11.20
       29.0,      12.04,    12.51,    12.45,    11.72,    11.49
       30.0,      12.37,    12.87,    12.81,    12.02,    11.77
       31.0,      12.69,    13.23,    13.16,    12.31,    12.05
       32.0,      13.01,    13.59,    13.51,    12.60,    12.32
       33.0,      13.32,    13.94,    13.86,    12.89,    12.60
       34.0,      13.64,    14.30,    14.20,    13.18,    12.87
       35.0,      13.95,    14.65,    14.55,    13.47,    13.14
       36.0,      14.26,    15.00,    14.89,    13.75,    13.41
       37.0,      14.57,    15.35,    15.24,    14.03,    13.67
       38.0,      14.88,    15.69,    15.58,    14.31,    13.94
       39.0,      15.18,    16.04,    15.91,    14.58,    14.20
       40.0,      15.49,    16.38,    16.25,    14.86,    14.46
       41.0,      15.79,    16.73,    16.59,    15.13,    14.71
       42.0,      16.09,    17.07,    16.92,    15.40,    14.97
       43.0,      16.39,    17.41,    17.26,    15.67,    15.22
       44.0,      16.69,    17.75,    17.59,    15.94,    15.48
       45.0,      16.98,    18.09,    17.92,    16.21,    15.73
       46.0,      17.28,    18.42,    18.25,    16.47,    15.98
       47.0,      17.57,    18.76,    18.57,    16.74,    16.22
       48.0,      17.86,    19.09,    18.90,    17.00,    16.47
       49.0,      18.16,    19.42,    19.23,    17.26,    16.71
       50.0,      18.45,    19.76,    19.55,    17.52,    16.96
       51.0,      18.73,    20.09,    19.88,    17.77,    17.20
       52.0,      19.02,    20.42,    20.20,    18.03,    17.44
       53.0,      19.31,    20.75,    20.52,    18.29,    17.68
       54.0,      19.59,    21.07,    20.84,    18.54,    17.92
       55.0,      19.88,    21.40,    21.16,    18.79,    18.15
       56.0,      20.16,    21.73,    21.48,    19.04,    18.39
       57.0,      20.44,    22.05,    21.79,    19.29,    18.62
       58.0,      20.72,    22.37,    22.11,    19.54,    18.85
       59.0,      21.00,    22.70,    22.43,    19.79,    19.09
       60.0,      21.28,    23.02,    22.74,    20.04,    19.32
       61.0,      21.56,    23.34,    23.05,    20.28,    19.55
       62.0,      21.83,    23.66,    23.37,    20.53,    19.78
       63.0,      22.11,    23.98,    23.68,    20.77,    20.00
       64.0,      22.38,    24.30,    23.99,    21.01,    20.23
       65.0,      22.66,    24.62,    24.30,    21.25,    20.46
       66.0,      22.93,    24.94,    24.61,    21.50,    20.68
       67.0,      23.20,    25.25,    24.92,    21.73,    20.90
       68.0,      23.47,    25.57,    25.22,    21.97,    21.13
       69.0,      23.74,    25.88,    25.53,    22.21,    21.35
       70.0,      24.01,    26.20,    25.84,    22.45,    21.57
       71.0,      24.28,    26.51,    26.14,    22.68,    21.79
       72.0,      24.55,    26.82,    26.45,    22.92,    22.01
       73.0,      24.82,    27.13,    26.75,    23.15,    22.23
       74.0,      25.08,    27.45,    27.05,    23.39,    22.44
       75.0,      25.35,    27.76,    27.36,    23.62,    22.66
       76.0,      25.61,    28.07,    27.66,    23.85,    22.87
       77.0,      25.88,    28.38,    27.96,    24.08,    23.09
       78.0,      26.14,    28.69,    28.26,    24.31,    23.30
       79.0,      26.40,    28.99,    28.56,    24.54,    23.52
       80.0,      26.66,    29.30,    28.86,    24.77,    23.73
       81.0,      26.93,    29.61,    29.16,    25.00,    23.94
       82.0,      27.19,    29.91,    29.46,    25.23,    24.15
       83.0,      27.45,    30.22,    29.75,    25.45,    24.36
       84.0,      27.71,    30.52,    30.05,    25.68,    24.57
       85.0,      27.96,    30.83,    30.35,    25.90,    24.78
       86.0,      28.22,    31.13,    30.64,    26.13,    24.99
       87.0,      28.48,    31.44,    30.94,    26.35,    25.20
       88.0,      28.74,    31.74,    31.23,    26.57,    25.40
       89.0,      28.99,    32.04,    31.52,    26.80,    25.61
       90.0,      29.25,    32.34,    31.82,    27.02,    25.81
       91.0,      29.50,    32.64,    32.11,    27.24,    26.02
       92.0,      29.76,    32.94,    32.40,    27.46,    26.22
       93.0,      30.01,    33.24,    32.69,    27.68,    26.43
       94.0,      30.26,    33.54,    32.98,    27.90,    26.63
       95.0,      30.52,    33.84,    33.27,    28.12,    26.83
       96.0,      30.77,    34.14,    33.56,    28.33,    27.03
       97.0,      31.02,    34.44,    33.86,    28.55,    27.24
       98.0,      31.29,    34.75,    34.17,    28.78,    27.45
       99.0,      31.58,    35.08,    34.53,    29.03,    27.69
      100.0,      31.92,    35.45,    34.94,    29.33,    27.97
      101.0,      32.32,    35.86,    35.42,    29.69,    28.31
      102.0,      32.77,    36.33,    35.95,    30.12,    28.69
      103.0,      33.26,    36.83,    36.52,    30.58,    29.11
      104.0,      33.75,    37.33,    37.09,    31.06,    29.54
      105.0,      34.22,    37.81,    37.61,    31.51,    29.93
      106.0,      34.60,    38.24,    38.03,    31.89,    30.25
      107.0,      34.87,    38.56,    38.32,    32.15,    30.47
      108.0,      35.01,    38.77,    38.46,    32.25,    30.56
      109.0,      35.00,    38.85,    38.43,    32.20,    30.52
      110.0,      34.84,    38.80,    38.25,    31.98,    30.34
      111.0,      34.56,    38.62,    37.93,    31.61,    30.05
      112.0,      34.17,    38.36,    37.52,    31.14,    29.68
      113.0,      33.73,    38.02,    37.05,    30.59,    29.25
      114.0,      33.25,    37.65,    36.55,    30.00,    28.80
      115.0,      32.77,    37.27,    36.05,    29.41,    28.34
      116.0,      32.31,    36.90,    35.57,    28.84,    27.91
      117.0,      31.87,    36.54,    35.12,    28.31,    27.50
      118.0,      31.45,    36.20,    34.70,    27.81,    27.11
      119.0,      31.06,    35.87,    34.29,    27.34,    26.75
      120.0,      30.68,    35.55,    33.90,    26.89,    26.40
      121.0,      30.32,    35.24,    33.52,    26.45,    26.06
      122.0,      29.96,    34.93,    33.15,    26.04,    25.74
      123.0,      29.62,    34.62,    32.80,    25.64,    25.43
      124.0,      29.29,    34.32,    32.45,    25.25,    25.13
      125.0,      28.97,    34.03,    32.12,    24.88,    24.84
      126.0,      28.66,    33.74,    31.80,    24.52,    24.56
      127.0,      28.35,    33.45,    31.49,    24.18,    24.30
      128.0,      28.06,    33.17,    31.19,    23.85,    24.04
      129.0,      27.78,    32.90,    30.90,    23.53,    23.79
      130.0,      27.50,    32.63,    30.62,    23.22,    23.55
      131.0,      27.24,    32.36,    30.34,    22.93,    23.32
      132.0,      26.98,    32.10,    30.08,    22.64,    23.10
      133.0,      26.73,    31.84,    29.82,    22.37,    22.88
      134.0,      26.49,    31.59,    29.58,    22.10,    22.68
      135.0,      26.25,    31.34,    29.34,    21.85,    22.48
      136.0,      26.02,    31.10,    29.10,    21.61,    22.28
      137.0,      25.80,    30.86,    28.88,    21.37,    22.10
      138.0,      25.59,    30.62,    28.66,    21.14,    21.92
      139.0,      25.38,    30.39,    28.45,    20.92,    21.75
      140.0,      25.17,    30.16,    28.25,    20.71,    21.58
      141.0,      24.98,    29.93,    28.05,    20.51,    21.42
      142.0,      24.79,    29.71,    27.86,    20.31,    21.27
      143.0,      24.60,    29.49,    27.67,    20.13,    21.12
      144.0,      24.42,    29.28,    27.49,    19.94,    20.97
      145.0,      24.25,    29.07,    27.31,    19.77,    20.83
      146.0,      24.08,    28.86,    27.14,    19.60,    20.70
      147.0,      23.91,    28.66,    26.98,    19.44,    20.57
      148.0,      23.75,    28.45,    26.82,    19.28,    20.44
      149.0,      23.59,    28.26,    26.67,    19.13,    20.32
      150.0,      23.44,    28.06,    26.52,    18.98,    20.20
      151.0,      23.29,    27.87,    26.37,    18.84,    20.09
      152.0,      23.15,    27.68,    26.23,    18.70,    19.98
      153.0,      23.01,    27.50,    26.09,    18.57,    19.88
      154.0,      22.87,    27.32,    25.96,    18.44,    19.77
      155.0,      22.74,    27.14,    25.83,    18.32,    19.67
      156.0,      22.61,    26.96,    25.70,    18.20,    19.58
      157.0,      22.49,    26.79,    25.58,    18.09,    19.49
      158.0,      22.36,    26.62,    25.46,    17.98,    19.40
      159.0,      22.24,    26.45,    25.35,    17.87,    19.31
      160.0,      22.13,    26.28,    25.23,    17.77,    19.22
      161.0,      22.01,    26.12,    25.13,    17.67,    19.14
      162.0,      21.90,    25.96,    25.02,    17.57,    19.06
      163.0,      21.80,    25.80,    24.92,    17.48,    18.99
      164.0,      21.69,    25.65,    24.82,    17.39,    18.91
      165.0,      21.59,    25.50,    24.72,    17.30,    18.84
      166.0,      21.49,    25.35,    24.63,    17.22,    18.77
      167.0,      21.39,    25.20,    24.53,    17.14,    18.70
      168.0,      21.30,    25.05,    24.44,    17.06,    18.64
      169.0,      21.20,    24.91,    24.36,    16.98,    18.57
      170.0,      21.11,    24.77,    24.27,    16.91,    18.51
      171.0,      21.03,    24.63,    24.19,    16.83,    18.45
      172.0,      20.94,    24.49,    24.11,    16.77,    18.39
      173.0,      20.86,    24.36,    24.03,    16.70,    18.33
      174.0,      20.77,    24.23,    23.95,    16.63,    18.28
      175.0,      20.69,    24.10,    23.88,    16.57,    18.23
      176.0,      20.61,    23.97,    23.80,    16.51,    18.17
      177.0,      20.54,    23.84,    23.73,    16.45,    18.12
      178.0,      20.46,    23.72,    23.66,    16.39,    18.07
      179.0,      20.39,    23.60,    23.60,    16.33,    18.02
      180.0,      20.32,    23.48,    23.53,    16.28,    17.98
      181.0,      20.24,    23.36,    23.46,    16.23,    17.93
      182.0,      20.18,    23.24,    23.40,    16.17,    17.89
      183.0,      20.11,    23.13,    23.34,    16.12,    17.84
      184.0,      20.04,    23.01,    23.28,    16.07,    17.80
      185.0,      19.98,    22.90,    23.22,    16.03,    17.76
      186.0,      19.91,    22.79,    23.16,    15.98,    17.72
      187.0,      19.85,    22.68,    23.11,    15.94,    17.68
      188.0,      19.79,    22.58,    23.05,    15.89,    17.64
      189.0,      19.73,    22.47,    23.00,    15.85,    17.60
      190.0,      19.67,    22.37,    22.94,    15.81,    17.56
      191.0,      19.61,    22.27,    22.89,    15.77,    17.53
      192.0,      19.56,    22.17,    22.84,    15.73,    17.49
      193.0,      19.50,    22.07,    22.79,    15.69,    17.46
      194.0,      19.45,    21.97,    22.74,    15.65,    17.42
      195.0,      19.39,    21.87,    22.70,    15.62,    17.39
      196.0,      19.34,    21.78,    22.65,    15.58,    17.36
      197.0,      19.29,    21.69,    22.60,    15.54,    17.32
      198.0,      19.24,    21.59,    22.56,    15.51,    17.29
      199.0,      19.19,    21.50,    22.51,    15.48,    17.26
      200.0,      19.14,    21.41,    22.47,    15.44,    17.23
      201.0,      19.09,    21.33,    22.43,    15.41,    17.20
      202.0,      19.04,    21.24,    22.38,    15.38,    17.17
      203.0,      19.00,    21.15,    22.34,    15.35,    17.14
      204.0,      18.95,    21.07,    22.30,    15.32,    17.11
      205.0,      18.91,    20.99,    22.26,    15.29,    17.09
      206.0,      18.86,    20.91,    22.22,    15.26,    17.06
      207.0,      18.82,    20.83,    22.19,    15.23,    17.03
      208.0,      18.78,    20.75,    22.15,    15.21,    17.01
      209.0,      18.73,    20.67,    22.11,    15.18,    16.98
      210.0,      18.69,    20.59,    22.07,    15.15,    16.95
      211.0,      18.65,    20.51,    22.04,    15.13,    16.93
      212.0,      18.61,    20.44,    22.00,    15.10,    16.90
      213.0,      18.57,    20.37,    21.97,    15.08,    16.88
      214.0,      18.53,    20.29,    21.93,    15.05,    16.85
      215.0,      18.49,    20.22,    21.90,    15.03,    16.83
      216.0,      18.46,    20.15,    21.86,    15.00,    16.81
      217.0,      18.42,    20.08,    21.83,    14.98,    16.78
      218.0,      18.38,    20.01,    21.80,    14.95,    16.76
      219.0,      18.34,    19.94,    21.76,    14.93,    16.74
      220.0,      18.31,    19.88,    21.73,    14.91,    16.71
      221.0,      18.27,    19.81,    21.70,    14.89,    16.69
      222.0,      18.24,    19.74,    21.67,    14.86,    16.67
      223.0,      18.20,    19.68,    21.64,    14.84,    16.65
      224.0,      18.17,    19.62,    21.61,    14.82,    16.63
      225.0,      18.13,    19.55,    21.58,    14.80,    16.60
      226.0,      18.10,    19.49,    21.55,    14.78,    16.58
      227.0,      18.07,    19.43,    21.52,    14.76,    16.56
      228.0,      18.03,    19.37,    21.49,    14.74,    16.54
      229.0,      18.00,    19.31,    21.46,    14.72,    16.52
      230.0,      17.97,    19.25,    21.43,    14.70,    16.50
      231.0,      17.94,    19.19,    21.40,    14.68,    16.48
      232.0,      17.91,    19.14,    21.37,    14.66,    16.46
      233.0,      17.88,    19.08,    21.35,    14.64,    16.44
      234.0,      17.85,    19.02,    21.32,    14.62,    16.42
      235.0,      17.82,    18.97,    21.29,    14.60,    16.40
      236.0,      17.79,    18.91,    21.26,    14.58,    16.38
      237.0,      17.76,    18.86,    21.24,    14.56,    16.36
      238.0,      17.73,    18.81,    21.21,    14.55,    16.34
      239.0,      17.70,    18.75,    21.18,    14.53,    16.32
      240.0,      17.67,    18.70,    21.16,    14.51,    16.30
      241.0,      17.64,    18.65,    21.13,    14.49,    16.29
      242.0,      17.61,    18.60,    21.11,    14.47,    16.27
      243.0,      17.58,    18.55,    21.08,    14.46,    16.25
      244.0,      17.56,    18.50,    21.06,    14.44,    16.23
      245.0,      17.53,    18.45,    21.03,    14.42,    16.21
      246.0,      17.50,    18.41,    21.01,    14.41,    16.19
      247.0,      17.48,    18.36,    20.98,    14.39,    16.18
      248.0,      17.45,    18.31,    20.96,    14.37,    16.16
      249.0,      17.42,    18.26,    20.93,    14.35,    16.14
      250.0,      17.40,    18.22,    20.91,    14.34,    16.12
      251.0,      17.37,    18.17,    20.88,    14.32,    16.10
      252.0,      17.34,    18.13,    20.86,    14.31,    16.09
      253.0,      17.32,    18.08,    20.83,    14.29,    16.07
      254.0,      17.29,    18.04,    20.81,    14.27,    16.05
      255.0,      17.27,    18.00,    20.79,    14.26,    16.03
      256.0,      17.24,    17.96,    20.76,    14.24,    16.02
      257.0,      17.22,    17.91,    20.74,    14.22,    16.00
      258.0,      17.19,    17.87,    20.72,    14.21,    15.98
      259.0,      17.17,    17.83,    20.69,    14.19,    15.96
      260.0,      17.15,    17.79,    20.67,    14.18,    15.95
      261.0,      17.12,    17.75,    20.65,    14.16,    15.93
      262.0,      17.10,    17.71,    20.62,    14.15,    15.91
      263.0,      17.07,    17.67,    20.60,    14.13,    15.90
      264.0,      17.05,    17.63,    20.58,    14.11,    15.88
      265.0,      17.03,    17.59,    20.55,    14.10,    15.86
      266.0,      17.00,    17.55,    20.53,    14.08,    15.84
      267.0,      16.98,    17.52,    20.51,    14.07,    15.83
      268.0,      16.96,    17.48,    20.49,    14.05,    15.81
      269.0,      16.93,    17.44,    20.46,    14.04,    15.79
      270.0,      16.91,    17.40,    20.44,    14.02,    15.78
      271.0,      16.89,    17.37,    20.42,    14.01,    15.76
      272.0,      16.87,    17.33,    20.40,    13.99,    15.75
      273.0,      16.84,    17.30,    20.38,    13.98,    15.73
      274.0,      16.82,    17.26,    20.35,    13.96,    15.71
      275.0,      16.80,    17.23,    20.33,    13.95,    15.70
      276.0,      16.78,    17.19,    20.31,    13.93,    15.68
      277.0,      16.76,    17.16,    20.29,    13.92,    15.66
      278.0,      16.74,    17.12,    20.27,    13.90,    15.65
      279.0,      16.71,    17.09,    20.25,    13.89,    15.63
      280.0,      16.69,    17.06,    20.22,    13.88,    15.61
      281.0,      16.67,    17.02,    20.20,    13.86,    15.60
      282.0,      16.65,    16.99,    20.18,    13.85,    15.58
      283.0,      16.63,    16.96,    20.16,    13.83,    15.57
      284.0,      16.61,    16.93,    20.14,    13.82,    15.55
      285.0,      16.59,    16.90,    20.12,    13.80,    15.53
      286.0,      16.57,    16.86,    20.10,    13.79,    15.52
      287.0,      16.55,    16.83,    20.08,    13.77,    15.50
      288.0,      16.53,    16.80,    20.06,    13.76,    15.49
      289.0,      16.51,    16.77,    20.03,    13.75,    15.47
      290.0,      16.49,    16.74,    20.01,    13.73,    15.46
      291.0,      16.47,    16.71,    19.99,    13.72,    15.44
      292.0,      16.45,    16.68,    19.97,    13.70,    15.42
      293.0,      16.43,    16.65,    19.95,    13.69,    15.41
      294.0,      16.41,    16.62,    19.93,    13.67,    15.39
      295.0,      16.39,    16.59,    19.91,    13.66,    15.38
      296.0,      16.37,    16.57,    19.89,    13.65,    15.36
      297.0,      16.35,    16.54,    19.87,    13.63,    15.35
      298.0,      16.33,    16.51,    19.85,    13.62,    15.33
      299.0,      16.31,    16.48,    19.83,    13.60,    15.31
      300.0,      16.29,    16.45,    19.81,    13.59,    15.30
      301.0,      16.27,    16.43,    19.79,    13.58,    15.28
      302.0,      16.25,    16.40,    19.77,    13.56,    15.27
      303.0,      16.23,    16.37,    19.75,    13.55,    15.25
      304.0,      16.21,    16.35,    19.73,    13.54,    15.24
      305.0,      16.19,    16.32,    19.71,    13.52,    15.22
      306.0,      16.17,    16.29,    19.69,    13.51,    15.21
      307.0,      16.15,    16.27,    19.67,    13.49,    15.19
      308.0,      16.14,    16.24,    19.65,    13.48,    15.18
      309.0,      16.12,    16.21,    19.63,    13.47,    15.16
      310.0,      16.10,    16.19,    19.61,    13.45,    15.14
