Radius (km), Mean (m/s), NE (m/s), SE (m/s), SW (m/s), NW (m/s)
        0.0,       0.00,     0.00,     0.00,     0.00,     0.00
        1.0,       0.94,     0.81,     1.08,     1.08,     0.81
        2.0,       1.92,     1.73,     2.11,     2.11,     1.73
        3.0,       2.91,     2.69,     3.13,     3.13,     2.69
        4.0,       3.91,     3.68,     4.15,     4.15,     3.68
        5.0,       4.92,     4.69,     5.16,     5.16,     4.69
        6.0,       5.94,     5.72,     6.16,     6.16,     5.72
        7.0,       6.96,     6.77,     7.15,     7.15,     6.77
        8.0,       7.99,     7.83,     8.15,     8.15,     7.83
        9.0,       9.02,     8.91,     9.14,     9.14,     8.91
       10.0,      10.06,     9.99,    10.13,    10.13,     9.99
       11.0,      11.10,    11.09,    11.11,    11.11,    11.09
       12.0,      12.14,    12.19,    12.09,    12.09,    12.19
       13.0,      13.19,    13.30,    13.08,    13.08,    13.30
       14.0,      14.24,    14.42,    14.05,    14.05,    14.42
       15.0,      15.29,    15.55,    15.03,    15.03,    15.55
       16.0,      16.34,    16.68,    16.01,    16.01,    16.68
       17.0,      17.40,    17.82,    16.98,    16.98,    17.82
       18.0,      18.46,    18.97,    17.95,    17.95,    18.97
       19.0,      19.52,    20.12,    18.92,    18.92,    20.12
       20.0,      20.59,    21.28,    19.89,    19.89,    21.28
       21.0,      21.65,    22.44,    20.86,    20.86,    22.44
       22.0,      22.72,    23.61,    21.83,    21.83,    23.61
       23.0,      23.79,    24.78,    22.79,    22.79,    24.78
       24.0,      24.86,    25.96,    23.76,    23.76,    25.96
       25.0,      25.93,    27.14,    24.72,    24.72,    27.14
       26.0,      27.01,    28.33,    25.68,    25.68,    28.33
       27.0,      28.08,    29.52,    26.65,    26.65,    29.52
       28.0,      29.16,    30.71,    27.61,    27.61,    30.71
       29.0,      30.24,    31.91,    28.57,    28.57,    31.91
       30.0,      31.32,    33.11,    29.53,    29.53,    33.11
       31.0,      32.40,    34.32,    30.49,    30.49,    34.32
       32.0,      33.51,    35.57,    31.46,    31.45,    35.55
       33.0,      34.67,    36.90,    32.48,    32.45,    36.86
       34.0,      35.95,    38.38,    33.60,    33.53,    38.31
       35.0,      37.39,    40.05,    34.84,    34.71,    39.94
       36.0,      38.99,    41.92,    36.22,    36.03,    41.77
       37.0,      40.72,    43.94,    37.73,    37.47,    43.76
       38.0,      42.54,    46.03,    39.30,    38.99,    45.84
       39.0,      44.33,    48.07,    40.85,    40.51,    47.89
       40.0,      46.00,    49.95,    42.30,    41.95,    49.80
       41.0,      47.43,    51.54,    43.55,    43.21,    51.42
       42.0,      48.54,    52.75,    44.52,    44.23,    52.67
       43.0,      49.28,    53.52,    45.17,    44.94,    53.49
       44.0,      49.62,    53.84,    45.48,    45.32,    53.84
       45.0,      49.59,    53.75,    45.47,    45.38,    53.77
       46.0,      49.25,    53.33,    45.19,    45.17,    53.33
       47.0,      48.68,    52.66,    44.70,    44.74,    52.63
       48.0,      47.97,    51.84,    44.09,    44.17,    51.77
       49.0,      47.18,    50.96,    43.42,    43.53,    50.83
       50.0,      46.40,    50.08,    42.74,    42.87,    49.89
       51.0,      45.65,    49.25,    42.10,    42.24,    49.00
       52.0,      44.95,    48.48,    41.50,    41.65,    48.17
       53.0,      44.29,    47.74,    40.93,    41.10,    47.38
       54.0,      43.66,    47.04,    40.39,    40.58,    46.64
       55.0,      43.06,    46.37,    39.88,    40.08,    45.92
       56.0,      42.48,    45.72,    39.38,    39.60,    45.22
       57.0,      41.92,    45.09,    38.89,    39.13,    44.56
       58.0,      41.38,    44.49,    38.43,    38.68,    43.91
       59.0,      40.85,    43.90,    37.98,    38.24,    43.29
       60.0,      40.35,    43.34,    37.54,    37.82,    42.69
       61.0,      39.86,    42.80,    37.12,    37.41,    42.11
       62.0,      39.39,    42.27,    36.71,    37.01,    41.55
       63.0,      38.93,    41.76,    36.32,    36.63,    41.01
       64.0,      38.49,    41.27,    35.94,    36.25,    40.49
       65.0,      38.06,    40.80,    35.57,    35.89,    39.99
       66.0,      37.65,    40.35,    35.21,    35.54,    39.50
       67.0,      37.25,    39.90,    34.87,    35.20,    39.03
       68.0,      36.86,    39.48,    34.53,    34.87,    38.58
       69.0,      36.49,    39.07,    34.21,    34.55,    38.14
       70.0,      36.13,    38.67,    33.89,    34.24,    37.72
       71.0,      35.78,    38.28,    33.59,    33.94,    37.31
       72.0,      35.44,    37.91,    33.30,    33.64,    36.91
       73.0,      35.11,    37.55,    33.01,    33.36,    36.53
       74.0,      34.79,    37.20,    32.73,    33.08,    36.16
       75.0,      34.49,    36.86,    32.47,    32.82,    35.80
       76.0,      34.19,    36.54,    32.21,    32.55,    35.45
       77.0,      33.90,    36.22,    31.95,    32.30,    35.12
       78.0,      33.62,    35.91,    31.71,    32.05,    34.79
       79.0,      33.35,    35.62,    31.47,    31.81,    34.48
       80.0,      33.08,    35.33,    31.24,    31.58,    34.18
       81.0,      32.83,    35.05,    31.02,    31.35,    33.88
       82.0,      32.58,    34.78,    30.80,    31.13,    33.59
       83.0,      32.33,    34.52,    30.59,    30.92,    33.32
       84.0,      32.10,    34.27,    30.38,    30.70,    33.05
       85.0,      31.87,    34.02,    30.18,    30.50,    32.79
       86.0,      31.65,    33.78,    29.98,    30.30,    32.54
       87.0,      31.44,    33.55,    29.80,    30.10,    32.29
       88.0,      31.23,    33.33,    29.61,    29.91,    32.05
       89.0,      31.02,    33.11,    29.43,    29.73,    31.82
       90.0,      30.82,    32.89,    29.26,    29.55,    31.60
       91.0,      30.63,    32.69,    29.09,    29.37,    31.38
       92.0,      30.44,    32.49,    28.92,    29.20,    31.17
       93.0,      30.26,    32.29,    28.76,    29.03,    30.96
       94.0,      30.08,    32.10,    28.60,    28.86,    30.76
       95.0,      29.91,    31.92,    28.44,    28.70,    30.57
       96.0,      29.74,    31.74,    28.29,    28.54,    30.38
       97.0,      29.57,    31.56,    28.15,    28.39,    30.20
       98.0,      29.41,    31.39,    28.00,    28.23,    30.02
       99.0,      29.25,    31.23,    27.86,    28.08,    29.84
      100.0,      29.10,    31.07,    27.73,    27.94,    29.67
      101.0,      28.95,    30.91,    27.59,    27.80,    29.51
      102.0,      28.80,    30.75,    27.46,    27.66,    29.35
      103.0,      28.66,    30.60,    27.33,    27.52,    29.19
      104.0,      28.52,    30.46,    27.21,    27.38,    29.03
      105.0,      28.38,    30.31,    27.08,    27.25,    28.88
      106.0,      28.25,    30.17,    26.96,    27.12,    28.74
      107.0,      28.12,    30.04,    26.85,    26.99,    28.60
      108.0,      27.99,    29.91,    26.73,    26.87,    28.46
      109.0,      27.86,    29.78,    26.62,    26.75,    28.32
      110.0,      27.74,    29.65,    26.51,    26.62,    28.19
      111.0,      27.62,    29.52,    26.40,    26.50,    28.06
      112.0,      27.50,    29.40,    26.29,    26.39,    27.93
      113.0,      27.39,    29.28,    26.18,    26.27,    27.80
      114.0,      27.27,    29.16,    26.08,    26.16,    27.68
      115.0,      27.16,    29.05,    25.98,    26.05,    27.56
      116.0,      27.05,    28.94,    25.88,    25.94,    27.45
      117.0,      26.94,    28.83,    25.78,    25.83,    27.33
      118.0,      26.84,    28.72,    25.69,    25.72,    27.22
      119.0,      26.73,    28.61,    25.59,    25.62,    27.11
      120.0,      26.63,    28.51,    25.50,    25.51,    27.00
      121.0,      26.53,    28.41,    25.41,    25.41,    26.90
      122.0,      26.43,    28.31,    25.32,    25.31,    26.79
      123.0,      26.33,    28.21,    25.23,    25.21,    26.69
      124.0,      26.24,    28.11,    25.14,    25.11,    26.59
      125.0,      26.14,    28.02,    25.05,    25.01,    26.49
      126.0,      26.05,    27.92,    24.97,    24.92,    26.39
      127.0,      25.96,    27.83,    24.88,    24.82,    26.30
      128.0,      25.87,    27.74,    24.80,    24.73,    26.20
      129.0,      25.78,    27.65,    24.72,    24.64,    26.11
      130.0,      25.69,    27.56,    24.64,    24.54,    26.02
      131.0,      25.60,    27.48,    24.56,    24.45,    25.93
      132.0,      25.52,    27.39,    24.48,    24.36,    25.84
      133.0,      25.43,    27.31,    24.40,    24.27,    25.76
      134.0,      25.35,    27.22,    24.32,    24.19,    25.67
      135.0,      25.27,    27.14,    24.25,    24.10,    25.59
      136.0,      25.19,    27.06,    24.17,    24.01,    25.50
      137.0,      25.11,    26.98,    24.10,    23.93,    25.42
      138.0,      25.03,    26.90,    24.02,    23.84,    25.34
      139.0,      24.95,    26.83,    23.95,    23.76,    25.26
      140.0,      24.87,    26.75,    23.88,    23.68,    25.18
      141.0,      24.80,    26.67,    23.81,    23.60,    25.11
      142.0,      24.72,    26.60,    23.73,    23.51,    25.03
      143.0,      24.64,    26.52,    23.66,    23.43,    24.95
      144.0,      24.57,    26.45,    23.59,    23.35,    24.88
      145.0,      24.50,    26.38,    23.53,    23.27,    24.80
      146.0,      24.42,    26.31,    23.46,    23.20,    24.73
      147.0,      24.35,    26.24,    23.39,    23.12,    24.66
      148.0,      24.28,    26.17,    23.32,    23.04,    24.59
      149.0,      24.21,    26.10,    23.26,    22.96,    24.52
      150.0,      24.14,    26.03,    23.19,    22.89,    24.44
      151.0,      24.07,    25.96,    23.13,    22.81,    24.38
      152.0,      24.00,    25.89,    23.06,    22.74,    24.31
      153.0,      23.93,    25.83,    23.00,    22.66,    24.24
      154.0,      23.86,    25.76,    22.93,    22.59,    24.17
      155.0,      23.79,    25.69,    22.87,    22.51,    24.10
      156.0,      23.73,    25.63,    22.81,    22.44,    24.04
      157.0,      23.66,    25.56,    22.74,    22.37,    23.97
      158.0,      23.60,    25.50,    22.68,    22.29,    23.91
      159.0,      23.53,    25.44,    22.62,    22.22,    23.84
      160.0,      23.46,    25.37,    22.56,    22.15,    23.78
      161.0,      23.40,    25.31,    22.50,    22.08,    23.71
      162.0,      23.34,    25.25,    22.44,    22.01,    23.65
      163.0,      23.27,    25.19,    22.38,    21.94,    23.59
      164.0,      23.21,    25.12,    22.32,    21.87,    23.52
      165.0,      23.15,    25.06,    22.26,    21.80,    23.46
      166.0,      23.08,    25.00,    22.20,    21.73,    23.40
      167.0,      23.02,    24.94,    22.14,    21.66,    23.34
      168.0,      22.96,    24.88,    22.08,    21.60,    23.28
      169.0,      22.90,    24.82,    22.02,    21.53,    23.22
      170.0,      22.84,    24.76,    21.97,    21.46,    23.16
      171.0,      22.78,    24.71,    21.91,    21.39,    23.10
      172.0,      22.72,    24.65,    21.85,    21.33,    23.04
      173.0,      22.66,    24.59,    21.79,    21.26,    22.98
      174.0,      22.60,    24.53,    21.74,    21.19,    22.92
      175.0,      22.54,    24.47,    21.68,    21.13,    22.87
      176.0,      22.48,    24.42,    21.63,    21.06,    22.81
      177.0,      22.42,    24.36,    21.57,    21.00,    22.75
      178.0,      22.36,    24.30,    21.51,    20.93,    22.69
      179.0,      22.30,    24.25,    21.46,    20.87,    22.64
      180.0,      22.25,    24.19,    21.40,    20.80,    22.58
      181.0,      22.19,    24.14,    21.35,    20.74,    22.53
      182.0,      22.13,    24.08,    21.29,    20.68,    22.47
      183.0,      22.07,    24.03,    21.24,    20.61,    22.41
      184.0,      22.02,    23.97,    21.19,    20.55,    22.36
      185.0,      21.96,    23.92,    21.13,    20.49,    22.30
      186.0,      21.90,    23.86,    21.08,    20.42,    22.25
      187.0,      21.85,    23.81,    21.03,    20.36,    22.19
      188.0,      21.79,    23.75,    20.97,    20.30,    22.14
      189.0,      21.74,    23.70,    20.92,    20.24,    22.09
      190.0,      21.68,    23.65,    20.87,    20.18,    22.03
      191.0,      21.63,    23.59,    20.81,    20.12,    21.98
      192.0,      21.57,    23.54,    20.76,    20.05,    21.93
      193.0,      21.52,    23.49,    20.71,    19.99,    21.87
      194.0,      21.46,    23.44,    20.66,    19.93,    21.82
      195.0,      21.41,    23.38,    20.61,    19.87,    21.77
      196.0,      21.35,    23.33,    20.55,    19.81,    21.71
      197.0,      21.30,    23.28,    20.50,    19.75,    21.66
      198.0,      21.25,    23.23,    20.45,    19.69,    21.61
      199.0,      21.19,    23.18,    20.40,    19.63,    21.56
      200.0,      21.14,    23.12,    20.35,    19.58,    21.51
      201.0,      21.09,    23.07,    20.30,    19.52,    21.45
      202.0,      21.03,    23.02,    20.25,    19.46,    21.40
      203.0,      20.98,    22.97,    20.20,    19.40,    21.35
      204.0,      20.93,    22.92,    20.15,    19.34,    21.30
      205.0,      20.88,    22.87,    20.10,    19.28,    21.25
      206.0,      20.82,    22.82,    20.05,    19.22,    21.20
      207.0,      20.77,    22.77,    20.00,    19.17,    21.15
      208.0,      20.72,    22.72,    19.95,    19.11,    21.10
      209.0,      20.67,    22.67,    19.90,    19.05,    21.05
      210.0,      20.62,    22.62,    19.85,    19.00,    21.00
      211.0,      20.56,    22.57,    19.80,    18.94,    20.95
      212.0,      20.51,    22.52,    19.75,    18.88,    20.90
      213.0,      20.46,    22.47,    19.70,    18.83,    20.85
      214.0,      20.41,    22.42,    19.66,    18.77,    20.80
      215.0,      20.36,    22.37,    19.61,    18.71,    20.75
      216.0,      20.31,    22.32,    19.56,    18.66,    20.70
      217.0,      20.26,    22.27,    19.51,    18.60,    20.65
      218.0,      20.21,    22.23,    19.46,    18.55,    20.61
      219.0,      20.16,    22.18,    19.41,    18.49,    20.56
      220.0,      20.11,    22.13,    19.37,    18.44,    20.51
      221.0,      20.06,    22.08,    19.32,    18.38,    20.46
      222.0,      20.01,    22.03,    19.27,    18.33,    20.41
      223.0,      19.96,    21.98,    19.22,    18.27,    20.37
      224.0,      19.91,    21.94,    19.18,    18.22,    20.32
      225.0,      19.86,    21.89,    19.13,    18.16,    20.27
      226.0,      19.81,    21.84,    19.08,    18.11,    20.22
      227.0,      19.76,    21.79,    19.04,    18.05,    20.18
      228.0,      19.72,    21.75,    18.99,    18.00,    20.13
      229.0,      19.67,    21.70,    18.94,    17.95,    20.08
      230.0,      19.62,    21.65,    18.90,    17.89,    20.03
      231.0,      19.57,    21.60,    18.85,    17.84,    19.99
      232.0,      19.52,    21.56,    18.80,    17.79,    19.94
      233.0,      19.47,    21.51,    18.76,    17.73,    19.89
      234.0,      19.43,    21.46,    18.71,    17.68,    19.85
      235.0,      19.38,    21.42,    18.67,    17.63,    19.80
      236.0,      19.33,    21.37,    18.62,    17.58,    19.75
      237.0,      19.28,    21.33,    18.57,    17.52,    19.71
      238.0,      19.24,    21.28,    18.53,    17.47,    19.66
      239.0,      19.19,    21.23,    18.48,    17.42,    19.62
      240.0,      19.14,    21.19,    18.44,    17.37,    19.57
      241.0,      19.09,    21.14,    18.39,    17.32,    19.53
      242.0,      19.05,    21.10,    18.35,    17.27,    19.48
      243.0,      19.00,    21.05,    18.30,    17.22,    19.43
      244.0,      18.95,    21.00,    18.26,    17.16,    19.39
      245.0,      18.91,    20.96,    18.21,    17.11,    19.34
      246.0,      18.86,    20.91,    18.17,    17.06,    19.30
      247.0,      18.82,    20.87,    18.13,    17.01,    19.25
      248.0,      18.77,    20.82,    18.08,    16.96,    19.21
      249.0,      18.72,    20.78,    18.04,    16.91,    19.17
      250.0,      18.68,    20.73,    17.99,    16.86,    19.12
      251.0,      18.63,    20.69,    17.95,    16.81,    19.08
      252.0,      18.59,    20.64,    17.91,    16.76,    19.03
      253.0,      18.54,    20.60,    17.86,    16.71,    18.99
      254.0,      18.50,    20.56,    17.82,    16.66,    18.94
      255.0,      18.45,    20.51,    17.78,    16.61,    18.90
      256.0,      18.40,    20.47,    17.73,    16.56,    18.86
      257.0,      18.36,    20.42,    17.69,    16.51,    18.81
      258.0,      18.31,    20.38,    17.65,    16.47,    18.77
      259.0,      18.27,    20.34,    17.60,    16.42,    18.72
      260.0,      18.23,    20.29,    17.56,    16.37,    18.68
      261.0,      18.18,    20.25,    17.52,    16.32,    18.64
      262.0,      18.14,    20.20,    17.47,    16.27,    18.59
      263.0,      18.09,    20.16,    17.43,    16.22,    18.55
      264.0,      18.05,    20.12,    17.39,    16.18,    18.51
      265.0,      18.00,    20.07,    17.35,    16.13,    18.47
      266.0,      17.96,    20.03,    17.30,    16.08,    18.42
      267.0,      17.92,    19.99,    17.26,    16.03,    18.38
      268.0,      17.87,    19.94,    17.22,    15.98,    18.34
      269.0,      17.83,    19.90,    17.18,    15.94,    18.30
      270.0,      17.78,    19.86,    17.14,    15.89,    18.25
      271.0,      17.74,    19.82,    17.09,    15.84,    18.21
      272.0,      17.70,    19.77,    17.05,    15.80,    18.17
      273.0,      17.65,    19.73,    17.01,    15.75,    18.13
      274.0,      17.61,    19.69,    16.97,    15.70,    18.08
      275.0,      17.57,    19.65,    16.93,    15.66,    18.04
      276.0,      17.53,    19.60,    16.89,    15.61,    18.00
      277.0,      17.48,    19.56,    16.85,    15.56,    17.96
      278.0,      17.44,    19.52,    16.81,    15.52,    17.92
      279.0,      17.40,    19.48,    16.76,    15.47,    17.88
      280.0,      17.36,    19.44,    16.72,    15.43,    17.83
      281.0,      17.31,    19.39,    16.68,    15.38,    17.79
      282.0,      17.27,    19.35,    16.64,    15.34,    17.75
      283.0,      17.23,    19.31,    16.60,    15.29,    17.71
      284.0,      17.19,    19.27,    16.56,    15.24,    17.67
      285.0,      17.14,    19.23,    16.52,    15.20,    17.63
      286.0,      17.10,    19.19,    16.48,    15.15,    17.59
      287.0,      17.06,    19.15,    16.44,    15.11,    17.55
      288.0,      17.02,    19.10,    16.40,    15.07,    17.51
      289.0,      16.98,    19.06,    16.36,    15.02,    17.47
      290.0,      16.94,    19.02,    16.32,    14.98,    17.43
      291.0,      16.90,    18.98,    16.28,    14.93,    17.39
      292.0,      16.85,    18.94,    16.24,    14.89,    17.35
      293.0,      16.81,    18.90,    16.20,    14.84,    17.31
      294.0,      16.77,    18.86,    16.16,    14.80,    17.27
      295.0,      16.73,    18.82,    16.12,    14.76,    17.23
      296.0,      16.69,    18.78,    16.08,    14.71,    17.19
      297.0,      16.65,    18.74,    16.05,    14.67,    17.15
      298.0,      16.61,    18.70,    16.01,    14.63,    17.11
      299.0,      16.57,    18.66,    15.97,    14.58,    17.07
      300.0,      16.53,    18.62,    15.93,    14.54,    17.03
      301.0,      16.49,    18.58,    15.89,    14.50,    16.99
      302.0,      16.45,    18.54,    15.85,    14.45,    16.95
      303.0,      16.41,    18.50,    15.81,    14.41,    16.91
      304.0,      16.37,    18.46,    15.77,    14.37,    16.87
      305.0,      16.33,    18.42,    15.74,    14.33,    16.83
      306.0,      16.29,    18.38,    15.70,    14.28,    16.79
      307.0,      16.25,    18.34,    15.66,    14.24,    16.75
      308.0,      16.21,    18.30,    15.62,    14.20,    16.71
      309.0,      16.17,    18.26,    15.58,    14.16,    16.68
      310.0,      16.13,    18.22,    15.55,    14.12,    16.64
