Radius (km), Mean (m/s), NE (m/s), SE (m/s), SW (m/s), NW (m/s)
        0.0,       0.00,     0.00,     0.00,     0.00,     0.00
        1.0,       1.68,     1.39,     1.67,     1.99,     1.67
        2.0,       2.93,     2.66,     2.97,     3.14,     2.97
        3.0,       4.07,     3.88,     4.15,     4.09,     4.15
        4.0,       5.14,     5.08,     5.26,     4.95,     5.26
        5.0,       6.16,     6.26,     6.33,     5.73,     6.33
        6.0,       7.15,     7.42,     7.36,     6.45,     7.36
        7.0,       8.11,     8.56,     8.36,     7.14,     8.36
        8.0,       9.04,     9.70,     9.33,     7.80,     9.33
        9.0,       9.96,    10.82,    10.29,     8.42,    10.29
       10.0,      10.85,    11.94,    11.22,     9.03,    11.22
       11.0,      11.74,    13.05,    12.14,     9.61,    12.14
       12.0,      12.61,    14.16,    13.05,    10.18,    13.05
       13.0,      13.47,    15.26,    13.94,    10.72,    13.94
       14.0,      14.31,    16.35,    14.82,    11.26,    14.82
       15.0,      15.15,    17.43,    15.69,    11.78,    15.69
       16.0,      15.98,    18.52,    16.55,    12.29,    16.55
       17.0,      16.80,    19.59,    17.40,    12.79,    17.40
       18.0,      17.61,    20.67,    18.24,    13.28,    18.24
       19.0,      18.41,    21.74,    19.08,    13.76,    19.08
       20.0,      19.21,    22.80,    19.90,    14.23,    19.90
       21.0,      20.00,    23.86,    20.73,    14.69,    20.73
       22.0,      20.81,    24.93,    21.58,    15.15,    21.57
       23.0,      21.64,    26.02,    22.49,    15.60,    22.45
       24.0,      22.54,    27.19,    23.50,    16.05,    23.41
       25.0,      23.52,    28.48,    24.65,    16.52,    24.45
       26.0,      24.61,    29.93,    25.92,    17.01,    25.58
       27.0,      25.78,    31.53,    27.28,    17.54,    26.77
       28.0,      27.00,    33.24,    28.68,    18.11,    27.98
       29.0,      28.22,    34.99,    30.04,    18.69,    29.16
       30.0,      29.38,    36.69,    31.28,    19.28,    30.26
       31.0,      30.40,    38.21,    32.32,    19.84,    31.22
       32.0,      31.23,    39.48,    33.11,    20.34,    32.01
       33.0,      31.84,    40.40,    33.62,    20.75,    32.59
       34.0,      32.21,    40.96,    33.84,    21.06,    32.97
       35.0,      32.34,    41.13,    33.80,    21.26,    33.17
       36.0,      32.27,    40.98,    33.55,    21.35,    33.21
       37.0,      32.04,    40.54,    33.14,    21.33,    33.13
       38.0,      31.69,    39.92,    32.64,    21.24,    32.97
       39.0,      31.29,    39.19,    32.10,    21.09,    32.79
       40.0,      30.87,    38.42,    31.57,    20.92,    32.59
       41.0,      30.46,    37.66,    31.05,    20.73,    32.39
       42.0,      30.07,    36.95,    30.56,    20.55,    32.20
       43.0,      29.70,    36.28,    30.10,    20.38,    32.02
       44.0,      29.35,    35.65,    29.66,    20.23,    31.85
       45.0,      29.01,    35.05,    29.23,    20.08,    31.67
       46.0,      28.68,    34.47,    28.82,    19.94,    31.50
       47.0,      28.37,    33.91,    28.43,    19.80,    31.32
       48.0,      28.06,    33.37,    28.05,    19.67,    31.15
       49.0,      27.76,    32.85,    27.68,    19.53,    30.99
       50.0,      27.47,    32.35,    27.33,    19.40,    30.82
       51.0,      27.20,    31.86,    26.99,    19.27,    30.65
       52.0,      26.93,    31.40,    26.66,    19.15,    30.49
       53.0,      26.66,    30.95,    26.35,    19.03,    30.33
       54.0,      26.41,    30.51,    26.05,    18.90,    30.17
       55.0,      26.16,    30.10,    25.75,    18.79,    30.01
       56.0,      25.92,    29.69,    25.47,    18.67,    29.86
       57.0,      25.69,    29.30,    25.20,    18.55,    29.70
       58.0,      25.46,    28.93,    24.94,    18.44,    29.55
       59.0,      25.24,    28.56,    24.69,    18.33,    29.40
       60.0,      25.03,    28.21,    24.44,    18.22,    29.25
       61.0,      24.82,    27.88,    24.21,    18.12,    29.10
       62.0,      24.62,    27.55,    23.98,    18.01,    28.95
       63.0,      24.43,    27.23,    23.76,    17.91,    28.81
       64.0,      24.24,    26.93,    23.55,    17.81,    28.66
       65.0,      24.05,    26.63,    23.35,    17.71,    28.52
       66.0,      23.87,    26.35,    23.16,    17.61,    28.38
       67.0,      23.70,    26.07,    22.97,    17.51,    28.24
       68.0,      23.53,    25.81,    22.78,    17.41,    28.10
       69.0,      23.36,    25.55,    22.61,    17.32,    27.97
       70.0,      23.20,    25.30,    22.44,    17.23,    27.83
       71.0,      23.04,    25.06,    22.27,    17.13,    27.70
       72.0,      22.89,    24.82,    22.12,    17.04,    27.57
       73.0,      22.74,    24.60,    21.96,    16.95,    27.44
       74.0,      22.59,    24.38,    21.82,    16.86,    27.31
       75.0,      22.45,    24.17,    21.67,    16.78,    27.18
       76.0,      22.31,    23.96,    21.54,    16.69,    27.05
       77.0,      22.17,    23.77,    21.40,    16.61,    26.93
       78.0,      22.04,    23.57,    21.27,    16.52,    26.80
       79.0,      21.91,    23.39,    21.15,    16.44,    26.68
       80.0,      21.79,    23.21,    21.03,    16.36,    26.56
       81.0,      21.66,    23.03,    20.91,    16.28,    26.44
       82.0,      21.54,    22.86,    20.80,    16.20,    26.32
       83.0,      21.43,    22.69,    20.69,    16.12,    26.20
       84.0,      21.31,    22.53,    20.58,    16.04,    26.08
       85.0,      21.20,    22.38,    20.48,    15.96,    25.97
       86.0,      21.09,    22.23,    20.38,    15.88,    25.85
       87.0,      20.98,    22.08,    20.29,    15.81,    25.74
       88.0,      20.87,    21.94,    20.19,    15.73,    25.63
       89.0,      20.77,    21.80,    20.10,    15.66,    25.52
       90.0,      20.67,    21.66,    20.02,    15.59,    25.41
       91.0,      20.57,    21.53,    19.93,    15.51,    25.30
       92.0,      20.47,    21.41,    19.85,    15.44,    25.19
       93.0,      20.38,    21.28,    19.77,    15.37,    25.08
       94.0,      20.28,    21.16,    19.69,    15.30,    24.98
       95.0,      20.19,    21.04,    19.62,    15.23,    24.87
       96.0,      20.10,    20.93,    19.54,    15.16,    24.77
       97.0,      20.01,    20.82,    19.47,    15.09,    24.67
       98.0,      19.92,    20.71,    19.40,    15.02,    24.57
       99.0,      19.84,    20.60,    19.34,    14.95,    24.46
      100.0,      19.75,    20.50,    19.27,    14.88,    24.37
      101.0,      19.67,    20.40,    19.21,    14.82,    24.27
      102.0,      19.59,    20.30,    19.15,    14.75,    24.17
      103.0,      19.51,    20.20,    19.09,    14.68,    24.07
      104.0,      19.43,    20.11,    19.03,    14.62,    23.98
      105.0,      19.36,    20.01,    18.97,    14.55,    23.88
      106.0,      19.28,    19.92,    18.92,    14.49,    23.79
      107.0,      19.21,    19.84,    18.86,    14.43,    23.70
      108.0,      19.13,    19.75,    18.81,    14.36,    23.60
      109.0,      19.06,    19.66,    18.76,    14.30,    23.51
      110.0,      18.99,    19.58,    18.71,    14.24,    23.42
      111.0,      18.92,    19.50,    18.66,    14.18,    23.33
      112.0,      18.85,    19.42,    18.61,    14.11,    23.25
      113.0,      18.78,    19.34,    18.56,    14.05,    23.16
      114.0,      18.71,    19.27,    18.52,    13.99,    23.07
      115.0,      18.65,    19.19,    18.47,    13.93,    22.99
      116.0,      18.58,    19.12,    18.43,    13.87,    22.90
      117.0,      18.52,    19.05,    18.39,    13.81,    22.82
      118.0,      18.45,    18.98,    18.35,    13.75,    22.73
      119.0,      18.39,    18.91,    18.31,    13.69,    22.65
      120.0,      18.33,    18.84,    18.27,    13.64,    22.57
      121.0,      18.27,    18.77,    18.23,    13.58,    22.49
      122.0,      18.21,    18.71,    18.19,    13.52,    22.41
      123.0,      18.15,    18.64,    18.15,    13.46,    22.33
      124.0,      18.09,    18.58,    18.11,    13.40,    22.25
      125.0,      18.03,    18.52,    18.08,    13.35,    22.17
      126.0,      17.97,    18.46,    18.04,    13.29,    22.09
      127.0,      17.91,    18.39,    18.01,    13.24,    22.02
      128.0,      17.86,    18.33,    17.97,    13.18,    21.94
      129.0,      17.80,    18.28,    17.94,    13.12,    21.87
      130.0,      17.75,    18.22,    17.91,    13.07,    21.79
      131.0,      17.69,    18.16,    17.87,    13.01,    21.72
      132.0,      17.64,    18.10,    17.84,    12.96,    21.64
      133.0,      17.58,    18.05,    17.81,    12.91,    21.57
      134.0,      17.53,    17.99,    17.78,    12.85,    21.50
      135.0,      17.48,    17.94,    17.75,    12.80,    21.43
      136.0,      17.43,    17.89,    17.72,    12.74,    21.36
      137.0,      17.38,    17.83,    17.69,    12.69,    21.29
      138.0,      17.32,    17.78,    17.66,    12.64,    21.22
      139.0,      17.27,    17.73,    17.63,    12.59,    21.15
      140.0,      17.22,    17.68,    17.60,    12.53,    21.08
      141.0,      17.17,    17.63,    17.57,    12.48,    21.02
      142.0,      17.13,    17.58,    17.55,    12.43,    20.95
      143.0,      17.08,    17.53,    17.52,    12.38,    20.88
      144.0,      17.03,    17.48,    17.49,    12.33,    20.82
      145.0,      16.98,    17.43,    17.46,    12.28,    20.75
      146.0,      16.93,    17.38,    17.44,    12.23,    20.69
      147.0,      16.89,    17.33,    17.41,    12.17,    20.63
      148.0,      16.84,    17.29,    17.39,    12.12,    20.56
      149.0,      16.79,    17.24,    17.36,    12.07,    20.50
      150.0,      16.75,    17.19,    17.34,    12.02,    20.44
      151.0,      16.70,    17.15,    17.31,    11.98,    20.38
      152.0,      16.66,    17.10,    17.29,    11.93,    20.31
      153.0,      16.61,    17.06,    17.26,    11.88,    20.25
      154.0,      16.57,    17.01,    17.24,    11.83,    20.19
      155.0,      16.52,    16.97,    17.21,    11.78,    20.14
      156.0,      16.48,    16.93,    17.19,    11.73,    20.08
      157.0,      16.44,    16.88,    17.17,    11.68,    20.02
      158.0,      16.39,    16.84,    17.14,    11.63,    19.96
      159.0,      16.35,    16.80,    17.12,    11.59,    19.90
      160.0,      16.31,    16.75,    17.10,    11.54,    19.85
      161.0,      16.27,    16.71,    17.07,    11.49,    19.79
      162.0,      16.22,    16.67,    17.05,    11.45,    19.73
      163.0,      16.18,    16.63,    17.03,    11.40,    19.68
      164.0,      16.14,    16.59,    17.01,    11.35,    19.62
      165.0,      16.10,    16.54,    16.98,    11.31,    19.57
      166.0,      16.06,    16.50,    16.96,    11.26,    19.52
      167.0,      16.02,    16.46,    16.94,    11.21,    19.46
      168.0,      15.98,    16.42,    16.92,    11.17,    19.41
      169.0,      15.94,    16.38,    16.90,    11.12,    19.36
      170.0,      15.90,    16.34,    16.87,    11.08,    19.30
      171.0,      15.86,    16.30,    16.85,    11.03,    19.25
      172.0,      15.82,    16.26,    16.83,    10.99,    19.20
      173.0,      15.78,    16.22,    16.81,    10.94,    19.15
      174.0,      15.74,    16.19,    16.79,    10.90,    19.10
      175.0,      15.70,    16.15,    16.77,    10.85,    19.05
      176.0,      15.67,    16.11,    16.75,    10.81,    19.00
      177.0,      15.63,    16.07,    16.73,    10.76,    18.95
      178.0,      15.59,    16.03,    16.71,    10.72,    18.90
      179.0,      15.55,    15.99,    16.69,    10.68,    18.85
      180.0,      15.51,    15.95,    16.67,    10.63,    18.81
      181.0,      15.48,    15.92,    16.65,    10.59,    18.76
      182.0,      15.44,    15.88,    16.62,    10.55,    18.71
      183.0,      15.40,    15.84,    16.60,    10.50,    18.66
      184.0,      15.37,    15.80,    16.58,    10.46,    18.62
      185.0,      15.33,    15.77,    16.56,    10.42,    18.57
      186.0,      15.29,    15.73,    16.54,    10.38,    18.53
      187.0,      15.26,    15.69,    16.53,    10.33,    18.48
      188.0,      15.22,    15.66,    16.51,    10.29,    18.44
      189.0,      15.19,    15.62,    16.49,    10.25,    18.39
      190.0,      15.15,    15.58,    16.47,    10.21,    18.35
      191.0,      15.12,    15.55,    16.45,    10.17,    18.30
      192.0,      15.08,    15.51,    16.43,    10.13,    18.26
      193.0,      15.05,    15.48,    16.41,    10.09,    18.22
      194.0,      15.01,    15.44,    16.39,    10.04,    18.17
      195.0,      14.98,    15.41,    16.37,    10.00,    18.13
      196.0,      14.94,    15.37,    16.35,     9.96,    18.09
      197.0,      14.91,    15.33,    16.33,     9.92,    18.05
      198.0,      14.87,    15.30,    16.31,     9.88,    18.00
      199.0,      14.84,    15.26,    16.29,     9.84,    17.96
      200.0,      14.81,    15.23,    16.27,     9.80,    17.92
      201.0,      14.77,    15.19,    16.25,     9.76,    17.88
      202.0,      14.74,    15.16,    16.24,     9.72,    17.84
      203.0,      14.71,    15.12,    16.22,     9.68,    17.80
      204.0,      14.67,    15.09,    16.20,     9.64,    17.76
      205.0,      14.64,    15.06,    16.18,     9.60,    17.72
      206.0,      14.61,    15.02,    16.16,     9.57,    17.68
      207.0,      14.57,    14.99,    16.14,     9.53,    17.64
      208.0,      14.54,    14.95,    16.12,     9.49,    17.60
      209.0,      14.51,    14.92,    16.11,     9.45,    17.57
      210.0,      14.48,    14.89,    16.09,     9.41,    17.53
      211.0,      14.45,    14.85,    16.07,     9.37,    17.49
      212.0,      14.41,    14.82,    16.05,     9.34,    17.45
      213.0,      14.38,    14.78,    16.03,     9.30,    17.42
      214.0,      14.35,    14.75,    16.01,     9.26,    17.38
      215.0,      14.32,    14.72,    15.99,     9.22,    17.34
      216.0,      14.29,    14.68,    15.98,     9.19,    17.31
      217.0,      14.26,    14.65,    15.96,     9.15,    17.27
      218.0,      14.23,    14.62,    15.94,     9.11,    17.23
      219.0,      14.19,    14.58,    15.92,     9.07,    17.20
      220.0,      14.16,    14.55,    15.90,     9.04,    17.16
      221.0,      14.13,    14.52,    15.89,     9.00,    17.13
      222.0,      14.10,    14.49,    15.87,     8.96,    17.09
      223.0,      14.07,    14.45,    15.85,     8.93,    17.06
      224.0,      14.04,    14.42,    15.83,     8.89,    17.02
      225.0,      14.01,    14.39,    15.81,     8.86,    16.99
      226.0,      13.98,    14.36,    15.80,     8.82,    16.95
      227.0,      13.95,    14.32,    15.78,     8.78,    16.92
      228.0,      13.92,    14.29,    15.76,     8.75,    16.89
      229.0,      13.89,    14.26,    15.74,     8.71,    16.85
      230.0,      13.86,    14.23,    15.72,     8.68,    16.82
      231.0,      13.83,    14.20,    15.71,     8.64,    16.79
      232.0,      13.80,    14.16,    15.69,     8.61,    16.76
      233.0,      13.77,    14.13,    15.67,     8.57,    16.72
      234.0,      13.75,    14.10,    15.65,     8.54,    16.69
      235.0,      13.72,    14.07,    15.64,     8.50,    16.66
      236.0,      13.69,    14.04,    15.62,     8.47,    16.63
      237.0,      13.66,    14.01,    15.60,     8.44,    16.60
      238.0,      13.63,    13.97,    15.58,     8.40,    16.56
      239.0,      13.60,    13.94,    15.57,     8.37,    16.53
      240.0,      13.57,    13.91,    15.55,     8.33,    16.50
      241.0,      13.55,    13.88,    15.53,     8.30,    16.47
      242.0,      13.52,    13.85,    15.51,     8.27,    16.44
      243.0,      13.49,    13.82,    15.50,     8.23,    16.41
      244.0,      13.46,    13.79,    15.48,     8.20,    16.38
      245.0,      13.43,    13.76,    15.46,     8.17,    16.35
      246.0,      13.41,    13.73,    15.44,     8.13,    16.32
      247.0,      13.38,    13.70,    15.43,     8.10,    16.29
      248.0,      13.35,    13.67,    15.41,     8.07,    16.26
      249.0,      13.32,    13.63,    15.39,     8.03,    16.23
      250.0,      13.30,    13.60,    15.37,     8.00,    16.20
      251.0,      13.27,    13.57,    15.36,     7.97,    16.17
      252.0,      13.24,    13.54,    15.34,     7.94,    16.15
      253.0,      13.21,    13.51,    15.32,     7.91,    16.12
      254.0,      13.19,    13.48,    15.30,     7.87,    16.09
      255.0,      13.16,    13.45,    15.29,     7.84,    16.06
      256.0,      13.13,    13.42,    15.27,     7.81,    16.03
      257.0,      13.11,    13.39,    15.25,     7.78,    16.00
      258.0,      13.08,    13.36,    15.24,     7.75,    15.98
      259.0,      13.05,    13.33,    15.22,     7.72,    15.95
      260.0,      13.03,    13.30,    15.20,     7.68,    15.92
      261.0,      13.00,    13.27,    15.18,     7.65,    15.89
      262.0,      12.98,    13.24,    15.17,     7.62,    15.87
      263.0,      12.95,    13.21,    15.15,     7.59,    15.84
      264.0,      12.92,    13.19,    15.13,     7.56,    15.81
      265.0,      12.90,    13.16,    15.12,     7.53,    15.79
      266.0,      12.87,    13.13,    15.10,     7.50,    15.76
      267.0,      12.85,    13.10,    15.08,     7.47,    15.73
      268.0,      12.82,    13.07,    15.07,     7.44,    15.71
      269.0,      12.79,    13.04,    15.05,     7.41,    15.68
      270.0,      12.77,    13.01,    15.03,     7.38,    15.66
      271.0,      12.74,    12.98,    15.02,     7.35,    15.63
      272.0,      12.72,    12.95,    15.00,     7.32,    15.60
      273.0,      12.69,    12.92,    14.98,     7.29,    15.58
      274.0,      12.67,    12.89,    14.97,     7.26,    15.55
      275.0,      12.64,    12.87,    14.95,     7.23,    15.53
      276.0,      12.62,    12.84,    14.93,     7.20,    15.50
      277.0,      12.59,    12.81,    14.92,     7.17,    15.48
      278.0,      12.57,    12.78,    14.90,     7.14,    15.45
      279.0,      12.54,    12.75,    14.88,     7.12,    15.43
      280.0,      12.52,    12.72,    14.87,     7.09,    15.41
      281.0,      12.50,    12.69,    14.85,     7.06,    15.38
      282.0,      12.47,    12.67,    14.83,     7.03,    15.36
      283.0,      12.45,    12.64,    14.82,     7.00,    15.33
      284.0,      12.42,    12.61,    14.80,     6.97,    15.31
      285.0,      12.40,    12.58,    14.78,     6.94,    15.28
      286.0,      12.37,    12.55,    14.77,     6.92,    15.26
      287.0,      12.35,    12.53,    14.75,     6.89,    15.24
      288.0,      12.33,    12.50,    14.73,     6.86,    15.21
      289.0,      12.30,    12.47,    14.72,     6.83,    15.19
      290.0,      12.28,    12.44,    14.70,     6.80,    15.17
      291.0,      12.25,    12.41,    14.68,     6.78,    15.14
      292.0,      12.23,    12.39,    14.67,     6.75,    15.12
      293.0,      12.21,    12.36,    14.65,     6.72,    15.10
      294.0,      12.18,    12.33,    14.63,     6.70,    15.08
      295.0,      12.16,    12.30,    14.62,     6.67,    15.05
      296.0,      12.14,    12.28,    14.60,     6.64,    15.03
      297.0,      12.11,    12.25,    14.59,     6.61,    15.01
      298.0,      12.09,    12.22,    14.57,     6.59,    14.98
      299.0,      12.07,    12.20,    14.55,     6.56,    14.96
      300.0,      12.04,    12.17,    14.54,     6.53,    14.94
      301.0,      12.02,    12.14,    14.52,     6.51,    14.92
      302.0,      12.00,    12.11,    14.50,     6.48,    14.90
      303.0,      11.98,    12.09,    14.49,     6.46,    14.87
      304.0,      11.95,    12.06,    14.47,     6.43,    14.85
      305.0,      11.93,    12.03,    14.46,     6.40,    14.83
      306.0,      11.91,    12.01,    14.44,     6.38,    14.81
      307.0,      11.89,    11.98,    14.42,     6.35,    14.79
      308.0,      11.86,    11.95,    14.41,     6.33,    14.77
      309.0,      11.84,    11.93,    14.39,     6.30,    14.75
      310.0,      11.82,    11.90,    14.37,     6.28,    14.72
