Radius (km), Mean (m/s), NE (m/s), SE (m/s), SW (m/s), NW (m/s)
        0.0,       0.00,     0.00,     0.00,     0.00,     0.00
        1.0,       0.86,     0.79,     0.79,     1.07,     0.79
        2.0,       1.50,     1.41,     1.41,     1.76,     1.41
        3.0,       2.07,     1.98,     1.98,     2.36,     1.98
        4.0,       2.61,     2.51,     2.51,     2.91,     2.51
        5.0,       3.12,     3.02,     3.02,     3.42,     3.02
        6.0,       3.61,     3.51,     3.51,     3.90,     3.51
        7.0,       4.08,     3.99,     3.99,     4.36,     3.99
        8.0,       4.55,     4.46,     4.46,     4.80,     4.46
        9.0,       5.00,     4.92,     4.92,     5.23,     4.92
       10.0,       5.44,     5.37,     5.37,     5.64,     5.37
       11.0,       5.87,     5.81,     5.81,     6.04,     5.81
       12.0,       6.29,     6.24,     6.24,     6.44,     6.24
       13.0,       6.71,     6.67,     6.67,     6.82,     6.67
       14.0,       7.12,     7.10,     7.10,     7.19,     7.10
       15.0,       7.53,     7.51,     7.51,     7.56,     7.51
       16.0,       7.93,     7.93,     7.93,     7.92,     7.93
       17.0,       8.32,     8.34,     8.34,     8.28,     8.34
       18.0,       8.71,     8.74,     8.74,     8.63,     8.74
       19.0,       9.10,     9.14,     9.14,     8.97,     9.14
       20.0,       9.48,     9.54,     9.54,     9.31,     9.54
       21.0,       9.86,     9.93,     9.93,     9.64,     9.93
       22.0,      10.24,    10.32,    10.32,     9.97,    10.32
       23.0,      10.61,    10.71,    10.71,    10.30,    10.71
       24.0,      10.98,    11.10,    11.10,    10.62,    11.10
       25.0,      11.34,    11.48,    11.48,    10.94,    11.48
       26.0,      11.71,    11.86,    11.86,    11.25,    11.86
       27.0,      12.07,    12.24,    12.24,    11.56,    12.24
       28.0,      12.43,    12.61,    12.61,    11.87,    12.61
       29.0,      12.78,    12.98,    12.98,    12.17,    12.98
       30.0,      13.13,    13.36,    13.36,    12.47,    13.36
       31.0,      13.49,    13.72,    13.72,    12.77,    13.72
       32.0,      13.83,    14.09,    14.09,    13.07,    14.09
       33.0,      14.18,    14.45,    14.45,    13.36,    14.45
       34.0,      14.53,    14.82,    14.82,    13.65,    14.82
       35.0,      14.87,    15.18,    15.18,    13.94,    15.18
       36.0,      15.21,    15.54,    15.54,    14.23,    15.54
       37.0,      15.55,    15.89,    15.89,    14.51,    15.89
       38.0,      15.89,    16.25,    16.25,    14.80,    16.25
       39.0,      16.22,    16.60,    16.60,    15.08,    16.60
       40.0,      16.56,    16.96,    16.96,    15.36,    16.96
       41.0,      16.89,    17.31,    17.31,    15.63,    17.31
       42.0,      17.22,    17.66,    17.66,    15.91,    17.66
       43.0,      17.55,    18.00,    18.00,    16.18,    18.00
       44.0,      17.88,    18.35,    18.35,    16.45,    18.35
       45.0,      18.20,    18.70,    18.70,    16.72,    18.70
       46.0,      18.53,    19.04,    19.04,    16.99,    19.04
       47.0,      18.85,    19.38,    19.38,    17.25,    19.38
       48.0,      19.17,    19.73,    19.73,    17.52,    19.73
       49.0,      19.49,    20.07,    20.07,    17.78,    20.07
       50.0,      19.81,    20.40,    20.40,    18.04,    20.40
       51.0,      20.13,    20.74,    20.74,    18.30,    20.74
       52.0,      20.45,    21.08,    21.08,    18.56,    21.08
       53.0,      20.77,    21.42,    21.42,    18.82,    21.42
       54.0,      21.08,    21.75,    21.75,    19.07,    21.75
       55.0,      21.39,    22.08,    22.08,    19.33,    22.08
       56.0,      21.71,    22.42,    22.42,    19.58,    22.42
       57.0,      22.02,    22.75,    22.75,    19.83,    22.75
       58.0,      22.33,    23.08,    23.08,    20.08,    23.08
       59.0,      22.64,    23.41,    23.41,    20.33,    23.41
       60.0,      22.95,    23.74,    23.74,    20.58,    23.74
       61.0,      23.26,    24.07,    24.07,    20.83,    24.07
       62.0,      23.56,    24.39,    24.39,    21.07,    24.39
       63.0,      23.87,    24.72,    24.72,    21.32,    24.72
       64.0,      24.17,    25.04,    25.04,    21.56,    25.04
       65.0,      24.48,    25.37,    25.37,    21.81,    25.37
       66.0,      24.78,    25.69,    25.69,    22.05,    25.69
       67.0,      25.08,    26.01,    26.01,    22.29,    26.01
       68.0,      25.38,    26.34,    26.34,    22.53,    26.34
       69.0,      25.68,    26.66,    26.66,    22.77,    26.66
       70.0,      25.98,    26.98,    26.98,    23.00,    26.98
       71.0,      26.28,    27.30,    27.30,    23.24,    27.30
       72.0,      26.58,    27.61,    27.61,    23.48,    27.61
       73.0,      26.88,    27.93,    27.93,    23.71,    27.93
       74.0,      27.17,    28.25,    28.25,    23.95,    28.25
       75.0,      27.47,    28.57,    28.57,    24.18,    28.57
       76.0,      27.76,    28.88,    28.88,    24.41,    28.88
       77.0,      28.06,    29.20,    29.20,    24.64,    29.20
       78.0,      28.35,    29.51,    29.51,    24.87,    29.51
       79.0,      28.64,    29.82,    29.82,    25.10,    29.82
       80.0,      28.94,    30.14,    30.14,    25.33,    30.14
       81.0,      29.23,    30.45,    30.45,    25.56,    30.45
       82.0,      29.52,    30.76,    30.76,    25.79,    30.76
       83.0,      29.81,    31.07,    31.07,    26.02,    31.07
       84.0,      30.10,    31.38,    31.38,    26.24,    31.38
       85.0,      30.39,    31.69,    31.69,    26.47,    31.69
       86.0,      30.67,    32.00,    32.00,    26.69,    32.00
       87.0,      30.96,    32.31,    32.31,    26.92,    32.31
       88.0,      31.25,    32.62,    32.62,    27.14,    32.62
       89.0,      31.53,    32.92,    32.92,    27.36,    32.92
       90.0,      31.82,    33.23,    33.23,    27.58,    33.23
       91.0,      32.10,    33.54,    33.54,    27.80,    33.54
       92.0,      32.39,    33.84,    33.84,    28.02,    33.84
       93.0,      32.67,    34.15,    34.15,    28.24,    34.15
       94.0,      32.95,    34.45,    34.45,    28.46,    34.45
       95.0,      33.24,    34.76,    34.76,    28.68,    34.76
       96.0,      33.52,    35.06,    35.06,    28.90,    35.06
       97.0,      33.80,    35.37,    35.36,    29.12,    35.37
       98.0,      34.10,    35.69,    35.67,    29.34,    35.71
       99.0,      34.42,    36.03,    35.99,    29.56,    36.08
      100.0,      34.76,    36.41,    36.34,    29.80,    36.49
      101.0,      35.14,    36.82,    36.73,    30.06,    36.94
      102.0,      35.55,    37.27,    37.15,    30.34,    37.43
      103.0,      35.98,    37.73,    37.61,    30.63,    37.93
      104.0,      36.40,    38.19,    38.07,    30.93,    38.42
      105.0,      36.80,    38.62,    38.51,    31.23,    38.86
      106.0,      37.16,    38.99,    38.92,    31.49,    39.22
      107.0,      37.44,    39.29,    39.25,    31.73,    39.50
      108.0,      37.64,    39.50,    39.49,    31.91,    39.67
      109.0,      37.75,    39.62,    39.63,    32.04,    39.74
      110.0,      37.78,    39.64,    39.66,    32.10,    39.71
      111.0,      37.73,    39.59,    39.60,    32.12,    39.60
      112.0,      37.62,    39.48,    39.45,    32.09,    39.44
      113.0,      37.46,    39.34,    39.25,    32.03,    39.24
      114.0,      37.29,    39.17,    39.01,    31.95,    39.04
      115.0,      37.11,    39.00,    38.76,    31.86,    38.83
      116.0,      36.94,    38.84,    38.51,    31.77,    38.64
      117.0,      36.77,    38.68,    38.27,    31.69,    38.46
      118.0,      36.62,    38.53,    38.04,    31.61,    38.28
      119.0,      36.46,    38.38,    37.82,    31.54,    38.12
      120.0,      36.32,    38.23,    37.61,    31.46,    37.96
      121.0,      36.17,    38.09,    37.40,    31.39,    37.80
      122.0,      36.02,    37.95,    37.19,    31.32,    37.65
      123.0,      35.88,    37.80,    36.98,    31.24,    37.50
      124.0,      35.74,    37.66,    36.77,    31.17,    37.36
      125.0,      35.60,    37.53,    36.56,    31.10,    37.22
      126.0,      35.47,    37.39,    36.36,    31.03,    37.09
      127.0,      35.33,    37.25,    36.16,    30.96,    36.96
      128.0,      35.20,    37.12,    35.96,    30.89,    36.83
      129.0,      35.07,    36.99,    35.76,    30.82,    36.71
      130.0,      34.94,    36.85,    35.56,    30.74,    36.59
      131.0,      34.81,    36.72,    35.37,    30.67,    36.48
      132.0,      34.68,    36.60,    35.18,    30.60,    36.36
      133.0,      34.56,    36.47,    34.98,    30.53,    36.26
      134.0,      34.44,    36.34,    34.79,    30.46,    36.15
      135.0,      34.32,    36.22,    34.61,    30.39,    36.05
      136.0,      34.20,    36.09,    34.42,    30.32,    35.95
      137.0,      34.08,    35.97,    34.23,    30.26,    35.85
      138.0,      33.96,    35.85,    34.05,    30.19,    35.75
      139.0,      33.84,    35.73,    33.87,    30.12,    35.66
      140.0,      33.73,    35.61,    33.69,    30.05,    35.57
      141.0,      33.62,    35.49,    33.51,    29.98,    35.48
      142.0,      33.50,    35.37,    33.33,    29.91,    35.39
      143.0,      33.39,    35.26,    33.16,    29.85,    35.31
      144.0,      33.28,    35.14,    32.99,    29.78,    35.23
      145.0,      33.18,    35.03,    32.81,    29.71,    35.15
      146.0,      33.07,    34.92,    32.64,    29.64,    35.07
      147.0,      32.96,    34.81,    32.47,    29.58,    34.99
      148.0,      32.86,    34.70,    32.30,    29.51,    34.92
      149.0,      32.75,    34.59,    32.14,    29.44,    34.84
      150.0,      32.65,    34.48,    31.97,    29.38,    34.77
      151.0,      32.55,    34.37,    31.81,    29.31,    34.70
      152.0,      32.45,    34.27,    31.65,    29.25,    34.63
      153.0,      32.35,    34.16,    31.49,    29.18,    34.56
      154.0,      32.25,    34.06,    31.33,    29.11,    34.50
      155.0,      32.15,    33.96,    31.17,    29.05,    34.43
      156.0,      32.05,    33.85,    31.01,    28.98,    34.37
      157.0,      31.96,    33.75,    30.86,    28.92,    34.31
      158.0,      31.86,    33.65,    30.70,    28.85,    34.25
      159.0,      31.77,    33.55,    30.55,    28.79,    34.19
      160.0,      31.68,    33.45,    30.40,    28.73,    34.13
      161.0,      31.58,    33.36,    30.25,    28.66,    34.07
      162.0,      31.49,    33.26,    30.10,    28.60,    34.01
      163.0,      31.40,    33.17,    29.95,    28.53,    33.96
      164.0,      31.31,    33.07,    29.81,    28.47,    33.90
      165.0,      31.22,    32.98,    29.66,    28.41,    33.85
      166.0,      31.13,    32.88,    29.52,    28.34,    33.79
      167.0,      31.05,    32.79,    29.37,    28.28,    33.74
      168.0,      30.96,    32.70,    29.23,    28.22,    33.69
      169.0,      30.87,    32.61,    29.09,    28.16,    33.64
      170.0,      30.79,    32.52,    28.95,    28.09,    33.59
      171.0,      30.70,    32.43,    28.82,    28.03,    33.54
      172.0,      30.62,    32.34,    28.68,    27.97,    33.49
      173.0,      30.54,    32.26,    28.54,    27.91,    33.44
      174.0,      30.46,    32.17,    28.41,    27.85,    33.39
      175.0,      30.37,    32.08,    28.28,    27.79,    33.35
      176.0,      30.29,    32.00,    28.14,    27.72,    33.30
      177.0,      30.21,    31.91,    28.01,    27.66,    33.26
      178.0,      30.13,    31.83,    27.88,    27.60,    33.21
      179.0,      30.05,    31.75,    27.75,    27.54,    33.17
      180.0,      29.97,    31.67,    27.63,    27.48,    33.12
      181.0,      29.90,    31.58,    27.50,    27.42,    33.08
      182.0,      29.82,    31.50,    27.37,    27.36,    33.03
      183.0,      29.74,    31.42,    27.25,    27.30,    32.99
      184.0,      29.67,    31.35,    27.13,    27.24,    32.95
      185.0,      29.59,    31.27,    27.00,    27.18,    32.91
      186.0,      29.52,    31.19,    26.88,    27.12,    32.87
      187.0,      29.44,    31.11,    26.76,    27.07,    32.82
      188.0,      29.37,    31.03,    26.64,    27.01,    32.78
      189.0,      29.29,    30.96,    26.52,    26.95,    32.74
      190.0,      29.22,    30.88,    26.41,    26.89,    32.70
      191.0,      29.15,    30.81,    26.29,    26.83,    32.66
      192.0,      29.08,    30.73,    26.18,    26.77,    32.62
      193.0,      29.01,    30.66,    26.06,    26.71,    32.58
      194.0,      28.93,    30.59,    25.95,    26.66,    32.54
      195.0,      28.86,    30.52,    25.83,    26.60,    32.51
      196.0,      28.79,    30.44,    25.72,    26.54,    32.47
      197.0,      28.73,    30.37,    25.61,    26.48,    32.43
      198.0,      28.66,    30.30,    25.50,    26.43,    32.39
      199.0,      28.59,    30.23,    25.39,    26.37,    32.35
      200.0,      28.52,    30.16,    25.29,    26.31,    32.32
      201.0,      28.45,    30.10,    25.18,    26.26,    32.28
      202.0,      28.39,    30.03,    25.07,    26.20,    32.24
      203.0,      28.32,    29.96,    24.97,    26.14,    32.21
      204.0,      28.25,    29.89,    24.86,    26.09,    32.17
      205.0,      28.19,    29.83,    24.76,    26.03,    32.13
      206.0,      28.12,    29.76,    24.66,    25.98,    32.10
      207.0,      28.06,    29.69,    24.55,    25.92,    32.06
      208.0,      27.99,    29.63,    24.45,    25.87,    32.03
      209.0,      27.93,    29.56,    24.35,    25.81,    31.99
      210.0,      27.87,    29.50,    24.25,    25.76,    31.96
      211.0,      27.80,    29.44,    24.15,    25.70,    31.92
      212.0,      27.74,    29.37,    24.06,    25.65,    31.88
      213.0,      27.68,    29.31,    23.96,    25.59,    31.85
      214.0,      27.62,    29.25,    23.86,    25.54,    31.82
      215.0,      27.55,    29.19,    23.77,    25.48,    31.78
      216.0,      27.49,    29.13,    23.67,    25.43,    31.75
      217.0,      27.43,    29.07,    23.58,    25.37,    31.71
      218.0,      27.37,    29.01,    23.49,    25.32,    31.68
      219.0,      27.31,    28.95,    23.39,    25.27,    31.64
      220.0,      27.25,    28.89,    23.30,    25.21,    31.61
      221.0,      27.19,    28.83,    23.21,    25.16,    31.58
      222.0,      27.13,    28.77,    23.12,    25.11,    31.54
      223.0,      27.08,    28.71,    23.03,    25.05,    31.51
      224.0,      27.02,    28.65,    22.94,    25.00,    31.48
      225.0,      26.96,    28.60,    22.85,    24.95,    31.44
      226.0,      26.90,    28.54,    22.77,    24.90,    31.41
      227.0,      26.85,    28.48,    22.68,    24.84,    31.38
      228.0,      26.79,    28.43,    22.59,    24.79,    31.34
      229.0,      26.73,    28.37,    22.51,    24.74,    31.31
      230.0,      26.68,    28.32,    22.42,    24.69,    31.28
      231.0,      26.62,    28.26,    22.34,    24.64,    31.24
      232.0,      26.56,    28.21,    22.26,    24.58,    31.21
      233.0,      26.51,    28.15,    22.17,    24.53,    31.18
      234.0,      26.45,    28.10,    22.09,    24.48,    31.15
      235.0,      26.40,    28.04,    22.01,    24.43,    31.11
      236.0,      26.35,    27.99,    21.93,    24.38,    31.08
      237.0,      26.29,    27.94,    21.85,    24.33,    31.05
      238.0,      26.24,    27.89,    21.77,    24.28,    31.02
      239.0,      26.19,    27.83,    21.69,    24.23,    30.99
      240.0,      26.13,    27.78,    21.61,    24.18,    30.95
      241.0,      26.08,    27.73,    21.54,    24.13,    30.92
      242.0,      26.03,    27.68,    21.46,    24.08,    30.89
      243.0,      25.97,    27.63,    21.38,    24.03,    30.86
      244.0,      25.92,    27.58,    21.31,    23.98,    30.83
      245.0,      25.87,    27.53,    21.23,    23.93,    30.80
      246.0,      25.82,    27.48,    21.16,    23.88,    30.76
      247.0,      25.77,    27.43,    21.08,    23.83,    30.73
      248.0,      25.72,    27.38,    21.01,    23.78,    30.70
      249.0,      25.67,    27.33,    20.94,    23.73,    30.67
      250.0,      25.62,    27.29,    20.87,    23.68,    30.64
      251.0,      25.57,    27.24,    20.79,    23.63,    30.61
      252.0,      25.52,    27.19,    20.72,    23.58,    30.58
      253.0,      25.47,    27.14,    20.65,    23.53,    30.54
      254.0,      25.42,    27.10,    20.58,    23.49,    30.51
      255.0,      25.37,    27.05,    20.51,    23.44,    30.48
      256.0,      25.32,    27.00,    20.44,    23.39,    30.45
      257.0,      25.27,    26.96,    20.37,    23.34,    30.42
      258.0,      25.22,    26.91,    20.31,    23.29,    30.39
      259.0,      25.18,    26.86,    20.24,    23.25,    30.36
      260.0,      25.13,    26.82,    20.17,    23.20,    30.33
      261.0,      25.08,    26.77,    20.11,    23.15,    30.30
      262.0,      25.03,    26.73,    20.04,    23.10,    30.27
      263.0,      24.99,    26.68,    19.97,    23.06,    30.24
      264.0,      24.94,    26.64,    19.91,    23.01,    30.21
      265.0,      24.89,    26.60,    19.84,    22.96,    30.17
      266.0,      24.85,    26.55,    19.78,    22.92,    30.14
      267.0,      24.80,    26.51,    19.72,    22.87,    30.11
      268.0,      24.76,    26.47,    19.65,    22.82,    30.08
      269.0,      24.71,    26.42,    19.59,    22.78,    30.05
      270.0,      24.67,    26.38,    19.53,    22.73,    30.02
      271.0,      24.62,    26.34,    19.47,    22.68,    29.99
      272.0,      24.58,    26.29,    19.41,    22.64,    29.96
      273.0,      24.53,    26.25,    19.35,    22.59,    29.93
      274.0,      24.49,    26.21,    19.29,    22.55,    29.90
      275.0,      24.44,    26.17,    19.23,    22.50,    29.87
      276.0,      24.40,    26.13,    19.17,    22.45,    29.84
      277.0,      24.35,    26.09,    19.11,    22.41,    29.81
      278.0,      24.31,    26.05,    19.05,    22.36,    29.78
      279.0,      24.27,    26.00,    18.99,    22.32,    29.75
      280.0,      24.22,    25.96,    18.93,    22.27,    29.72
      281.0,      24.18,    25.92,    18.88,    22.23,    29.69
      282.0,      24.14,    25.88,    18.82,    22.18,    29.66
      283.0,      24.09,    25.84,    18.76,    22.14,    29.63
      284.0,      24.05,    25.80,    18.71,    22.09,    29.60
      285.0,      24.01,    25.76,    18.65,    22.05,    29.57
      286.0,      23.97,    25.73,    18.60,    22.01,    29.54
      287.0,      23.93,    25.69,    18.54,    21.96,    29.51
      288.0,      23.88,    25.65,    18.49,    21.92,    29.48
      289.0,      23.84,    25.61,    18.43,    21.87,    29.45
      290.0,      23.80,    25.57,    18.38,    21.83,    29.42
      291.0,      23.76,    25.53,    18.33,    21.79,    29.39
      292.0,      23.72,    25.49,    18.28,    21.74,    29.36
      293.0,      23.68,    25.46,    18.22,    21.70,    29.34
      294.0,      23.64,    25.42,    18.17,    21.66,    29.31
      295.0,      23.60,    25.38,    18.12,    21.61,    29.28
      296.0,      23.56,    25.34,    18.07,    21.57,    29.25
      297.0,      23.52,    25.31,    18.02,    21.53,    29.22
      298.0,      23.48,    25.27,    17.97,    21.48,    29.19
      299.0,      23.44,    25.23,    17.92,    21.44,    29.16
      300.0,      23.40,    25.20,    17.87,    21.40,    29.13
      301.0,      23.36,    25.16,    17.82,    21.36,    29.10
      302.0,      23.32,    25.12,    17.77,    21.31,    29.07
      303.0,      23.28,    25.09,    17.72,    21.27,    29.04
      304.0,      23.24,    25.05,    17.67,    21.23,    29.01
      305.0,      23.20,    25.02,    17.62,    21.19,    28.98
      306.0,      23.16,    24.98,    17.57,    21.15,    28.96
      307.0,      23.13,    24.94,    17.53,    21.10,    28.93
      308.0,      23.09,    24.91,    17.48,    21.06,    28.90
      309.0,      23.05,    24.87,    17.43,    21.02,    28.87
      310.0,      23.01,    24.84,    17.39,    20.98,    28.84
