Radius (km), Mean (m/s), NE (m/s), SE (m/s), SW (m/s), NW (m/s)
        0.0,       0.00,     0.00,     0.00,     0.00,     0.00
        1.0,       1.66,     1.35,     1.65,     1.99,     1.65
        2.0,       2.91,     2.60,     2.95,     3.14,     2.95
        3.0,       4.05,     3.83,     4.14,     4.11,     4.14
        4.0,       5.13,     5.03,     5.26,     4.97,     5.26
        5.0,       6.16,     6.22,     6.34,     5.75,     6.34
        6.0,       7.16,     7.40,     7.38,     6.49,     7.38
        7.0,       8.14,     8.57,     8.40,     7.18,     8.40
        8.0,       9.09,     9.73,     9.39,     7.84,     9.39
        9.0,      10.02,    10.89,    10.36,     8.48,    10.36
       10.0,      10.94,    12.04,    11.31,     9.09,    11.31
       11.0,      11.84,    13.18,    12.25,     9.68,    12.25
       12.0,      12.73,    14.32,    13.17,    10.25,    13.17
       13.0,      13.61,    15.45,    14.08,    10.80,    14.08
       14.0,      14.47,    16.58,    14.98,    11.35,    14.98
       15.0,      15.33,    17.70,    15.87,    11.87,    15.87
       16.0,      16.18,    18.82,    16.75,    12.39,    16.75
       17.0,      17.02,    19.94,    17.62,    12.89,    17.62
       18.0,      17.85,    21.05,    18.48,    13.39,    18.48
       19.0,      18.68,    22.17,    19.34,    13.88,    19.34
       20.0,      19.50,    23.27,    20.19,    14.35,    20.19
       21.0,      20.32,    24.38,    21.03,    14.82,    21.03
       22.0,      21.14,    25.50,    21.91,    15.29,    21.87
       23.0,      22.01,    26.66,    22.85,    15.77,    22.75
       24.0,      22.95,    27.92,    23.91,    16.27,    23.69
       25.0,      23.99,    29.32,    25.11,    16.80,    24.73
       26.0,      25.15,    30.89,    26.45,    17.37,    25.87
       27.0,      26.40,    32.62,    27.89,    17.98,    27.11
       28.0,      27.70,    34.44,    29.38,    18.60,    28.40
       29.0,      29.00,    36.28,    30.81,    19.23,    29.68
       30.0,      30.21,    38.02,    32.12,    19.82,    30.89
       31.0,      31.27,    39.58,    33.21,    20.35,    31.96
       32.0,      32.12,    40.84,    34.02,    20.79,    32.84
       33.0,      32.72,    41.75,    34.52,    21.14,    33.48
       34.0,      33.06,    42.28,    34.71,    21.38,    33.88
       35.0,      33.15,    42.44,    34.62,    21.52,    34.04
       36.0,      33.03,    42.28,    34.29,    21.57,    33.99
       37.0,      32.75,    41.86,    33.80,    21.55,    33.79
       38.0,      32.36,    41.26,    33.21,    21.48,    33.48
       39.0,      31.92,    40.58,    32.58,    21.39,    33.12
       40.0,      31.46,    39.86,    31.95,    21.28,    32.74
       41.0,      31.02,    39.17,    31.35,    21.18,    32.37
       42.0,      30.60,    38.52,    30.78,    21.07,    32.03
       43.0,      30.21,    37.91,    30.24,    20.98,    31.70
       44.0,      29.83,    37.33,    29.73,    20.88,    31.39
       45.0,      29.47,    36.77,    29.23,    20.79,    31.09
       46.0,      29.12,    36.23,    28.75,    20.70,    30.80
       47.0,      28.78,    35.71,    28.29,    20.61,    30.52
       48.0,      28.46,    35.21,    27.85,    20.52,    30.25
       49.0,      28.14,    34.73,    27.42,    20.43,    29.99
       50.0,      27.84,    34.26,    27.01,    20.34,    29.74
       51.0,      27.54,    33.81,    26.61,    20.25,    29.49
       52.0,      27.26,    33.38,    26.23,    20.16,    29.26
       53.0,      26.98,    32.96,    25.87,    20.07,    29.03
       54.0,      26.72,    32.56,    25.51,    19.98,    28.81
       55.0,      26.46,    32.17,    25.18,    19.89,    28.59
       56.0,      26.21,    31.79,    24.85,    19.81,    28.38
       57.0,      25.97,    31.43,    24.53,    19.72,    28.18
       58.0,      25.73,    31.08,    24.23,    19.64,    27.98
       59.0,      25.51,    30.74,    23.94,    19.55,    27.79
       60.0,      25.29,    30.42,    23.66,    19.47,    27.61
       61.0,      25.08,    30.10,    23.39,    19.38,    27.43
       62.0,      24.87,    29.79,    23.13,    19.30,    27.26
       63.0,      24.67,    29.50,    22.88,    19.22,    27.09
       64.0,      24.48,    29.21,    22.64,    19.14,    26.92
       65.0,      24.29,    28.94,    22.40,    19.05,    26.76
       66.0,      24.11,    28.67,    22.18,    18.97,    26.61
       67.0,      23.93,    28.41,    21.96,    18.89,    26.46
       68.0,      23.76,    28.16,    21.75,    18.81,    26.31
       69.0,      23.59,    27.92,    21.55,    18.73,    26.17
       70.0,      23.43,    27.69,    21.36,    18.65,    26.03
       71.0,      23.28,    27.46,    21.17,    18.58,    25.90
       72.0,      23.12,    27.24,    20.99,    18.50,    25.77
       73.0,      22.98,    27.03,    20.82,    18.42,    25.64
       74.0,      22.83,    26.82,    20.65,    18.34,    25.51
       75.0,      22.69,    26.62,    20.49,    18.27,    25.39
       76.0,      22.56,    26.43,    20.33,    18.19,    25.27
       77.0,      22.43,    26.24,    20.18,    18.12,    25.16
       78.0,      22.30,    26.06,    20.04,    18.04,    25.05
       79.0,      22.17,    25.89,    19.90,    17.97,    24.94
       80.0,      22.05,    25.71,    19.76,    17.89,    24.83
       81.0,      21.93,    25.55,    19.63,    17.82,    24.72
       82.0,      21.81,    25.39,    19.51,    17.74,    24.62
       83.0,      21.70,    25.23,    19.38,    17.67,    24.52
       84.0,      21.59,    25.08,    19.27,    17.60,    24.42
       85.0,      21.48,    24.93,    19.15,    17.53,    24.33
       86.0,      21.38,    24.78,    19.04,    17.46,    24.23
       87.0,      21.28,    24.64,    18.94,    17.39,    24.14
       88.0,      21.18,    24.51,    18.83,    17.32,    24.05
       89.0,      21.08,    24.38,    18.73,    17.25,    23.96
       90.0,      20.99,    24.25,    18.64,    17.18,    23.88
       91.0,      20.89,    24.12,    18.55,    17.11,    23.79
       92.0,      20.80,    24.00,    18.46,    17.04,    23.71
       93.0,      20.71,    23.88,    18.37,    16.97,    23.63
       94.0,      20.63,    23.76,    18.28,    16.90,    23.55
       95.0,      20.54,    23.65,    18.20,    16.84,    23.47
       96.0,      20.46,    23.54,    18.12,    16.77,    23.40
       97.0,      20.38,    23.43,    18.05,    16.70,    23.32
       98.0,      20.30,    23.33,    17.97,    16.64,    23.25
       99.0,      20.22,    23.22,    17.90,    16.57,    23.17
      100.0,      20.14,    23.12,    17.83,    16.51,    23.10
      101.0,      20.07,    23.03,    17.76,    16.44,    23.03
      102.0,      19.99,    22.93,    17.70,    16.38,    22.96
      103.0,      19.92,    22.84,    17.63,    16.31,    22.89
      104.0,      19.85,    22.74,    17.57,    16.25,    22.83
      105.0,      19.78,    22.65,    17.51,    16.19,    22.76
      106.0,      19.71,    22.57,    17.45,    16.12,    22.70
      107.0,      19.64,    22.48,    17.40,    16.06,    22.63
      108.0,      19.58,    22.40,    17.34,    16.00,    22.57
      109.0,      19.51,    22.31,    17.29,    15.94,    22.51
      110.0,      19.45,    22.23,    17.24,    15.88,    22.44
      111.0,      19.38,    22.15,    17.19,    15.81,    22.38
      112.0,      19.32,    22.08,    17.14,    15.75,    22.32
      113.0,      19.26,    22.00,    17.09,    15.69,    22.26
      114.0,      19.20,    21.92,    17.04,    15.63,    22.21
      115.0,      19.14,    21.85,    17.00,    15.57,    22.15
      116.0,      19.08,    21.78,    16.95,    15.52,    22.09
      117.0,      19.03,    21.71,    16.91,    15.46,    22.03
      118.0,      18.97,    21.64,    16.87,    15.40,    21.98
      119.0,      18.91,    21.57,    16.83,    15.34,    21.92
      120.0,      18.86,    21.50,    16.79,    15.28,    21.87
      121.0,      18.81,    21.43,    16.75,    15.23,    21.81
      122.0,      18.75,    21.37,    16.71,    15.17,    21.76
      123.0,      18.70,    21.30,    16.67,    15.11,    21.71
      124.0,      18.65,    21.24,    16.63,    15.06,    21.66
      125.0,      18.60,    21.18,    16.60,    15.00,    21.60
      126.0,      18.54,    21.12,    16.56,    14.95,    21.55
      127.0,      18.49,    21.06,    16.53,    14.89,    21.50
      128.0,      18.44,    21.00,    16.50,    14.84,    21.45
      129.0,      18.40,    20.94,    16.46,    14.78,    21.40
      130.0,      18.35,    20.88,    16.43,    14.73,    21.35
      131.0,      18.30,    20.82,    16.40,    14.67,    21.30
      132.0,      18.25,    20.76,    16.37,    14.62,    21.25
      133.0,      18.20,    20.71,    16.34,    14.57,    21.20
      134.0,      18.16,    20.65,    16.31,    14.51,    21.16
      135.0,      18.11,    20.60,    16.28,    14.46,    21.11
      136.0,      18.07,    20.54,    16.25,    14.41,    21.06
      137.0,      18.02,    20.49,    16.22,    14.36,    21.01
      138.0,      17.98,    20.44,    16.20,    14.31,    20.97
      139.0,      17.93,    20.38,    16.17,    14.26,    20.92
      140.0,      17.89,    20.33,    16.14,    14.20,    20.87
      141.0,      17.84,    20.28,    16.12,    14.15,    20.83
      142.0,      17.80,    20.23,    16.09,    14.10,    20.78
      143.0,      17.76,    20.18,    16.07,    14.05,    20.74
      144.0,      17.72,    20.13,    16.04,    14.00,    20.69
      145.0,      17.67,    20.08,    16.02,    13.96,    20.65
      146.0,      17.63,    20.03,    15.99,    13.91,    20.60
      147.0,      17.59,    19.98,    15.97,    13.86,    20.56
      148.0,      17.55,    19.93,    15.94,    13.81,    20.51
      149.0,      17.51,    19.89,    15.92,    13.76,    20.47
      150.0,      17.47,    19.84,    15.90,    13.71,    20.43
      151.0,      17.43,    19.79,    15.88,    13.67,    20.38
      152.0,      17.39,    19.74,    15.85,    13.62,    20.34
      153.0,      17.35,    19.70,    15.83,    13.57,    20.30
      154.0,      17.31,    19.65,    15.81,    13.53,    20.25
      155.0,      17.27,    19.61,    15.79,    13.48,    20.21
      156.0,      17.23,    19.56,    15.77,    13.43,    20.17
      157.0,      17.19,    19.52,    15.75,    13.39,    20.13
      158.0,      17.16,    19.47,    15.72,    13.34,    20.09
      159.0,      17.12,    19.43,    15.70,    13.30,    20.04
      160.0,      17.08,    19.38,    15.68,    13.25,    20.00
      161.0,      17.04,    19.34,    15.66,    13.21,    19.96
      162.0,      17.01,    19.30,    15.64,    13.16,    19.92
      163.0,      16.97,    19.25,    15.62,    13.12,    19.88
      164.0,      16.93,    19.21,    15.60,    13.07,    19.84
      165.0,      16.89,    19.17,    15.58,    13.03,    19.80
      166.0,      16.86,    19.12,    15.57,    12.99,    19.76
      167.0,      16.82,    19.08,    15.55,    12.94,    19.72
      168.0,      16.79,    19.04,    15.53,    12.90,    19.68
      169.0,      16.75,    19.00,    15.51,    12.86,    19.64
      170.0,      16.71,    18.96,    15.49,    12.82,    19.60
      171.0,      16.68,    18.92,    15.47,    12.77,    19.56
      172.0,      16.64,    18.87,    15.45,    12.73,    19.52
      173.0,      16.61,    18.83,    15.43,    12.69,    19.48
      174.0,      16.57,    18.79,    15.42,    12.65,    19.44
      175.0,      16.54,    18.75,    15.40,    12.61,    19.40
      176.0,      16.50,    18.71,    15.38,    12.57,    19.36
      177.0,      16.47,    18.67,    15.36,    12.53,    19.32
      178.0,      16.44,    18.63,    15.35,    12.49,    19.28
      179.0,      16.40,    18.59,    15.33,    12.45,    19.24
      180.0,      16.37,    18.55,    15.31,    12.41,    19.20
      181.0,      16.33,    18.51,    15.29,    12.37,    19.16
      182.0,      16.30,    18.47,    15.28,    12.33,    19.13
      183.0,      16.27,    18.43,    15.26,    12.29,    19.09
      184.0,      16.23,    18.39,    15.24,    12.25,    19.05
      185.0,      16.20,    18.36,    15.22,    12.21,    19.01
      186.0,      16.17,    18.32,    15.21,    12.17,    18.97
      187.0,      16.13,    18.28,    15.19,    12.13,    18.94
      188.0,      16.10,    18.24,    15.17,    12.09,    18.90
      189.0,      16.07,    18.20,    15.16,    12.06,    18.86
      190.0,      16.04,    18.16,    15.14,    12.02,    18.82
      191.0,      16.00,    18.12,    15.12,    11.98,    18.79
      192.0,      15.97,    18.09,    15.11,    11.94,    18.75
      193.0,      15.94,    18.05,    15.09,    11.91,    18.71
      194.0,      15.91,    18.01,    15.08,    11.87,    18.67
      195.0,      15.88,    17.97,    15.06,    11.83,    18.64
      196.0,      15.84,    17.94,    15.04,    11.80,    18.60
      197.0,      15.81,    17.90,    15.03,    11.76,    18.56
      198.0,      15.78,    17.86,    15.01,    11.73,    18.53
      199.0,      15.75,    17.82,    14.99,    11.69,    18.49
      200.0,      15.72,    17.79,    14.98,    11.65,    18.45
      201.0,      15.69,    17.75,    14.96,    11.62,    18.42
      202.0,      15.66,    17.71,    14.95,    11.58,    18.38
      203.0,      15.63,    17.68,    14.93,    11.55,    18.34
      204.0,      15.59,    17.64,    14.92,    11.51,    18.31
      205.0,      15.56,    17.60,    14.90,    11.48,    18.27
      206.0,      15.53,    17.57,    14.88,    11.45,    18.23
      207.0,      15.50,    17.53,    14.87,    11.41,    18.20
      208.0,      15.47,    17.50,    14.85,    11.38,    18.16
      209.0,      15.44,    17.46,    14.84,    11.34,    18.13
      210.0,      15.41,    17.42,    14.82,    11.31,    18.09
      211.0,      15.38,    17.39,    14.81,    11.28,    18.06
      212.0,      15.35,    17.35,    14.79,    11.24,    18.02
      213.0,      15.32,    17.32,    14.78,    11.21,    17.98
      214.0,      15.29,    17.28,    14.76,    11.18,    17.95
      215.0,      15.26,    17.25,    14.75,    11.15,    17.91
      216.0,      15.23,    17.21,    14.73,    11.11,    17.88
      217.0,      15.20,    17.17,    14.71,    11.08,    17.84
      218.0,      15.17,    17.14,    14.70,    11.05,    17.81
      219.0,      15.14,    17.10,    14.68,    11.02,    17.77
      220.0,      15.12,    17.07,    14.67,    10.99,    17.74
      221.0,      15.09,    17.03,    14.65,    10.95,    17.70
      222.0,      15.06,    17.00,    14.64,    10.92,    17.67
      223.0,      15.03,    16.97,    14.62,    10.89,    17.63
      224.0,      15.00,    16.93,    14.61,    10.86,    17.60
      225.0,      14.97,    16.90,    14.59,    10.83,    17.56
      226.0,      14.94,    16.86,    14.58,    10.80,    17.53
      227.0,      14.91,    16.83,    14.56,    10.77,    17.50
      228.0,      14.89,    16.79,    14.55,    10.74,    17.46
      229.0,      14.86,    16.76,    14.53,    10.71,    17.43
      230.0,      14.83,    16.72,    14.52,    10.68,    17.39
      231.0,      14.80,    16.69,    14.51,    10.65,    17.36
      232.0,      14.77,    16.66,    14.49,    10.62,    17.32
      233.0,      14.74,    16.62,    14.48,    10.59,    17.29
      234.0,      14.72,    16.59,    14.46,    10.56,    17.26
      235.0,      14.69,    16.55,    14.45,    10.53,    17.22
      236.0,      14.66,    16.52,    14.43,    10.50,    17.19
      237.0,      14.63,    16.49,    14.42,    10.47,    17.16
      238.0,      14.61,    16.45,    14.40,    10.44,    17.12
      239.0,      14.58,    16.42,    14.39,    10.42,    17.09
      240.0,      14.55,    16.39,    14.37,    10.39,    17.05
      241.0,      14.52,    16.35,    14.36,    10.36,    17.02
      242.0,      14.50,    16.32,    14.34,    10.33,    16.99
      243.0,      14.47,    16.29,    14.33,    10.30,    16.95
      244.0,      14.44,    16.25,    14.32,    10.28,    16.92
      245.0,      14.41,    16.22,    14.30,    10.25,    16.89
      246.0,      14.39,    16.19,    14.29,    10.22,    16.86
      247.0,      14.36,    16.16,    14.27,    10.19,    16.82
      248.0,      14.33,    16.12,    14.26,    10.17,    16.79
      249.0,      14.31,    16.09,    14.24,    10.14,    16.76
      250.0,      14.28,    16.06,    14.23,    10.11,    16.72
      251.0,      14.25,    16.03,    14.21,    10.09,    16.69
      252.0,      14.23,    15.99,    14.20,    10.06,    16.66
      253.0,      14.20,    15.96,    14.19,    10.03,    16.63
      254.0,      14.18,    15.93,    14.17,    10.01,    16.59
      255.0,      14.15,    15.90,    14.16,     9.98,    16.56
      256.0,      14.12,    15.86,    14.14,     9.96,    16.53
      257.0,      14.10,    15.83,    14.13,     9.93,    16.50
      258.0,      14.07,    15.80,    14.11,     9.90,    16.46
      259.0,      14.04,    15.77,    14.10,     9.88,    16.43
      260.0,      14.02,    15.74,    14.09,     9.85,    16.40
      261.0,      13.99,    15.70,    14.07,     9.83,    16.37
      262.0,      13.97,    15.67,    14.06,     9.80,    16.34
      263.0,      13.94,    15.64,    14.04,     9.78,    16.30
      264.0,      13.92,    15.61,    14.03,     9.75,    16.27
      265.0,      13.89,    15.58,    14.02,     9.73,    16.24
      266.0,      13.86,    15.55,    14.00,     9.70,    16.21
      267.0,      13.84,    15.51,    13.99,     9.68,    16.18
      268.0,      13.81,    15.48,    13.97,     9.65,    16.14
      269.0,      13.79,    15.45,    13.96,     9.63,    16.11
      270.0,      13.76,    15.42,    13.95,     9.61,    16.08
      271.0,      13.74,    15.39,    13.93,     9.58,    16.05
      272.0,      13.71,    15.36,    13.92,     9.56,    16.02
      273.0,      13.69,    15.33,    13.90,     9.53,    15.99
      274.0,      13.66,    15.30,    13.89,     9.51,    15.96
      275.0,      13.64,    15.26,    13.88,     9.49,    15.92
      276.0,      13.61,    15.23,    13.86,     9.46,    15.89
      277.0,      13.59,    15.20,    13.85,     9.44,    15.86
      278.0,      13.56,    15.17,    13.83,     9.42,    15.83
      279.0,      13.54,    15.14,    13.82,     9.40,    15.80
      280.0,      13.51,    15.11,    13.81,     9.37,    15.77
      281.0,      13.49,    15.08,    13.79,     9.35,    15.74
      282.0,      13.47,    15.05,    13.78,     9.33,    15.71
      283.0,      13.44,    15.02,    13.76,     9.30,    15.68
      284.0,      13.42,    14.99,    13.75,     9.28,    15.65
      285.0,      13.39,    14.96,    13.74,     9.26,    15.62
      286.0,      13.37,    14.93,    13.72,     9.24,    15.59
      287.0,      13.34,    14.90,    13.71,     9.22,    15.56
      288.0,      13.32,    14.87,    13.70,     9.19,    15.52
      289.0,      13.30,    14.84,    13.68,     9.17,    15.49
      290.0,      13.27,    14.81,    13.67,     9.15,    15.46
      291.0,      13.25,    14.78,    13.65,     9.13,    15.43
      292.0,      13.22,    14.75,    13.64,     9.11,    15.40
      293.0,      13.20,    14.72,    13.63,     9.09,    15.37
      294.0,      13.18,    14.69,    13.61,     9.06,    15.34
      295.0,      13.15,    14.66,    13.60,     9.04,    15.31
      296.0,      13.13,    14.63,    13.59,     9.02,    15.28
      297.0,      13.11,    14.60,    13.57,     9.00,    15.25
      298.0,      13.08,    14.57,    13.56,     8.98,    15.22
      299.0,      13.06,    14.54,    13.55,     8.96,    15.19
      300.0,      13.04,    14.51,    13.53,     8.94,    15.16
      301.0,      13.01,    14.48,    13.52,     8.92,    15.13
      302.0,      12.99,    14.45,    13.51,     8.90,    15.11
      303.0,      12.97,    14.42,    13.49,     8.88,    15.08
      304.0,      12.94,    14.39,    13.48,     8.86,    15.05
      305.0,      12.92,    14.37,    13.46,     8.84,    15.02
      306.0,      12.90,    14.34,    13.45,     8.82,    14.99
      307.0,      12.88,    14.31,    13.44,     8.80,    14.96
      308.0,      12.85,    14.28,    13.42,     8.78,    14.93
      309.0,      12.83,    14.25,    13.41,     8.76,    14.90
      310.0,      12.81,    14.22,    13.40,     8.74,    14.87
