Radius (km), Mean (m/s), NE (m/s), SE (m/s), SW (m/s), NW (m/s)
        0.0,       0.00,     0.00,     0.00,     0.00,     0.00
        1.0,       0.88,     0.75,     0.75,     0.98,     1.04
        2.0,       1.50,     1.33,     1.33,     1.63,     1.70
        3.0,       2.05,     1.87,     1.87,     2.19,     2.27
        4.0,       2.56,     2.37,     2.37,     2.71,     2.78
        5.0,       3.04,     2.86,     2.86,     3.19,     3.25
        6.0,       3.50,     3.33,     3.33,     3.65,     3.70
        7.0,       3.95,     3.79,     3.79,     4.08,     4.13
        8.0,       4.38,     4.23,     4.23,     4.50,     4.54
        9.0,       4.80,     4.67,     4.67,     4.91,     4.94
       10.0,       5.21,     5.10,     5.10,     5.31,     5.32
       11.0,       5.61,     5.52,     5.52,     5.69,     5.69
       12.0,       6.00,     5.94,     5.94,     6.07,     6.06
       13.0,       6.39,     6.35,     6.35,     6.43,     6.41
       14.0,       6.76,     6.75,     6.75,     6.79,     6.76
       15.0,       7.14,     7.16,     7.16,     7.15,     7.09
       16.0,       7.51,     7.55,     7.55,     7.49,     7.43
       17.0,       7.87,     7.94,     7.94,     7.83,     7.75
       18.0,       8.23,     8.33,     8.33,     8.17,     8.07
       19.0,       8.58,     8.72,     8.72,     8.50,     8.39
       20.0,       8.93,     9.10,     9.10,     8.83,     8.70
       21.0,       9.28,     9.48,     9.48,     9.15,     9.01
       22.0,       9.62,     9.85,     9.85,     9.47,     9.31
       23.0,       9.96,    10.22,    10.22,     9.78,     9.61
       24.0,      10.30,    10.59,    10.59,    10.09,     9.90
       25.0,      10.63,    10.96,    10.96,    10.40,    10.19
       26.0,      10.96,    11.33,    11.33,    10.70,    10.48
       27.0,      11.29,    11.69,    11.69,    11.00,    10.76
       28.0,      11.61,    12.05,    12.05,    11.30,    11.04
       29.0,      11.93,    12.41,    12.41,    11.60,    11.32
       30.0,      12.25,    12.76,    12.76,    11.89,    11.60
       31.0,      12.57,    13.12,    13.12,    12.18,    11.87
       32.0,      12.89,    13.47,    13.47,    12.46,    12.14
       33.0,      13.20,    13.82,    13.82,    12.75,    12.41
       34.0,      13.51,    14.17,    14.17,    13.03,    12.68
       35.0,      13.82,    14.52,    14.52,    13.31,    12.94
       36.0,      14.13,    14.86,    14.86,    13.59,    13.20
       37.0,      14.43,    15.21,    15.21,    13.87,    13.46
       38.0,      14.74,    15.55,    15.55,    14.14,    13.72
       39.0,      15.04,    15.89,    15.89,    14.41,    13.97
       40.0,      15.34,    16.23,    16.23,    14.68,    14.22
       41.0,      15.64,    16.57,    16.57,    14.95,    14.48
       42.0,      15.94,    16.90,    16.90,    15.22,    14.73
       43.0,      16.23,    17.24,    17.24,    15.48,    14.97
       44.0,      16.53,    17.57,    17.57,    15.75,    15.22
       45.0,      16.82,    17.91,    17.91,    16.01,    15.46
       46.0,      17.11,    18.24,    18.24,    16.27,    15.71
       47.0,      17.40,    18.57,    18.57,    16.53,    15.95
       48.0,      17.69,    18.90,    18.90,    16.79,    16.19
       49.0,      17.98,    19.23,    19.23,    17.04,    16.43
       50.0,      18.27,    19.55,    19.55,    17.30,    16.66
       51.0,      18.55,    19.88,    19.88,    17.55,    16.90
       52.0,      18.84,    20.21,    20.21,    17.80,    17.13
       53.0,      19.12,    20.53,    20.53,    18.05,    17.37
       54.0,      19.40,    20.85,    20.85,    18.30,    17.60
       55.0,      19.68,    21.17,    21.17,    18.55,    17.83
       56.0,      19.96,    21.49,    21.49,    18.80,    18.06
       57.0,      20.24,    21.82,    21.82,    19.04,    18.29
       58.0,      20.52,    22.13,    22.13,    19.29,    18.51
       59.0,      20.79,    22.45,    22.45,    19.53,    18.74
       60.0,      21.07,    22.77,    22.77,    19.77,    18.96
       61.0,      21.34,    23.09,    23.09,    20.02,    19.19
       62.0,      21.62,    23.40,    23.40,    20.26,    19.41
       63.0,      21.89,    23.72,    23.72,    20.50,    19.63
       64.0,      22.16,    24.03,    24.03,    20.73,    19.85
       65.0,      22.43,    24.34,    24.34,    20.97,    20.07
       66.0,      22.70,    24.66,    24.66,    21.21,    20.29
       67.0,      22.97,    24.97,    24.97,    21.44,    20.51
       68.0,      23.24,    25.28,    25.28,    21.68,    20.72
       69.0,      23.51,    25.59,    25.59,    21.91,    20.94
       70.0,      23.77,    25.90,    25.90,    22.14,    21.16
       71.0,      24.04,    26.21,    26.21,    22.38,    21.37
       72.0,      24.30,    26.51,    26.51,    22.61,    21.58
       73.0,      24.57,    26.82,    26.82,    22.84,    21.79
       74.0,      24.83,    27.13,    27.13,    23.07,    22.01
       75.0,      25.09,    27.43,    27.43,    23.29,    22.22
       76.0,      25.36,    27.74,    27.74,    23.52,    22.43
       77.0,      25.62,    28.04,    28.04,    23.75,    22.63
       78.0,      25.88,    28.35,    28.35,    23.98,    22.84
       79.0,      26.14,    28.65,    28.65,    24.20,    23.05
       80.0,      26.40,    28.95,    28.95,    24.42,    23.26
       81.0,      26.65,    29.25,    29.25,    24.65,    23.46
       82.0,      26.91,    29.56,    29.56,    24.87,    23.67
       83.0,      27.17,    29.86,    29.86,    25.09,    23.87
       84.0,      27.43,    30.16,    30.16,    25.32,    24.08
       85.0,      27.68,    30.46,    30.46,    25.54,    24.28
       86.0,      27.94,    30.75,    30.75,    25.76,    24.48
       87.0,      28.19,    31.05,    31.05,    25.98,    24.68
       88.0,      28.45,    31.35,    31.35,    26.20,    24.88
       89.0,      28.70,    31.65,    31.65,    26.41,    25.08
       90.0,      28.95,    31.94,    31.94,    26.63,    25.28
       91.0,      29.20,    32.24,    32.24,    26.85,    25.48
       92.0,      29.45,    32.54,    32.54,    27.06,    25.68
       93.0,      29.71,    32.83,    32.83,    27.28,    25.88
       94.0,      29.96,    33.13,    33.13,    27.49,    26.08
       95.0,      30.21,    33.42,    33.42,    27.71,    26.27
       96.0,      30.45,    33.71,    33.71,    27.92,    26.47
       97.0,      30.71,    34.01,    34.01,    28.14,    26.67
       98.0,      30.97,    34.33,    34.30,    28.36,    26.88
       99.0,      31.26,    34.68,    34.62,    28.61,    27.11
      100.0,      31.59,    35.10,    34.96,    28.91,    27.39
      101.0,      31.98,    35.60,    35.35,    29.26,    27.70
      102.0,      32.42,    36.18,    35.79,    29.66,    28.06
      103.0,      32.89,    36.79,    36.26,    30.09,    28.43
      104.0,      33.37,    37.41,    36.75,    30.54,    28.80
      105.0,      33.82,    37.98,    37.23,    30.94,    29.14
      106.0,      34.20,    38.44,    37.66,    31.28,    29.42
      107.0,      34.47,    38.75,    38.00,    31.52,    29.61
      108.0,      34.61,    38.88,    38.22,    31.62,    29.70
      109.0,      34.60,    38.81,    38.32,    31.59,    29.69
      110.0,      34.46,    38.56,    38.28,    31.42,    29.58
      111.0,      34.20,    38.15,    38.12,    31.13,    29.39
      112.0,      33.84,    37.62,    37.86,    30.75,    29.13
      113.0,      33.42,    37.01,    37.52,    30.31,    28.84
      114.0,      32.97,    36.38,    37.14,    29.85,    28.53
      115.0,      32.52,    35.74,    36.75,    29.38,    28.22
      116.0,      32.09,    35.13,    36.37,    28.93,    27.93
      117.0,      31.68,    34.56,    36.00,    28.51,    27.65
      118.0,      31.30,    34.02,    35.66,    28.11,    27.39
      119.0,      30.93,    33.50,    35.34,    27.74,    27.15
      120.0,      30.58,    33.01,    35.03,    27.38,    26.91
      121.0,      30.25,    32.54,    34.73,    27.03,    26.68
      122.0,      29.92,    32.08,    34.44,    26.70,    26.46
      123.0,      29.61,    31.64,    34.16,    26.37,    26.24
      124.0,      29.30,    31.22,    33.89,    26.06,    26.04
      125.0,      29.01,    30.81,    33.62,    25.76,    25.84
      126.0,      28.73,    30.42,    33.36,    25.47,    25.65
      127.0,      28.45,    30.04,    33.11,    25.19,    25.46
      128.0,      28.19,    29.68,    32.86,    24.92,    25.29
      129.0,      27.93,    29.32,    32.62,    24.66,    25.11
      130.0,      27.68,    28.98,    32.39,    24.41,    24.95
      131.0,      27.44,    28.66,    32.16,    24.17,    24.79
      132.0,      27.21,    28.34,    31.94,    23.93,    24.63
      133.0,      26.99,    28.04,    31.73,    23.71,    24.48
      134.0,      26.77,    27.74,    31.52,    23.49,    24.34
      135.0,      26.56,    27.46,    31.31,    23.28,    24.20
      136.0,      26.36,    27.19,    31.12,    23.08,    24.06
      137.0,      26.16,    26.93,    30.92,    22.88,    23.93
      138.0,      25.97,    26.67,    30.73,    22.69,    23.80
      139.0,      25.79,    26.43,    30.55,    22.51,    23.68
      140.0,      25.61,    26.19,    30.37,    22.33,    23.56
      141.0,      25.44,    25.96,    30.19,    22.16,    23.45
      142.0,      25.27,    25.74,    30.02,    21.99,    23.34
      143.0,      25.11,    25.53,    29.86,    21.83,    23.23
      144.0,      24.96,    25.32,    29.69,    21.68,    23.13
      145.0,      24.80,    25.13,    29.54,    21.53,    23.03
      146.0,      24.66,    24.94,    29.38,    21.39,    22.93
      147.0,      24.52,    24.75,    29.23,    21.25,    22.83
      148.0,      24.38,    24.57,    29.08,    21.11,    22.74
      149.0,      24.24,    24.40,    28.94,    20.98,    22.65
      150.0,      24.11,    24.23,    28.80,    20.85,    22.57
      151.0,      23.99,    24.07,    28.66,    20.73,    22.48
      152.0,      23.86,    23.92,    28.52,    20.61,    22.40
      153.0,      23.75,    23.77,    28.39,    20.50,    22.32
      154.0,      23.63,    23.62,    28.26,    20.39,    22.25
      155.0,      23.52,    23.48,    28.14,    20.28,    22.17
      156.0,      23.41,    23.34,    28.01,    20.18,    22.10
      157.0,      23.30,    23.21,    27.89,    20.08,    22.03
      158.0,      23.20,    23.09,    27.77,    19.98,    21.96
      159.0,      23.10,    22.96,    27.66,    19.88,    21.90
      160.0,      23.00,    22.84,    27.54,    19.79,    21.83
      161.0,      22.91,    22.73,    27.43,    19.70,    21.77
      162.0,      22.82,    22.62,    27.33,    19.62,    21.71
      163.0,      22.73,    22.51,    27.22,    19.53,    21.65
      164.0,      22.64,    22.40,    27.11,    19.45,    21.59
      165.0,      22.56,    22.30,    27.01,    19.37,    21.53
      166.0,      22.47,    22.20,    26.91,    19.30,    21.48
      167.0,      22.39,    22.11,    26.81,    19.22,    21.43
      168.0,      22.31,    22.01,    26.72,    19.15,    21.37
      169.0,      22.24,    21.92,    26.62,    19.08,    21.32
      170.0,      22.16,    21.84,    26.53,    19.01,    21.27
      171.0,      22.09,    21.75,    26.44,    18.94,    21.22
      172.0,      22.02,    21.67,    26.35,    18.88,    21.18
      173.0,      21.95,    21.59,    26.26,    18.82,    21.13
      174.0,      21.88,    21.51,    26.17,    18.76,    21.09
      175.0,      21.82,    21.44,    26.09,    18.70,    21.04
      176.0,      21.75,    21.37,    26.00,    18.64,    21.00
      177.0,      21.69,    21.29,    25.92,    18.58,    20.95
      178.0,      21.63,    21.23,    25.84,    18.53,    20.91
      179.0,      21.57,    21.16,    25.76,    18.47,    20.87
      180.0,      21.51,    21.09,    25.68,    18.42,    20.83
      181.0,      21.45,    21.03,    25.60,    18.37,    20.79
      182.0,      21.39,    20.97,    25.53,    18.32,    20.75
      183.0,      21.34,    20.91,    25.45,    18.27,    20.72
      184.0,      21.28,    20.85,    25.38,    18.23,    20.68
      185.0,      21.23,    20.79,    25.31,    18.18,    20.64
      186.0,      21.18,    20.74,    25.23,    18.14,    20.61
      187.0,      21.13,    20.68,    25.16,    18.09,    20.57
      188.0,      21.08,    20.63,    25.09,    18.05,    20.54
      189.0,      21.03,    20.58,    25.02,    18.01,    20.50
      190.0,      20.98,    20.53,    24.96,    17.97,    20.47
      191.0,      20.93,    20.48,    24.89,    17.93,    20.44
      192.0,      20.89,    20.43,    24.82,    17.89,    20.41
      193.0,      20.84,    20.38,    24.76,    17.85,    20.37
      194.0,      20.80,    20.34,    24.69,    17.81,    20.34
      195.0,      20.75,    20.29,    24.63,    17.77,    20.31
      196.0,      20.71,    20.25,    24.57,    17.74,    20.28
      197.0,      20.67,    20.20,    24.51,    17.70,    20.25
      198.0,      20.62,    20.16,    24.44,    17.67,    20.22
      199.0,      20.58,    20.12,    24.38,    17.63,    20.19
      200.0,      20.54,    20.08,    24.32,    17.60,    20.16
      201.0,      20.50,    20.04,    24.27,    17.57,    20.14
      202.0,      20.46,    20.00,    24.21,    17.53,    20.11
      203.0,      20.42,    19.96,    24.15,    17.50,    20.08
      204.0,      20.39,    19.93,    24.09,    17.47,    20.05
      205.0,      20.35,    19.89,    24.03,    17.44,    20.03
      206.0,      20.31,    19.85,    23.98,    17.41,    20.00
      207.0,      20.27,    19.82,    23.92,    17.38,    19.97
      208.0,      20.24,    19.78,    23.87,    17.35,    19.95
      209.0,      20.20,    19.75,    23.81,    17.32,    19.92
      210.0,      20.17,    19.72,    23.76,    17.29,    19.89
      211.0,      20.13,    19.68,    23.71,    17.27,    19.87
      212.0,      20.10,    19.65,    23.65,    17.24,    19.84
      213.0,      20.06,    19.62,    23.60,    17.21,    19.82
      214.0,      20.03,    19.59,    23.55,    17.19,    19.79
      215.0,      20.00,    19.56,    23.50,    17.16,    19.77
      216.0,      19.96,    19.53,    23.44,    17.13,    19.75
      217.0,      19.93,    19.50,    23.39,    17.11,    19.72
      218.0,      19.90,    19.47,    23.34,    17.08,    19.70
      219.0,      19.87,    19.44,    23.29,    17.06,    19.67
      220.0,      19.83,    19.41,    23.24,    17.03,    19.65
      221.0,      19.80,    19.38,    23.19,    17.01,    19.63
      222.0,      19.77,    19.35,    23.15,    16.98,    19.60
      223.0,      19.74,    19.33,    23.10,    16.96,    19.58
      224.0,      19.71,    19.30,    23.05,    16.94,    19.56
      225.0,      19.68,    19.27,    23.00,    16.91,    19.54
      226.0,      19.65,    19.25,    22.95,    16.89,    19.51
      227.0,      19.62,    19.22,    22.91,    16.87,    19.49
      228.0,      19.59,    19.19,    22.86,    16.85,    19.47
      229.0,      19.56,    19.17,    22.81,    16.82,    19.45
      230.0,      19.53,    19.14,    22.77,    16.80,    19.42
      231.0,      19.50,    19.12,    22.72,    16.78,    19.40
      232.0,      19.48,    19.09,    22.67,    16.76,    19.38
      233.0,      19.45,    19.07,    22.63,    16.74,    19.36
      234.0,      19.42,    19.04,    22.58,    16.71,    19.34
      235.0,      19.39,    19.02,    22.54,    16.69,    19.32
      236.0,      19.36,    18.99,    22.49,    16.67,    19.29
      237.0,      19.34,    18.97,    22.45,    16.65,    19.27
      238.0,      19.31,    18.95,    22.40,    16.63,    19.25
      239.0,      19.28,    18.92,    22.36,    16.61,    19.23
      240.0,      19.25,    18.90,    22.32,    16.59,    19.21
      241.0,      19.23,    18.88,    22.27,    16.57,    19.19
      242.0,      19.20,    18.86,    22.23,    16.55,    19.17
      243.0,      19.17,    18.83,    22.19,    16.53,    19.15
      244.0,      19.15,    18.81,    22.14,    16.51,    19.13
      245.0,      19.12,    18.79,    22.10,    16.49,    19.11
      246.0,      19.10,    18.77,    22.06,    16.47,    19.09
      247.0,      19.07,    18.74,    22.02,    16.45,    19.07
      248.0,      19.04,    18.72,    21.97,    16.43,    19.05
      249.0,      19.02,    18.70,    21.93,    16.41,    19.03
      250.0,      18.99,    18.68,    21.89,    16.39,    19.00
      251.0,      18.97,    18.66,    21.85,    16.37,    18.98
      252.0,      18.94,    18.64,    21.81,    16.35,    18.96
      253.0,      18.92,    18.61,    21.77,    16.34,    18.94
      254.0,      18.89,    18.59,    21.73,    16.32,    18.92
      255.0,      18.87,    18.57,    21.69,    16.30,    18.90
      256.0,      18.84,    18.55,    21.64,    16.28,    18.89
      257.0,      18.82,    18.53,    21.60,    16.26,    18.87
      258.0,      18.79,    18.51,    21.56,    16.24,    18.85
      259.0,      18.77,    18.49,    21.52,    16.23,    18.83
      260.0,      18.74,    18.47,    21.48,    16.21,    18.81
      261.0,      18.72,    18.45,    21.44,    16.19,    18.79
      262.0,      18.69,    18.43,    21.40,    16.17,    18.77
      263.0,      18.67,    18.41,    21.36,    16.15,    18.75
      264.0,      18.64,    18.39,    21.32,    16.13,    18.73
      265.0,      18.62,    18.37,    21.28,    16.12,    18.71
      266.0,      18.60,    18.35,    21.25,    16.10,    18.69
      267.0,      18.57,    18.33,    21.21,    16.08,    18.67
      268.0,      18.55,    18.31,    21.17,    16.06,    18.65
      269.0,      18.52,    18.29,    21.13,    16.05,    18.63
      270.0,      18.50,    18.27,    21.09,    16.03,    18.61
      271.0,      18.48,    18.25,    21.05,    16.01,    18.59
      272.0,      18.45,    18.23,    21.01,    15.99,    18.57
      273.0,      18.43,    18.21,    20.97,    15.98,    18.56
      274.0,      18.41,    18.19,    20.94,    15.96,    18.54
      275.0,      18.38,    18.17,    20.90,    15.94,    18.52
      276.0,      18.36,    18.15,    20.86,    15.92,    18.50
      277.0,      18.34,    18.13,    20.82,    15.91,    18.48
      278.0,      18.31,    18.12,    20.78,    15.89,    18.46
      279.0,      18.29,    18.10,    20.75,    15.87,    18.44
      280.0,      18.27,    18.08,    20.71,    15.86,    18.42
      281.0,      18.24,    18.06,    20.67,    15.84,    18.40
      282.0,      18.22,    18.04,    20.63,    15.82,    18.39
      283.0,      18.20,    18.02,    20.60,    15.81,    18.37
      284.0,      18.17,    18.00,    20.56,    15.79,    18.35
      285.0,      18.15,    17.98,    20.52,    15.77,    18.33
      286.0,      18.13,    17.96,    20.49,    15.75,    18.31
      287.0,      18.11,    17.95,    20.45,    15.74,    18.29
      288.0,      18.08,    17.93,    20.41,    15.72,    18.27
      289.0,      18.06,    17.91,    20.38,    15.70,    18.26
      290.0,      18.04,    17.89,    20.34,    15.69,    18.24
      291.0,      18.02,    17.87,    20.30,    15.67,    18.22
      292.0,      17.99,    17.85,    20.27,    15.65,    18.20
      293.0,      17.97,    17.83,    20.23,    15.64,    18.18
      294.0,      17.95,    17.82,    20.19,    15.62,    18.16
      295.0,      17.93,    17.80,    20.16,    15.61,    18.15
      296.0,      17.90,    17.78,    20.12,    15.59,    18.13
      297.0,      17.88,    17.76,    20.08,    15.57,    18.11
      298.0,      17.86,    17.74,    20.05,    15.56,    18.09
      299.0,      17.84,    17.73,    20.01,    15.54,    18.07
      300.0,      17.82,    17.71,    19.98,    15.52,    18.05
      301.0,      17.79,    17.69,    19.94,    15.51,    18.04
      302.0,      17.77,    17.67,    19.91,    15.49,    18.02
      303.0,      17.75,    17.65,    19.87,    15.47,    18.00
      304.0,      17.73,    17.63,    19.84,    15.46,    17.98
      305.0,      17.71,    17.62,    19.80,    15.44,    17.96
      306.0,      17.68,    17.60,    19.76,    15.43,    17.95
      307.0,      17.66,    17.58,    19.73,    15.41,    17.93
      308.0,      17.64,    17.56,    19.69,    15.39,    17.91
      309.0,      17.62,    17.55,    19.66,    15.38,    17.89
      310.0,      17.60,    17.53,    19.62,    15.36,    17.87
