Radius (km), Mean (m/s), NE (m/s), SE (m/s), SW (m/s), NW (m/s)
        0.0,       0.00,     0.00,     0.00,     0.00,     0.00
        1.0,       1.10,     0.98,     1.22,     1.22,     0.98
        2.0,       2.12,     1.96,     2.29,     2.29,     1.96
        3.0,       3.12,     2.93,     3.30,     3.30,     2.93
        4.0,       4.09,     3.91,     4.28,     4.28,     3.91
        5.0,       5.06,     4.89,     5.24,     5.24,     4.89
        6.0,       6.02,     5.86,     6.17,     6.17,     5.86
        7.0,       6.97,     6.84,     7.10,     7.10,     6.84
        8.0,       7.91,     7.81,     8.01,     8.01,     7.81
        9.0,       8.85,     8.79,     8.91,     8.91,     8.79
       10.0,       9.78,     9.76,     9.80,     9.80,     9.76
       11.0,      10.71,    10.74,    10.69,    10.69,    10.74
       12.0,      11.64,    11.71,    11.56,    11.56,    11.71
       13.0,      12.56,    12.68,    12.43,    12.43,    12.68
       14.0,      13.47,    13.66,    13.29,    13.29,    13.66
       15.0,      14.39,    14.63,    14.15,    14.15,    14.63
       16.0,      15.30,    15.61,    15.00,    15.00,    15.61
       17.0,      16.21,    16.58,    15.84,    15.84,    16.58
       18.0,      17.12,    17.55,    16.68,    16.68,    17.55
       19.0,      18.02,    18.53,    17.52,    17.52,    18.53
       20.0,      18.93,    19.50,    18.35,    18.35,    19.50
       21.0,      19.83,    20.47,    19.18,    19.18,    20.47
       22.0,      20.73,    21.45,    20.01,    20.01,    21.45
       23.0,      21.62,    22.42,    20.83,    20.83,    22.42
       24.0,      22.52,    23.39,    21.65,    21.65,    23.39
       25.0,      23.41,    24.37,    22.46,    22.46,    24.37
       26.0,      24.31,    25.34,    23.27,    23.27,    25.34
       27.0,      25.20,    26.31,    24.08,    24.08,    26.31
       28.0,      26.09,    27.29,    24.89,    24.89,    27.29
       29.0,      26.97,    28.26,    25.69,    25.69,    28.26
       30.0,      27.86,    29.23,    26.49,    26.49,    29.23
       31.0,      28.74,    30.20,    27.29,    27.29,    30.20
       32.0,      29.63,    31.18,    28.08,    28.08,    31.18
       33.0,      30.51,    32.15,    28.87,    28.87,    32.15
       34.0,      31.39,    33.12,    29.67,    29.67,    33.12
       35.0,      32.29,    34.11,    30.47,    30.46,    34.12
       36.0,      33.22,    35.13,    31.30,    31.30,    35.15
       37.0,      34.22,    36.22,    32.19,    32.19,    36.28
       38.0,      35.32,    37.41,    33.15,    33.18,    37.52
       39.0,      36.51,    38.70,    34.20,    34.28,    38.88
       40.0,      37.80,    40.08,    35.32,    35.46,    40.35
       41.0,      39.14,    41.51,    36.47,    36.70,    41.87
       42.0,      40.46,    42.94,    37.60,    37.93,    43.38
       43.0,      41.71,    44.29,    38.68,    39.09,    44.79
       44.0,      42.81,    45.50,    39.62,    40.10,    46.03
       45.0,      43.71,    46.50,    40.41,    40.90,    47.02
       46.0,      44.37,    47.27,    41.00,    41.47,    47.73
       47.0,      44.77,    47.78,    41.39,    41.78,    48.15
       48.0,      44.94,    48.05,    41.58,    41.84,    48.28
       49.0,      44.90,    48.11,    41.61,    41.69,    48.17
       50.0,      44.69,    48.00,    41.51,    41.38,    47.89
       51.0,      44.39,    47.78,    41.33,    40.96,    47.48
       52.0,      44.03,    47.50,    41.11,    40.49,    47.01
       53.0,      43.66,    47.21,    40.88,    40.01,    46.54
       54.0,      43.30,    46.92,    40.65,    39.55,    46.07
       55.0,      42.96,    46.65,    40.43,    39.11,    45.63
       56.0,      42.63,    46.39,    40.23,    38.70,    45.21
       57.0,      42.32,    46.14,    40.03,    38.30,    44.80
       58.0,      42.01,    45.90,    39.83,    37.92,    44.40
       59.0,      41.71,    45.65,    39.63,    37.55,    44.00
       60.0,      41.41,    45.41,    39.44,    37.18,    43.62
       61.0,      41.12,    45.17,    39.25,    36.83,    43.23
       62.0,      40.83,    44.93,    39.05,    36.49,    42.86
       63.0,      40.55,    44.69,    38.86,    36.15,    42.49
       64.0,      40.27,    44.46,    38.67,    35.82,    42.12
       65.0,      39.99,    44.22,    38.49,    35.50,    41.76
       66.0,      39.72,    43.99,    38.30,    35.19,    41.41
       67.0,      39.46,    43.76,    38.11,    34.89,    41.06
       68.0,      39.19,    43.53,    37.93,    34.60,    40.72
       69.0,      38.93,    43.30,    37.75,    34.31,    40.38
       70.0,      38.68,    43.08,    37.57,    34.03,    40.05
       71.0,      38.43,    42.86,    37.39,    33.75,    39.72
       72.0,      38.18,    42.63,    37.21,    33.49,    39.40
       73.0,      37.94,    42.41,    37.03,    33.23,    39.08
       74.0,      37.70,    42.19,    36.85,    32.97,    38.77
       75.0,      37.46,    41.98,    36.68,    32.72,    38.47
       76.0,      37.23,    41.76,    36.50,    32.48,    38.16
       77.0,      37.00,    41.55,    36.33,    32.25,    37.87
       78.0,      36.77,    41.34,    36.16,    32.02,    37.57
       79.0,      36.55,    41.13,    35.99,    31.79,    37.29
       80.0,      36.33,    40.92,    35.82,    31.57,    37.00
       81.0,      36.11,    40.71,    35.66,    31.36,    36.72
       82.0,      35.90,    40.50,    35.49,    31.15,    36.45
       83.0,      35.68,    40.30,    35.32,    30.94,    36.18
       84.0,      35.48,    40.09,    35.16,    30.74,    35.91
       85.0,      35.27,    39.89,    35.00,    30.55,    35.65
       86.0,      35.07,    39.69,    34.84,    30.35,    35.39
       87.0,      34.87,    39.49,    34.68,    30.17,    35.13
       88.0,      34.67,    39.30,    34.52,    29.98,    34.88
       89.0,      34.47,    39.10,    34.36,    29.80,    34.63
       90.0,      34.28,    38.91,    34.20,    29.63,    34.39
       91.0,      34.09,    38.71,    34.05,    29.46,    34.15
       92.0,      33.90,    38.52,    33.89,    29.29,    33.92
       93.0,      33.72,    38.33,    33.74,    29.13,    33.68
       94.0,      33.54,    38.14,    33.59,    28.97,    33.45
       95.0,      33.36,    37.96,    33.43,    28.81,    33.23
       96.0,      33.18,    37.77,    33.28,    28.65,    33.01
       97.0,      33.00,    37.58,    33.13,    28.50,    32.79
       98.0,      32.83,    37.40,    32.99,    28.36,    32.57
       99.0,      32.66,    37.22,    32.84,    28.21,    32.36
      100.0,      32.49,    37.04,    32.69,    28.07,    32.15
      101.0,      32.32,    36.86,    32.55,    27.93,    31.94
      102.0,      32.15,    36.68,    32.40,    27.79,    31.74
      103.0,      31.99,    36.50,    32.26,    27.66,    31.54
      104.0,      31.83,    36.33,    32.12,    27.53,    31.34
      105.0,      31.67,    36.15,    31.98,    27.40,    31.15
      106.0,      31.51,    35.98,    31.84,    27.27,    30.95
      107.0,      31.36,    35.81,    31.70,    27.15,    30.76
      108.0,      31.20,    35.64,    31.56,    27.03,    30.58
      109.0,      31.05,    35.47,    31.42,    26.91,    30.39
      110.0,      30.90,    35.30,    31.29,    26.79,    30.21
      111.0,      30.75,    35.13,    31.15,    26.68,    30.04
      112.0,      30.60,    34.97,    31.02,    26.56,    29.86
      113.0,      30.46,    34.80,    30.88,    26.45,    29.69
      114.0,      30.31,    34.64,    30.75,    26.34,    29.52
      115.0,      30.17,    34.48,    30.62,    26.23,    29.35
      116.0,      30.03,    34.32,    30.49,    26.13,    29.18
      117.0,      29.89,    34.16,    30.36,    26.02,    29.02
      118.0,      29.75,    34.00,    30.23,    25.92,    28.86
      119.0,      29.61,    33.84,    30.10,    25.82,    28.70
      120.0,      29.48,    33.68,    29.98,    25.72,    28.54
      121.0,      29.35,    33.53,    29.85,    25.62,    28.38
      122.0,      29.21,    33.37,    29.72,    25.53,    28.23
      123.0,      29.08,    33.22,    29.60,    25.43,    28.08
      124.0,      28.95,    33.07,    29.48,    25.34,    27.93
      125.0,      28.83,    32.92,    29.35,    25.25,    27.79
      126.0,      28.70,    32.76,    29.23,    25.16,    27.64
      127.0,      28.57,    32.62,    29.11,    25.07,    27.50
      128.0,      28.45,    32.47,    28.99,    24.98,    27.36
      129.0,      28.33,    32.32,    28.87,    24.89,    27.22
      130.0,      28.20,    32.17,    28.75,    24.81,    27.08
      131.0,      28.08,    32.03,    28.63,    24.72,    26.95
      132.0,      27.96,    31.89,    28.52,    24.64,    26.81
      133.0,      27.85,    31.74,    28.40,    24.56,    26.68
      134.0,      27.73,    31.60,    28.29,    24.48,    26.55
      135.0,      27.61,    31.46,    28.17,    24.40,    26.42
      136.0,      27.50,    31.32,    28.06,    24.32,    26.30
      137.0,      27.38,    31.18,    27.94,    24.24,    26.17
      138.0,      27.27,    31.04,    27.83,    24.16,    26.05
      139.0,      27.16,    30.90,    27.72,    24.09,    25.93
      140.0,      27.05,    30.77,    27.61,    24.01,    25.81
      141.0,      26.94,    30.63,    27.50,    23.94,    25.69
      142.0,      26.83,    30.50,    27.39,    23.86,    25.57
      143.0,      26.72,    30.37,    27.28,    23.79,    25.46
      144.0,      26.62,    30.23,    27.17,    23.72,    25.35
      145.0,      26.51,    30.10,    27.07,    23.65,    25.23
      146.0,      26.41,    29.97,    26.96,    23.58,    25.12
      147.0,      26.30,    29.84,    26.85,    23.51,    25.01
      148.0,      26.20,    29.71,    26.75,    23.44,    24.90
      149.0,      26.10,    29.58,    26.64,    23.37,    24.80
      150.0,      26.00,    29.46,    26.54,    23.30,    24.69
      151.0,      25.90,    29.33,    26.44,    23.23,    24.59
      152.0,      25.80,    29.20,    26.34,    23.17,    24.48
      153.0,      25.70,    29.08,    26.23,    23.10,    24.38
      154.0,      25.60,    28.96,    26.13,    23.04,    24.28
      155.0,      25.51,    28.83,    26.03,    22.97,    24.18
      156.0,      25.41,    28.71,    25.93,    22.91,    24.09
      157.0,      25.31,    28.59,    25.83,    22.85,    23.99
      158.0,      25.22,    28.47,    25.74,    22.78,    23.89
      159.0,      25.13,    28.35,    25.64,    22.72,    23.80
      160.0,      25.03,    28.23,    25.54,    22.66,    23.71
      161.0,      24.94,    28.11,    25.44,    22.60,    23.61
      162.0,      24.85,    27.99,    25.35,    22.54,    23.52
      163.0,      24.76,    27.88,    25.25,    22.48,    23.43
      164.0,      24.67,    27.76,    25.16,    22.42,    23.34
      165.0,      24.58,    27.65,    25.06,    22.36,    23.25
      166.0,      24.49,    27.53,    24.97,    22.30,    23.17
      167.0,      24.40,    27.42,    24.88,    22.24,    23.08
      168.0,      24.32,    27.31,    24.79,    22.18,    23.00
      169.0,      24.23,    27.19,    24.69,    22.13,    22.91
      170.0,      24.15,    27.08,    24.60,    22.07,    22.83
      171.0,      24.06,    26.97,    24.51,    22.01,    22.75
      172.0,      23.98,    26.86,    24.42,    21.96,    22.66
      173.0,      23.89,    26.75,    24.33,    21.90,    22.58
      174.0,      23.81,    26.64,    24.25,    21.85,    22.50
      175.0,      23.73,    26.54,    24.16,    21.79,    22.43
      176.0,      23.65,    26.43,    24.07,    21.74,    22.35
      177.0,      23.56,    26.32,    23.98,    21.68,    22.27
      178.0,      23.48,    26.22,    23.90,    21.63,    22.20
      179.0,      23.40,    26.11,    23.81,    21.57,    22.12
      180.0,      23.33,    26.01,    23.73,    21.52,    22.05
      181.0,      23.25,    25.91,    23.64,    21.47,    21.97
      182.0,      23.17,    25.80,    23.56,    21.42,    21.90
      183.0,      23.09,    25.70,    23.47,    21.36,    21.83
      184.0,      23.01,    25.60,    23.39,    21.31,    21.75
      185.0,      22.94,    25.50,    23.31,    21.26,    21.68
      186.0,      22.86,    25.40,    23.22,    21.21,    21.61
      187.0,      22.79,    25.30,    23.14,    21.16,    21.54
      188.0,      22.71,    25.20,    23.06,    21.11,    21.48
      189.0,      22.64,    25.10,    22.98,    21.05,    21.41
      190.0,      22.56,    25.00,    22.90,    21.00,    21.34
      191.0,      22.49,    24.91,    22.82,    20.95,    21.27
      192.0,      22.42,    24.81,    22.74,    20.90,    21.21
      193.0,      22.34,    24.71,    22.66,    20.85,    21.14
      194.0,      22.27,    24.62,    22.59,    20.80,    21.08
      195.0,      22.20,    24.52,    22.51,    20.76,    21.01
      196.0,      22.13,    24.43,    22.43,    20.71,    20.95
      197.0,      22.06,    24.34,    22.35,    20.66,    20.89
      198.0,      21.99,    24.24,    22.28,    20.61,    20.83
      199.0,      21.92,    24.15,    22.20,    20.56,    20.76
      200.0,      21.85,    24.06,    22.13,    20.51,    20.70
      201.0,      21.78,    23.97,    22.05,    20.47,    20.64
      202.0,      21.71,    23.88,    21.98,    20.42,    20.58
      203.0,      21.65,    23.79,    21.90,    20.37,    20.52
      204.0,      21.58,    23.70,    21.83,    20.32,    20.47
      205.0,      21.51,    23.61,    21.76,    20.28,    20.41
      206.0,      21.45,    23.52,    21.68,    20.23,    20.35
      207.0,      21.38,    23.43,    21.61,    20.18,    20.29
      208.0,      21.31,    23.35,    21.54,    20.14,    20.24
      209.0,      21.25,    23.26,    21.47,    20.09,    20.18
      210.0,      21.18,    23.17,    21.40,    20.04,    20.12
      211.0,      21.12,    23.09,    21.33,    20.00,    20.07
      212.0,      21.06,    23.00,    21.26,    19.95,    20.01
      213.0,      20.99,    22.92,    21.19,    19.91,    19.96
      214.0,      20.93,    22.84,    21.12,    19.86,    19.91
      215.0,      20.87,    22.75,    21.05,    19.82,    19.85
      216.0,      20.80,    22.67,    20.98,    19.77,    19.80
      217.0,      20.74,    22.59,    20.91,    19.73,    19.75
      218.0,      20.68,    22.50,    20.85,    19.68,    19.69
      219.0,      20.62,    22.42,    20.78,    19.64,    19.64
      220.0,      20.56,    22.34,    20.71,    19.59,    19.59
      221.0,      20.50,    22.26,    20.65,    19.55,    19.54
      222.0,      20.44,    22.18,    20.58,    19.50,    19.49
      223.0,      20.38,    22.10,    20.51,    19.46,    19.44
      224.0,      20.32,    22.02,    20.45,    19.42,    19.39
      225.0,      20.26,    21.94,    20.38,    19.37,    19.34
      226.0,      20.20,    21.87,    20.32,    19.33,    19.29
      227.0,      20.14,    21.79,    20.26,    19.29,    19.24
      228.0,      20.09,    21.71,    20.19,    19.24,    19.20
      229.0,      20.03,    21.63,    20.13,    19.20,    19.15
      230.0,      19.97,    21.56,    20.07,    19.16,    19.10
      231.0,      19.91,    21.48,    20.00,    19.11,    19.05
      232.0,      19.86,    21.41,    19.94,    19.07,    19.01
      233.0,      19.80,    21.33,    19.88,    19.03,    18.96
      234.0,      19.74,    21.26,    19.82,    18.99,    18.91
      235.0,      19.69,    21.18,    19.76,    18.94,    18.87
      236.0,      19.63,    21.11,    19.70,    18.90,    18.82
      237.0,      19.58,    21.04,    19.63,    18.86,    18.78
      238.0,      19.52,    20.96,    19.57,    18.82,    18.73
      239.0,      19.47,    20.89,    19.51,    18.78,    18.69
      240.0,      19.41,    20.82,    19.46,    18.73,    18.65
      241.0,      19.36,    20.75,    19.40,    18.69,    18.60
      242.0,      19.31,    20.68,    19.34,    18.65,    18.56
      243.0,      19.25,    20.61,    19.28,    18.61,    18.52
      244.0,      19.20,    20.54,    19.22,    18.57,    18.47
      245.0,      19.15,    20.47,    19.16,    18.53,    18.43
      246.0,      19.09,    20.40,    19.11,    18.49,    18.39
      247.0,      19.04,    20.33,    19.05,    18.45,    18.35
      248.0,      18.99,    20.26,    18.99,    18.41,    18.30
      249.0,      18.94,    20.19,    18.94,    18.36,    18.26
      250.0,      18.89,    20.12,    18.88,    18.32,    18.22
      251.0,      18.84,    20.06,    18.82,    18.28,    18.18
      252.0,      18.79,    19.99,    18.77,    18.24,    18.14
      253.0,      18.73,    19.92,    18.71,    18.20,    18.10
      254.0,      18.68,    19.86,    18.66,    18.16,    18.06
      255.0,      18.63,    19.79,    18.60,    18.12,    18.02
      256.0,      18.58,    19.73,    18.55,    18.08,    17.98
      257.0,      18.53,    19.66,    18.49,    18.04,    17.94
      258.0,      18.49,    19.60,    18.44,    18.00,    17.90
      259.0,      18.44,    19.53,    18.39,    17.96,    17.86
      260.0,      18.39,    19.47,    18.33,    17.93,    17.82
      261.0,      18.34,    19.40,    18.28,    17.89,    17.78
      262.0,      18.29,    19.34,    18.23,    17.85,    17.75
      263.0,      18.24,    19.28,    18.18,    17.81,    17.71
      264.0,      18.19,    19.22,    18.12,    17.77,    17.67
      265.0,      18.15,    19.15,    18.07,    17.73,    17.63
      266.0,      18.10,    19.09,    18.02,    17.69,    17.59
      267.0,      18.05,    19.03,    17.97,    17.65,    17.56
      268.0,      18.01,    18.97,    17.92,    17.61,    17.52
      269.0,      17.96,    18.91,    17.87,    17.57,    17.48
      270.0,      17.91,    18.85,    17.82,    17.54,    17.45
      271.0,      17.87,    18.79,    17.77,    17.50,    17.41
      272.0,      17.82,    18.73,    17.72,    17.46,    17.37
      273.0,      17.77,    18.67,    17.67,    17.42,    17.34
      274.0,      17.73,    18.61,    17.62,    17.38,    17.30
      275.0,      17.68,    18.55,    17.57,    17.35,    17.27
      276.0,      17.64,    18.49,    17.52,    17.31,    17.23
      277.0,      17.59,    18.43,    17.47,    17.27,    17.20
      278.0,      17.55,    18.37,    17.42,    17.23,    17.16
      279.0,      17.50,    18.32,    17.38,    17.19,    17.13
      280.0,      17.46,    18.26,    17.33,    17.16,    17.09
      281.0,      17.41,    18.20,    17.28,    17.12,    17.06
      282.0,      17.37,    18.15,    17.23,    17.08,    17.02
      283.0,      17.33,    18.09,    17.19,    17.05,    16.99
      284.0,      17.28,    18.03,    17.14,    17.01,    16.95
      285.0,      17.24,    17.98,    17.09,    16.97,    16.92
      286.0,      17.20,    17.92,    17.05,    16.93,    16.89
      287.0,      17.15,    17.87,    17.00,    16.90,    16.85
      288.0,      17.11,    17.81,    16.95,    16.86,    16.82
      289.0,      17.07,    17.76,    16.91,    16.82,    16.78
      290.0,      17.03,    17.70,    16.86,    16.79,    16.75
      291.0,      16.98,    17.65,    16.82,    16.75,    16.72
      292.0,      16.94,    17.60,    16.77,    16.71,    16.69
      293.0,      16.90,    17.54,    16.73,    16.68,    16.65
      294.0,      16.86,    17.49,    16.68,    16.64,    16.62
      295.0,      16.82,    17.44,    16.64,    16.61,    16.59
      296.0,      16.78,    17.38,    16.60,    16.57,    16.56
      297.0,      16.73,    17.33,    16.55,    16.53,    16.52
      298.0,      16.69,    17.28,    16.51,    16.50,    16.49
      299.0,      16.65,    17.23,    16.46,    16.46,    16.46
      300.0,      16.61,    17.18,    16.42,    16.43,    16.43
      301.0,      16.57,    17.12,    16.38,    16.39,    16.40
      302.0,      16.53,    17.07,    16.34,    16.35,    16.36
      303.0,      16.49,    17.02,    16.29,    16.32,    16.33
      304.0,      16.45,    16.97,    16.25,    16.28,    16.30
      305.0,      16.41,    16.92,    16.21,    16.25,    16.27
      306.0,      16.37,    16.87,    16.17,    16.21,    16.24
      307.0,      16.33,    16.82,    16.12,    16.18,    16.21
      308.0,      16.29,    16.77,    16.08,    16.14,    16.18
      309.0,      16.25,    16.72,    16.04,    16.11,    16.15
      310.0,      16.22,    16.67,    16.00,    16.07,    16.12
