Radius (km), Mean (m/s), NE (m/s), SE (m/s), SW (m/s), NW (m/s)
        0.0,       0.00,     0.00,     0.00,     0.00,     0.00
        1.0,       1.26,     1.13,     1.21,     1.48,     1.21
        2.0,       2.26,     2.10,     2.21,     2.53,     2.21
        3.0,       3.19,     3.02,     3.14,     3.46,     3.14
        4.0,       4.08,     3.92,     4.03,     4.32,     4.03
        5.0,       4.93,     4.79,     4.90,     5.13,     4.90
        6.0,       5.75,     5.64,     5.74,     5.91,     5.74
        7.0,       6.56,     6.48,     6.56,     6.65,     6.56
        8.0,       7.35,     7.31,     7.36,     7.37,     7.36
        9.0,       8.13,     8.12,     8.15,     8.07,     8.15
       10.0,       8.89,     8.93,     8.93,     8.76,     8.93
       11.0,       9.64,     9.73,     9.70,     9.42,     9.70
       12.0,      10.38,    10.52,    10.46,    10.08,    10.46
       13.0,      11.12,    11.31,    11.22,    10.72,    11.22
       14.0,      11.84,    12.09,    11.96,    11.35,    11.96
       15.0,      12.56,    12.86,    12.70,    11.97,    12.70
       16.0,      13.27,    13.63,    13.43,    12.58,    13.43
       17.0,      13.97,    14.39,    14.16,    13.18,    14.16
       18.0,      14.67,    15.15,    14.88,    13.78,    14.88
       19.0,      15.36,    15.91,    15.59,    14.36,    15.59
       20.0,      16.05,    16.66,    16.30,    14.94,    16.30
       21.0,      16.73,    17.41,    17.01,    15.51,    17.01
       22.0,      17.41,    18.15,    17.71,    16.08,    17.71
       23.0,      18.08,    18.89,    18.40,    16.64,    18.40
       24.0,      18.75,    19.63,    19.09,    17.20,    19.09
       25.0,      19.42,    20.36,    19.78,    17.75,    19.78
       26.0,      20.08,    21.09,    20.47,    18.29,    20.47
       27.0,      20.74,    21.82,    21.15,    18.83,    21.15
       28.0,      21.39,    22.55,    21.83,    19.37,    21.83
       29.0,      22.04,    23.27,    22.50,    19.90,    22.50
       30.0,      22.69,    23.99,    23.17,    20.43,    23.17
       31.0,      23.34,    24.71,    23.84,    20.95,    23.84
       32.0,      23.98,    25.43,    24.51,    21.47,    24.51
       33.0,      24.62,    26.14,    25.17,    21.98,    25.17
       34.0,      25.25,    26.85,    25.83,    22.49,    25.83
       35.0,      25.88,    27.56,    26.49,    23.00,    26.49
       36.0,      26.52,    28.27,    27.14,    23.51,    27.14
       37.0,      27.14,    28.97,    27.80,    24.01,    27.80
       38.0,      27.77,    29.68,    28.45,    24.51,    28.45
       39.0,      28.39,    30.38,    29.10,    25.01,    29.10
       40.0,      29.01,    31.08,    29.74,    25.50,    29.74
       41.0,      29.64,    31.78,    30.41,    25.99,    30.39
       42.0,      30.29,    32.51,    31.12,    26.50,    31.04
       43.0,      31.00,    33.29,    31.93,    27.06,    31.72
       44.0,      31.79,    34.16,    32.85,    27.67,    32.46
       45.0,      32.67,    35.13,    33.90,    28.37,    33.28
       46.0,      33.65,    36.21,    35.06,    29.13,    34.18
       47.0,      34.68,    37.35,    36.27,    29.94,    35.16
       48.0,      35.72,    38.50,    37.45,    30.76,    36.16
       49.0,      36.70,    39.60,    38.53,    31.53,    37.14
       50.0,      37.55,    40.56,    39.42,    32.20,    38.03
       51.0,      38.22,    41.33,    40.07,    32.72,    38.78
       52.0,      38.67,    41.87,    40.43,    33.07,    39.34
       53.0,      38.88,    42.14,    40.49,    33.23,    39.67
       54.0,      38.86,    42.16,    40.29,    33.20,    39.78
       55.0,      38.63,    41.96,    39.87,    33.01,    39.68
       56.0,      38.24,    41.58,    39.28,    32.70,    39.41
       57.0,      37.75,    41.08,    38.59,    32.30,    39.02
       58.0,      37.20,    40.52,    37.86,    31.86,    38.55
       59.0,      36.64,    39.95,    37.13,    31.42,    38.05
       60.0,      36.09,    39.39,    36.44,    30.98,    37.56
       61.0,      35.58,    38.87,    35.79,    30.58,    37.09
       62.0,      35.10,    38.38,    35.17,    30.20,    36.66
       63.0,      34.65,    37.92,    34.59,    29.84,    36.26
       64.0,      34.22,    37.48,    34.02,    29.49,    35.87
       65.0,      33.80,    37.05,    33.48,    29.15,    35.50
       66.0,      33.39,    36.64,    32.95,    28.83,    35.14
       67.0,      33.00,    36.24,    32.45,    28.52,    34.79
       68.0,      32.62,    35.85,    31.96,    28.22,    34.45
       69.0,      32.26,    35.48,    31.50,    27.93,    34.12
       70.0,      31.90,    35.12,    31.05,    27.65,    33.80
       71.0,      31.56,    34.77,    30.61,    27.38,    33.50
       72.0,      31.24,    34.44,    30.20,    27.12,    33.20
       73.0,      30.92,    34.11,    29.79,    26.86,    32.91
       74.0,      30.61,    33.79,    29.41,    26.62,    32.62
       75.0,      30.31,    33.49,    29.03,    26.38,    32.35
       76.0,      30.03,    33.19,    28.68,    26.15,    32.08
       77.0,      29.75,    32.91,    28.33,    25.93,    31.82
       78.0,      29.48,    32.63,    28.00,    25.72,    31.57
       79.0,      29.22,    32.36,    27.68,    25.51,    31.33
       80.0,      28.97,    32.10,    27.37,    25.31,    31.09
       81.0,      28.73,    31.85,    27.07,    25.12,    30.86
       82.0,      28.49,    31.61,    26.78,    24.93,    30.63
       83.0,      28.26,    31.37,    26.51,    24.75,    30.42
       84.0,      28.04,    31.14,    26.24,    24.58,    30.20
       85.0,      27.83,    30.92,    25.98,    24.41,    29.99
       86.0,      27.62,    30.71,    25.73,    24.24,    29.79
       87.0,      27.42,    30.50,    25.49,    24.08,    29.60
       88.0,      27.22,    30.29,    25.26,    23.93,    29.40
       89.0,      27.03,    30.10,    25.04,    23.78,    29.22
       90.0,      26.85,    29.90,    24.83,    23.63,    29.03
       91.0,      26.67,    29.72,    24.62,    23.49,    28.85
       92.0,      26.50,    29.54,    24.42,    23.35,    28.68
       93.0,      26.33,    29.36,    24.23,    23.22,    28.51
       94.0,      26.17,    29.19,    24.04,    23.09,    28.34
       95.0,      26.01,    29.02,    23.86,    22.97,    28.18
       96.0,      25.85,    28.86,    23.69,    22.84,    28.02
       97.0,      25.70,    28.70,    23.52,    22.73,    27.87
       98.0,      25.56,    28.55,    23.36,    22.61,    27.72
       99.0,      25.42,    28.40,    23.20,    22.50,    27.57
      100.0,      25.28,    28.26,    23.05,    22.39,    27.42
      101.0,      25.14,    28.11,    22.90,    22.28,    27.28
      102.0,      25.01,    27.98,    22.76,    22.18,    27.14
      103.0,      24.89,    27.84,    22.62,    22.08,    27.00
      104.0,      24.76,    27.71,    22.49,    21.98,    26.87
      105.0,      24.64,    27.58,    22.36,    21.89,    26.74
      106.0,      24.52,    27.46,    22.24,    21.79,    26.61
      107.0,      24.41,    27.33,    22.12,    21.70,    26.48
      108.0,      24.30,    27.21,    22.00,    21.61,    26.36
      109.0,      24.19,    27.10,    21.89,    21.53,    26.24
      110.0,      24.08,    26.98,    21.78,    21.44,    26.12
      111.0,      23.98,    26.87,    21.68,    21.36,    26.00
      112.0,      23.88,    26.76,    21.57,    21.28,    25.89
      113.0,      23.78,    26.65,    21.47,    21.20,    25.77
      114.0,      23.68,    26.55,    21.38,    21.13,    25.66
      115.0,      23.58,    26.44,    21.28,    21.05,    25.55
      116.0,      23.49,    26.34,    21.19,    20.98,    25.44
      117.0,      23.40,    26.24,    21.11,    20.91,    25.34
      118.0,      23.31,    26.15,    21.02,    20.84,    25.23
      119.0,      23.22,    26.05,    20.94,    20.77,    25.13
      120.0,      23.14,    25.96,    20.86,    20.70,    25.03
      121.0,      23.05,    25.87,    20.78,    20.63,    24.93
      122.0,      22.97,    25.78,    20.70,    20.57,    24.83
      123.0,      22.89,    25.69,    20.63,    20.51,    24.73
      124.0,      22.81,    25.60,    20.56,    20.44,    24.63
      125.0,      22.73,    25.52,    20.49,    20.38,    24.54
      126.0,      22.66,    25.43,    20.42,    20.32,    24.45
      127.0,      22.58,    25.35,    20.36,    20.26,    24.35
      128.0,      22.51,    25.27,    20.29,    20.21,    24.26
      129.0,      22.43,    25.19,    20.23,    20.15,    24.17
      130.0,      22.36,    25.11,    20.17,    20.09,    24.08
      131.0,      22.29,    25.03,    20.11,    20.04,    23.99
      132.0,      22.22,    24.96,    20.05,    19.98,    23.91
      133.0,      22.16,    24.88,    19.99,    19.93,    23.82
      134.0,      22.09,    24.81,    19.94,    19.88,    23.74
      135.0,      22.02,    24.73,    19.89,    19.83,    23.65
      136.0,      21.96,    24.66,    19.83,    19.77,    23.57
      137.0,      21.90,    24.59,    19.78,    19.72,    23.49
      138.0,      21.83,    24.52,    19.73,    19.67,    23.40
      139.0,      21.77,    24.45,    19.68,    19.63,    23.32
      140.0,      21.71,    24.38,    19.63,    19.58,    23.24
      141.0,      21.65,    24.31,    19.59,    19.53,    23.16
      142.0,      21.59,    24.25,    19.54,    19.48,    23.09
      143.0,      21.53,    24.18,    19.50,    19.44,    23.01
      144.0,      21.47,    24.12,    19.45,    19.39,    22.93
      145.0,      21.42,    24.05,    19.41,    19.35,    22.85
      146.0,      21.36,    23.99,    19.37,    19.30,    22.78
      147.0,      21.30,    23.92,    19.32,    19.26,    22.70
      148.0,      21.25,    23.86,    19.28,    19.21,    22.63
      149.0,      21.19,    23.80,    19.24,    19.17,    22.55
      150.0,      21.14,    23.74,    19.21,    19.13,    22.48
      151.0,      21.08,    23.68,    19.17,    19.09,    22.41
      152.0,      21.03,    23.62,    19.13,    19.04,    22.34
      153.0,      20.98,    23.56,    19.09,    19.00,    22.26
      154.0,      20.93,    23.50,    19.05,    18.96,    22.19
      155.0,      20.87,    23.44,    19.02,    18.92,    22.12
      156.0,      20.82,    23.38,    18.98,    18.88,    22.05
      157.0,      20.77,    23.32,    18.95,    18.84,    21.98
      158.0,      20.72,    23.26,    18.91,    18.80,    21.91
      159.0,      20.67,    23.21,    18.88,    18.76,    21.84
      160.0,      20.62,    23.15,    18.85,    18.72,    21.78
      161.0,      20.58,    23.10,    18.81,    18.68,    21.71
      162.0,      20.53,    23.04,    18.78,    18.65,    21.64
      163.0,      20.48,    22.98,    18.75,    18.61,    21.57
      164.0,      20.43,    22.93,    18.72,    18.57,    21.51
      165.0,      20.38,    22.88,    18.69,    18.53,    21.44
      166.0,      20.34,    22.82,    18.66,    18.50,    21.37
      167.0,      20.29,    22.77,    18.63,    18.46,    21.31
      168.0,      20.24,    22.71,    18.60,    18.42,    21.24
      169.0,      20.20,    22.66,    18.57,    18.39,    21.18
      170.0,      20.15,    22.61,    18.54,    18.35,    21.11
      171.0,      20.11,    22.56,    18.51,    18.31,    21.05
      172.0,      20.06,    22.50,    18.48,    18.28,    20.99
      173.0,      20.02,    22.45,    18.45,    18.24,    20.92
      174.0,      19.97,    22.40,    18.43,    18.21,    20.86
      175.0,      19.93,    22.35,    18.40,    18.17,    20.80
      176.0,      19.88,    22.30,    18.37,    18.14,    20.73
      177.0,      19.84,    22.25,    18.34,    18.10,    20.67
      178.0,      19.80,    22.20,    18.32,    18.07,    20.61
      179.0,      19.75,    22.15,    18.29,    18.03,    20.55
      180.0,      19.71,    22.10,    18.26,    18.00,    20.49
      181.0,      19.67,    22.05,    18.24,    17.97,    20.42
      182.0,      19.63,    22.00,    18.21,    17.93,    20.36
      183.0,      19.58,    21.95,    18.19,    17.90,    20.30
      184.0,      19.54,    21.90,    18.16,    17.87,    20.24
      185.0,      19.50,    21.85,    18.14,    17.83,    20.18
      186.0,      19.46,    21.80,    18.11,    17.80,    20.12
      187.0,      19.42,    21.75,    18.09,    17.77,    20.06
      188.0,      19.38,    21.71,    18.06,    17.73,    20.00
      189.0,      19.33,    21.66,    18.04,    17.70,    19.95
      190.0,      19.29,    21.61,    18.01,    17.67,    19.89
      191.0,      19.25,    21.56,    17.99,    17.64,    19.83
      192.0,      19.21,    21.52,    17.96,    17.60,    19.77
      193.0,      19.17,    21.47,    17.94,    17.57,    19.71
      194.0,      19.13,    21.42,    17.92,    17.54,    19.65
      195.0,      19.09,    21.37,    17.89,    17.51,    19.60
      196.0,      19.05,    21.33,    17.87,    17.47,    19.54
      197.0,      19.01,    21.28,    17.85,    17.44,    19.48
      198.0,      18.97,    21.24,    17.82,    17.41,    19.42
      199.0,      18.93,    21.19,    17.80,    17.38,    19.37
      200.0,      18.89,    21.14,    17.78,    17.35,    19.31
      201.0,      18.86,    21.10,    17.75,    17.32,    19.25
      202.0,      18.82,    21.05,    17.73,    17.29,    19.20
      203.0,      18.78,    21.01,    17.71,    17.25,    19.14
      204.0,      18.74,    20.96,    17.69,    17.22,    19.09
      205.0,      18.70,    20.92,    17.66,    17.19,    19.03
      206.0,      18.66,    20.87,    17.64,    17.16,    18.98
      207.0,      18.62,    20.83,    17.62,    17.13,    18.92
      208.0,      18.59,    20.78,    17.60,    17.10,    18.87
      209.0,      18.55,    20.74,    17.57,    17.07,    18.81
      210.0,      18.51,    20.69,    17.55,    17.04,    18.76
      211.0,      18.47,    20.65,    17.53,    17.01,    18.70
      212.0,      18.43,    20.60,    17.51,    16.98,    18.65
      213.0,      18.40,    20.56,    17.49,    16.95,    18.59
      214.0,      18.36,    20.52,    17.47,    16.92,    18.54
      215.0,      18.32,    20.47,    17.44,    16.89,    18.49
      216.0,      18.29,    20.43,    17.42,    16.86,    18.43
      217.0,      18.25,    20.38,    17.40,    16.83,    18.38
      218.0,      18.21,    20.34,    17.38,    16.80,    18.33
      219.0,      18.17,    20.30,    17.36,    16.77,    18.27
      220.0,      18.14,    20.25,    17.34,    16.74,    18.22
      221.0,      18.10,    20.21,    17.32,    16.71,    18.17
      222.0,      18.06,    20.17,    17.29,    16.68,    18.12
      223.0,      18.03,    20.12,    17.27,    16.65,    18.06
      224.0,      17.99,    20.08,    17.25,    16.62,    18.01
      225.0,      17.96,    20.04,    17.23,    16.59,    17.96
      226.0,      17.92,    20.00,    17.21,    16.56,    17.91
      227.0,      17.88,    19.95,    17.19,    16.53,    17.86
      228.0,      17.85,    19.91,    17.17,    16.50,    17.81
      229.0,      17.81,    19.87,    17.15,    16.48,    17.75
      230.0,      17.78,    19.83,    17.13,    16.45,    17.70
      231.0,      17.74,    19.79,    17.11,    16.42,    17.65
      232.0,      17.71,    19.74,    17.09,    16.39,    17.60
      233.0,      17.67,    19.70,    17.07,    16.36,    17.55
      234.0,      17.63,    19.66,    17.05,    16.33,    17.50
      235.0,      17.60,    19.62,    17.03,    16.30,    17.45
      236.0,      17.56,    19.58,    17.01,    16.27,    17.40
      237.0,      17.53,    19.54,    16.99,    16.25,    17.35
      238.0,      17.49,    19.49,    16.97,    16.22,    17.30
      239.0,      17.46,    19.45,    16.94,    16.19,    17.25
      240.0,      17.42,    19.41,    16.92,    16.16,    17.20
      241.0,      17.39,    19.37,    16.90,    16.13,    17.15
      242.0,      17.36,    19.33,    16.88,    16.10,    17.10
      243.0,      17.32,    19.29,    16.86,    16.08,    17.05
      244.0,      17.29,    19.25,    16.84,    16.05,    17.00
      245.0,      17.25,    19.21,    16.82,    16.02,    16.96
      246.0,      17.22,    19.17,    16.80,    15.99,    16.91
      247.0,      17.18,    19.13,    16.78,    15.96,    16.86
      248.0,      17.15,    19.09,    16.76,    15.94,    16.81
      249.0,      17.12,    19.05,    16.75,    15.91,    16.76
      250.0,      17.08,    19.01,    16.73,    15.88,    16.71
      251.0,      17.05,    18.97,    16.71,    15.85,    16.67
      252.0,      17.01,    18.93,    16.69,    15.83,    16.62
      253.0,      16.98,    18.89,    16.67,    15.80,    16.57
      254.0,      16.95,    18.85,    16.65,    15.77,    16.52
      255.0,      16.91,    18.81,    16.63,    15.74,    16.48
      256.0,      16.88,    18.77,    16.61,    15.72,    16.43
      257.0,      16.85,    18.73,    16.59,    15.69,    16.38
      258.0,      16.81,    18.69,    16.57,    15.66,    16.33
      259.0,      16.78,    18.65,    16.55,    15.63,    16.29
      260.0,      16.75,    18.61,    16.53,    15.61,    16.24
      261.0,      16.71,    18.57,    16.51,    15.58,    16.20
      262.0,      16.68,    18.53,    16.49,    15.55,    16.15
      263.0,      16.65,    18.49,    16.47,    15.52,    16.10
      264.0,      16.62,    18.45,    16.45,    15.50,    16.06
      265.0,      16.58,    18.42,    16.43,    15.47,    16.01
      266.0,      16.55,    18.38,    16.41,    15.44,    15.96
      267.0,      16.52,    18.34,    16.39,    15.42,    15.92
      268.0,      16.48,    18.30,    16.37,    15.39,    15.87
      269.0,      16.45,    18.26,    16.36,    15.36,    15.83
      270.0,      16.42,    18.22,    16.34,    15.34,    15.78
      271.0,      16.39,    18.19,    16.32,    15.31,    15.74
      272.0,      16.36,    18.15,    16.30,    15.28,    15.69
      273.0,      16.32,    18.11,    16.28,    15.26,    15.65
      274.0,      16.29,    18.07,    16.26,    15.23,    15.60
      275.0,      16.26,    18.03,    16.24,    15.20,    15.56
      276.0,      16.23,    18.00,    16.22,    15.18,    15.51
      277.0,      16.20,    17.96,    16.20,    15.15,    15.47
      278.0,      16.16,    17.92,    16.18,    15.12,    15.43
      279.0,      16.13,    17.88,    16.17,    15.10,    15.38
      280.0,      16.10,    17.84,    16.15,    15.07,    15.34
      281.0,      16.07,    17.81,    16.13,    15.05,    15.29
      282.0,      16.04,    17.77,    16.11,    15.02,    15.25
      283.0,      16.01,    17.73,    16.09,    14.99,    15.21
      284.0,      15.97,    17.70,    16.07,    14.97,    15.16
      285.0,      15.94,    17.66,    16.05,    14.94,    15.12
      286.0,      15.91,    17.62,    16.03,    14.92,    15.08
      287.0,      15.88,    17.58,    16.02,    14.89,    15.03
      288.0,      15.85,    17.55,    16.00,    14.86,    14.99
      289.0,      15.82,    17.51,    15.98,    14.84,    14.95
      290.0,      15.79,    17.47,    15.96,    14.81,    14.90
      291.0,      15.76,    17.44,    15.94,    14.79,    14.86
      292.0,      15.73,    17.40,    15.92,    14.76,    14.82
      293.0,      15.69,    17.36,    15.90,    14.74,    14.78
      294.0,      15.66,    17.33,    15.88,    14.71,    14.73
      295.0,      15.63,    17.29,    15.87,    14.68,    14.69
      296.0,      15.60,    17.25,    15.85,    14.66,    14.65
      297.0,      15.57,    17.22,    15.83,    14.63,    14.61
      298.0,      15.54,    17.18,    15.81,    14.61,    14.57
      299.0,      15.51,    17.15,    15.79,    14.58,    14.53
      300.0,      15.48,    17.11,    15.77,    14.56,    14.48
      301.0,      15.45,    17.07,    15.76,    14.53,    14.44
      302.0,      15.42,    17.04,    15.74,    14.51,    14.40
      303.0,      15.39,    17.00,    15.72,    14.48,    14.36
      304.0,      15.36,    16.97,    15.70,    14.46,    14.32
      305.0,      15.33,    16.93,    15.68,    14.43,    14.28
      306.0,      15.30,    16.90,    15.66,    14.41,    14.24
      307.0,      15.27,    16.86,    15.65,    14.38,    14.20
      308.0,      15.24,    16.83,    15.63,    14.36,    14.16
      309.0,      15.21,    16.79,    15.61,    14.33,    14.12
      310.0,      15.18,    16.76,    15.59,    14.31,    14.08
