Radius (km), Mean (m/s), NE (m/s), SE (m/s), SW (m/s), NW (m/s)
        0.0,       0.00,     0.00,     0.00,     0.00,     0.00
        1.0,       0.90,     0.92,     0.92,     0.93,     0.82
        2.0,       1.51,     1.54,     1.54,     1.55,     1.42
        3.0,       2.06,     2.09,     2.09,     2.10,     1.95
        4.0,       2.56,     2.59,     2.59,     2.60,     2.44
        5.0,       3.03,     3.06,     3.06,     3.07,     2.91
        6.0,       3.47,     3.51,     3.51,     3.52,     3.36
        7.0,       3.90,     3.94,     3.94,     3.94,     3.79
        8.0,       4.32,     4.35,     4.35,     4.36,     4.21
        9.0,       4.72,     4.75,     4.75,     4.76,     4.62
       10.0,       5.11,     5.14,     5.14,     5.14,     5.02
       11.0,       5.49,     5.52,     5.52,     5.52,     5.41
       12.0,       5.87,     5.89,     5.89,     5.89,     5.79
       13.0,       6.23,     6.25,     6.25,     6.25,     6.17
       14.0,       6.59,     6.61,     6.61,     6.61,     6.54
       15.0,       6.94,     6.96,     6.96,     6.96,     6.91
       16.0,       7.29,     7.30,     7.30,     7.30,     7.27
       17.0,       7.63,     7.64,     7.64,     7.64,     7.62
       18.0,       7.97,     7.97,     7.97,     7.97,     7.97
       19.0,       8.30,     8.30,     8.30,     8.30,     8.32
       20.0,       8.63,     8.62,     8.62,     8.62,     8.66
       21.0,       8.96,     8.94,     8.94,     8.94,     9.00
       22.0,       9.28,     9.26,     9.26,     9.25,     9.34
       23.0,       9.60,     9.57,     9.57,     9.57,     9.67
       24.0,       9.91,     9.88,     9.88,     9.87,    10.00
       25.0,      10.22,    10.19,    10.19,    10.18,    10.32
       26.0,      10.53,    10.49,    10.49,    10.48,    10.65
       27.0,      10.83,    10.79,    10.79,    10.78,    10.97
       28.0,      11.13,    11.09,    11.09,    11.08,    11.29
       29.0,      11.43,    11.38,    11.38,    11.37,    11.60
       30.0,      11.73,    11.68,    11.68,    11.66,    11.92
       31.0,      12.03,    11.97,    11.97,    11.95,    12.23
       32.0,      12.32,    12.25,    12.25,    12.23,    12.54
       33.0,      12.61,    12.54,    12.54,    12.52,    12.84
       34.0,      12.90,    12.82,    12.82,    12.80,    13.15
       35.0,      13.18,    13.10,    13.10,    13.08,    13.45
       36.0,      13.47,    13.38,    13.38,    13.36,    13.75
       37.0,      13.75,    13.66,    13.66,    13.63,    14.05
       38.0,      14.03,    13.93,    13.93,    13.90,    14.35
       39.0,      14.31,    14.20,    14.20,    14.18,    14.65
       40.0,      14.58,    14.47,    14.47,    14.45,    14.94
       41.0,      14.86,    14.74,    14.74,    14.71,    15.24
       42.0,      15.13,    15.01,    15.01,    14.98,    15.53
       43.0,      15.40,    15.28,    15.28,    15.24,    15.82
       44.0,      15.67,    15.54,    15.54,    15.51,    16.11
       45.0,      15.94,    15.81,    15.81,    15.77,    16.39
       46.0,      16.21,    16.07,    16.07,    16.03,    16.68
       47.0,      16.48,    16.33,    16.33,    16.29,    16.96
       48.0,      16.74,    16.59,    16.59,    16.55,    17.25
       49.0,      17.00,    16.84,    16.84,    16.80,    17.53
       50.0,      17.27,    17.10,    17.10,    17.06,    17.81
       51.0,      17.53,    17.36,    17.36,    17.31,    18.09
       52.0,      17.79,    17.61,    17.61,    17.56,    18.37
       53.0,      18.05,    17.86,    17.86,    17.81,    18.65
       54.0,      18.30,    18.11,    18.11,    18.06,    18.92
       55.0,      18.56,    18.36,    18.36,    18.31,    19.20
       56.0,      18.81,    18.61,    18.61,    18.56,    19.47
       57.0,      19.07,    18.86,    18.86,    18.80,    19.74
       58.0,      19.32,    19.11,    19.11,    19.05,    20.02
       59.0,      19.57,    19.35,    19.35,    19.29,    20.29
       60.0,      19.82,    19.60,    19.60,    19.54,    20.56
       61.0,      20.07,    19.84,    19.84,    19.78,    20.83
       62.0,      20.32,    20.08,    20.08,    20.02,    21.09
       63.0,      20.57,    20.32,    20.32,    20.26,    21.36
       64.0,      20.81,    20.56,    20.56,    20.50,    21.63
       65.0,      21.06,    20.80,    20.80,    20.74,    21.89
       66.0,      21.30,    21.04,    21.04,    20.97,    22.16
       67.0,      21.55,    21.28,    21.28,    21.21,    22.42
       68.0,      21.79,    21.52,    21.52,    21.45,    22.68
       69.0,      22.03,    21.75,    21.75,    21.68,    22.95
       70.0,      22.27,    21.99,    21.99,    21.91,    23.21
       71.0,      22.51,    22.22,    22.22,    22.15,    23.47
       72.0,      22.75,    22.46,    22.46,    22.38,    23.73
       73.0,      22.99,    22.69,    22.69,    22.61,    23.99
       74.0,      23.23,    22.92,    22.92,    22.84,    24.24
       75.0,      23.47,    23.15,    23.15,    23.07,    24.50
       76.0,      23.70,    23.38,    23.38,    23.30,    24.76
       77.0,      23.94,    23.61,    23.61,    23.53,    25.01
       78.0,      24.18,    23.84,    23.84,    23.75,    25.27
       79.0,      24.41,    24.07,    24.07,    23.98,    25.52
       80.0,      24.64,    24.29,    24.29,    24.20,    25.78
       81.0,      24.88,    24.52,    24.52,    24.43,    26.03
       82.0,      25.11,    24.75,    24.75,    24.65,    26.28
       83.0,      25.34,    24.97,    24.97,    24.88,    26.54
       84.0,      25.57,    25.20,    25.20,    25.10,    26.79
       85.0,      25.80,    25.42,    25.42,    25.32,    27.04
       86.0,      26.03,    25.64,    25.64,    25.54,    27.29
       87.0,      26.26,    25.87,    25.87,    25.77,    27.54
       88.0,      26.49,    26.09,    26.09,    25.99,    27.79
       89.0,      26.71,    26.31,    26.31,    26.20,    28.03
       90.0,      26.94,    26.53,    26.53,    26.42,    28.28
       91.0,      27.17,    26.75,    26.75,    26.64,    28.53
       92.0,      27.39,    26.97,    26.97,    26.86,    28.77
       93.0,      27.62,    27.19,    27.19,    27.08,    29.02
       94.0,      27.84,    27.40,    27.40,    27.29,    29.27
       95.0,      28.07,    27.62,    27.62,    27.51,    29.51
       96.0,      28.29,    27.84,    27.84,    27.72,    29.75
       97.0,      28.51,    28.06,    28.06,    27.94,    30.00
       98.0,      28.73,    28.27,    28.27,    28.15,    30.24
       99.0,      28.96,    28.49,    28.49,    28.37,    30.48
      100.0,      29.18,    28.70,    28.70,    28.58,    30.72
      101.0,      29.40,    28.92,    28.92,    28.79,    30.97
      102.0,      29.62,    29.13,    29.13,    29.01,    31.21
      103.0,      29.84,    29.34,    29.34,    29.22,    31.45
      104.0,      30.06,    29.55,    29.55,    29.43,    31.69
      105.0,      30.27,    29.77,    29.77,    29.64,    31.93
      106.0,      30.49,    29.98,    29.98,    29.85,    32.17
      107.0,      30.71,    30.19,    30.19,    30.06,    32.40
      108.0,      30.93,    30.40,    30.40,    30.27,    32.64
      109.0,      31.14,    30.61,    30.61,    30.48,    32.88
      110.0,      31.36,    30.82,    30.82,    30.68,    33.12
      111.0,      31.58,    31.03,    31.03,    30.89,    33.35
      112.0,      31.79,    31.24,    31.24,    31.10,    33.59
      113.0,      32.01,    31.45,    31.45,    31.31,    33.83
      114.0,      32.24,    31.68,    31.66,    31.53,    34.07
      115.0,      32.48,    31.95,    31.88,    31.78,    34.33
      116.0,      32.76,    32.26,    32.11,    32.06,    34.62
      117.0,      33.08,    32.63,    32.38,    32.37,    34.94
      118.0,      33.42,    33.04,    32.67,    32.70,    35.28
      119.0,      33.79,    33.46,    32.99,    33.05,    35.65
      120.0,      34.14,    33.87,    33.31,    33.38,    36.01
      121.0,      34.47,    34.23,    33.62,    33.69,    36.35
      122.0,      34.74,    34.51,    33.89,    33.93,    36.64
      123.0,      34.94,    34.67,    34.10,    34.10,    36.87
      124.0,      35.04,    34.70,    34.24,    34.19,    37.01
      125.0,      35.04,    34.60,    34.30,    34.20,    37.06
      126.0,      34.95,    34.39,    34.27,    34.13,    37.03
      127.0,      34.79,    34.07,    34.17,    33.99,    36.92
      128.0,      34.56,    33.69,    34.00,    33.81,    36.76
      129.0,      34.30,    33.26,    33.78,    33.61,    36.56
      130.0,      34.03,    32.83,    33.55,    33.39,    36.34
      131.0,      33.75,    32.41,    33.30,    33.18,    36.13
      132.0,      33.49,    32.01,    33.07,    32.98,    35.92
      133.0,      33.25,    31.63,    32.85,    32.80,    35.73
      134.0,      33.02,    31.28,    32.64,    32.62,    35.54
      135.0,      32.80,    30.94,    32.45,    32.45,    35.37
      136.0,      32.59,    30.61,    32.27,    32.29,    35.21
      137.0,      32.39,    30.30,    32.09,    32.13,    35.04
      138.0,      32.19,    30.00,    31.92,    31.98,    34.89
      139.0,      32.00,    29.71,    31.75,    31.83,    34.73
      140.0,      31.82,    29.43,    31.58,    31.68,    34.58
      141.0,      31.64,    29.16,    31.42,    31.55,    34.44
      142.0,      31.47,    28.90,    31.26,    31.41,    34.30
      143.0,      31.30,    28.65,    31.11,    31.28,    34.16
      144.0,      31.14,    28.41,    30.96,    31.15,    34.02
      145.0,      30.98,    28.17,    30.82,    31.03,    33.89
      146.0,      30.82,    27.95,    30.68,    30.91,    33.76
      147.0,      30.67,    27.73,    30.54,    30.79,    33.64
      148.0,      30.53,    27.52,    30.40,    30.68,    33.51
      149.0,      30.39,    27.32,    30.27,    30.57,    33.39
      150.0,      30.25,    27.12,    30.14,    30.46,    33.28
      151.0,      30.12,    26.94,    30.02,    30.35,    33.16
      152.0,      29.99,    26.75,    29.89,    30.25,    33.05
      153.0,      29.86,    26.58,    29.77,    30.15,    32.94
      154.0,      29.74,    26.41,    29.65,    30.06,    32.83
      155.0,      29.62,    26.24,    29.54,    29.96,    32.73
      156.0,      29.50,    26.09,    29.42,    29.87,    32.62
      157.0,      29.39,    25.93,    29.31,    29.78,    32.52
      158.0,      29.28,    25.78,    29.20,    29.69,    32.42
      159.0,      29.17,    25.64,    29.10,    29.61,    32.33
      160.0,      29.06,    25.50,    28.99,    29.52,    32.23
      161.0,      28.96,    25.37,    28.89,    29.44,    32.14
      162.0,      28.86,    25.24,    28.79,    29.36,    32.04
      163.0,      28.76,    25.11,    28.69,    29.29,    31.95
      164.0,      28.66,    24.99,    28.59,    29.21,    31.86
      165.0,      28.57,    24.87,    28.49,    29.14,    31.78
      166.0,      28.48,    24.76,    28.40,    29.07,    31.69
      167.0,      28.39,    24.65,    28.31,    28.99,    31.61
      168.0,      28.30,    24.54,    28.22,    28.93,    31.52
      169.0,      28.22,    24.44,    28.13,    28.86,    31.44
      170.0,      28.13,    24.34,    28.04,    28.79,    31.36
      171.0,      28.05,    24.24,    27.95,    28.73,    31.28
      172.0,      27.97,    24.15,    27.87,    28.66,    31.20
      173.0,      27.89,    24.06,    27.78,    28.60,    31.13
      174.0,      27.81,    23.97,    27.70,    28.54,    31.05
      175.0,      27.74,    23.88,    27.62,    28.48,    30.97
      176.0,      27.66,    23.80,    27.53,    28.42,    30.90
      177.0,      27.59,    23.72,    27.45,    28.36,    30.83
      178.0,      27.52,    23.64,    27.38,    28.30,    30.75
      179.0,      27.45,    23.56,    27.30,    28.25,    30.68
      180.0,      27.38,    23.49,    27.22,    28.19,    30.61
      181.0,      27.31,    23.41,    27.14,    28.14,    30.54
      182.0,      27.24,    23.34,    27.07,    28.08,    30.47
      183.0,      27.18,    23.27,    27.00,    28.03,    30.41
      184.0,      27.11,    23.21,    26.92,    27.98,    30.34
      185.0,      27.05,    23.14,    26.85,    27.93,    30.27
      186.0,      26.99,    23.08,    26.78,    27.88,    30.21
      187.0,      26.92,    23.02,    26.71,    27.83,    30.14
      188.0,      26.86,    22.96,    26.64,    27.78,    30.08
      189.0,      26.80,    22.90,    26.57,    27.73,    30.01
      190.0,      26.74,    22.84,    26.50,    27.68,    29.95
      191.0,      26.68,    22.78,    26.43,    27.64,    29.89
      192.0,      26.63,    22.73,    26.36,    27.59,    29.82
      193.0,      26.57,    22.68,    26.30,    27.54,    29.76
      194.0,      26.51,    22.62,    26.23,    27.50,    29.70
      195.0,      26.46,    22.57,    26.16,    27.45,    29.64
      196.0,      26.40,    22.52,    26.10,    27.41,    29.58
      197.0,      26.35,    22.47,    26.03,    27.37,    29.52
      198.0,      26.30,    22.43,    25.97,    27.32,    29.46
      199.0,      26.24,    22.38,    25.91,    27.28,    29.40
      200.0,      26.19,    22.33,    25.84,    27.24,    29.35
      201.0,      26.14,    22.29,    25.78,    27.20,    29.29
      202.0,      26.09,    22.24,    25.72,    27.15,    29.23
      203.0,      26.04,    22.20,    25.66,    27.11,    29.17
      204.0,      25.99,    22.16,    25.60,    27.07,    29.12
      205.0,      25.94,    22.12,    25.54,    27.03,    29.06
      206.0,      25.89,    22.08,    25.48,    26.99,    29.00
      207.0,      25.84,    22.04,    25.42,    26.95,    28.95
      208.0,      25.79,    22.00,    25.36,    26.91,    28.89
      209.0,      25.74,    21.96,    25.30,    26.87,    28.84
      210.0,      25.69,    21.92,    25.24,    26.84,    28.78
      211.0,      25.65,    21.88,    25.18,    26.80,    28.73
      212.0,      25.60,    21.85,    25.12,    26.76,    28.68
      213.0,      25.55,    21.81,    25.06,    26.72,    28.62
      214.0,      25.51,    21.78,    25.01,    26.68,    28.57
      215.0,      25.46,    21.74,    24.95,    26.65,    28.52
      216.0,      25.42,    21.71,    24.89,    26.61,    28.46
      217.0,      25.37,    21.67,    24.84,    26.57,    28.41
      218.0,      25.33,    21.64,    24.78,    26.54,    28.36
      219.0,      25.28,    21.61,    24.72,    26.50,    28.31
      220.0,      25.24,    21.57,    24.67,    26.46,    28.25
      221.0,      25.20,    21.54,    24.61,    26.43,    28.20
      222.0,      25.15,    21.51,    24.56,    26.39,    28.15
      223.0,      25.11,    21.48,    24.50,    26.36,    28.10
      224.0,      25.07,    21.45,    24.45,    26.32,    28.05
      225.0,      25.02,    21.42,    24.39,    26.29,    28.00
      226.0,      24.98,    21.39,    24.34,    26.25,    27.95
      227.0,      24.94,    21.36,    24.28,    26.22,    27.90
      228.0,      24.90,    21.33,    24.23,    26.18,    27.85
      229.0,      24.85,    21.30,    24.18,    26.15,    27.80
      230.0,      24.81,    21.27,    24.12,    26.11,    27.75
      231.0,      24.77,    21.24,    24.07,    26.08,    27.70
      232.0,      24.73,    21.21,    24.02,    26.04,    27.65
      233.0,      24.69,    21.19,    23.97,    26.01,    27.60
      234.0,      24.65,    21.16,    23.91,    25.98,    27.55
      235.0,      24.61,    21.13,    23.86,    25.94,    27.50
      236.0,      24.57,    21.10,    23.81,    25.91,    27.45
      237.0,      24.53,    21.08,    23.76,    25.88,    27.40
      238.0,      24.49,    21.05,    23.71,    25.84,    27.35
      239.0,      24.45,    21.02,    23.65,    25.81,    27.31
      240.0,      24.41,    21.00,    23.60,    25.78,    27.26
      241.0,      24.37,    20.97,    23.55,    25.74,    27.21
      242.0,      24.33,    20.94,    23.50,    25.71,    27.16
      243.0,      24.29,    20.92,    23.45,    25.68,    27.11
      244.0,      24.25,    20.89,    23.40,    25.65,    27.07
      245.0,      24.21,    20.87,    23.35,    25.61,    27.02
      246.0,      24.17,    20.84,    23.30,    25.58,    26.97
      247.0,      24.14,    20.82,    23.25,    25.55,    26.93
      248.0,      24.10,    20.79,    23.20,    25.52,    26.88
      249.0,      24.06,    20.77,    23.15,    25.49,    26.83
      250.0,      24.02,    20.74,    23.10,    25.45,    26.78
      251.0,      23.98,    20.72,    23.05,    25.42,    26.74
      252.0,      23.94,    20.69,    23.00,    25.39,    26.69
      253.0,      23.91,    20.67,    22.95,    25.36,    26.64
      254.0,      23.87,    20.65,    22.90,    25.33,    26.60
      255.0,      23.83,    20.62,    22.86,    25.29,    26.55
      256.0,      23.79,    20.60,    22.81,    25.26,    26.51
      257.0,      23.76,    20.58,    22.76,    25.23,    26.46
      258.0,      23.72,    20.55,    22.71,    25.20,    26.41
      259.0,      23.68,    20.53,    22.66,    25.17,    26.37
      260.0,      23.64,    20.51,    22.61,    25.14,    26.32
      261.0,      23.61,    20.48,    22.56,    25.11,    26.28
      262.0,      23.57,    20.46,    22.52,    25.08,    26.23
      263.0,      23.53,    20.44,    22.47,    25.05,    26.19
      264.0,      23.50,    20.41,    22.42,    25.01,    26.14
      265.0,      23.46,    20.39,    22.37,    24.98,    26.10
      266.0,      23.42,    20.37,    22.33,    24.95,    26.05
      267.0,      23.39,    20.35,    22.28,    24.92,    26.01
      268.0,      23.35,    20.32,    22.23,    24.89,    25.96
      269.0,      23.32,    20.30,    22.19,    24.86,    25.92
      270.0,      23.28,    20.28,    22.14,    24.83,    25.87
      271.0,      23.24,    20.26,    22.09,    24.80,    25.83
      272.0,      23.21,    20.23,    22.04,    24.77,    25.78
      273.0,      23.17,    20.21,    22.00,    24.74,    25.74
      274.0,      23.14,    20.19,    21.95,    24.71,    25.69
      275.0,      23.10,    20.17,    21.91,    24.68,    25.65
      276.0,      23.07,    20.14,    21.86,    24.65,    25.61
      277.0,      23.03,    20.12,    21.81,    24.62,    25.56
      278.0,      22.99,    20.10,    21.77,    24.59,    25.52
      279.0,      22.96,    20.08,    21.72,    24.56,    25.47
      280.0,      22.92,    20.06,    21.68,    24.53,    25.43
      281.0,      22.89,    20.04,    21.63,    24.50,    25.39
      282.0,      22.85,    20.01,    21.58,    24.47,    25.34
      283.0,      22.82,    19.99,    21.54,    24.44,    25.30
      284.0,      22.78,    19.97,    21.49,    24.41,    25.26
      285.0,      22.75,    19.95,    21.45,    24.38,    25.21
      286.0,      22.71,    19.93,    21.40,    24.35,    25.17
      287.0,      22.68,    19.91,    21.36,    24.32,    25.13
      288.0,      22.64,    19.89,    21.31,    24.29,    25.08
      289.0,      22.61,    19.86,    21.27,    24.26,    25.04
      290.0,      22.58,    19.84,    21.22,    24.23,    25.00
      291.0,      22.54,    19.82,    21.18,    24.20,    24.96
      292.0,      22.51,    19.80,    21.13,    24.17,    24.91
      293.0,      22.47,    19.78,    21.09,    24.15,    24.87
      294.0,      22.44,    19.76,    21.05,    24.12,    24.83
      295.0,      22.40,    19.74,    21.00,    24.09,    24.79
      296.0,      22.37,    19.72,    20.96,    24.06,    24.74
      297.0,      22.34,    19.70,    20.91,    24.03,    24.70
      298.0,      22.30,    19.68,    20.87,    24.00,    24.66
      299.0,      22.27,    19.66,    20.83,    23.97,    24.62
      300.0,      22.23,    19.63,    20.78,    23.94,    24.57
      301.0,      22.20,    19.61,    20.74,    23.91,    24.53
      302.0,      22.17,    19.59,    20.70,    23.88,    24.49
      303.0,      22.13,    19.57,    20.65,    23.86,    24.45
      304.0,      22.10,    19.55,    20.61,    23.83,    24.41
      305.0,      22.07,    19.53,    20.57,    23.80,    24.37
      306.0,      22.03,    19.51,    20.52,    23.77,    24.32
      307.0,      22.00,    19.49,    20.48,    23.74,    24.28
      308.0,      21.96,    19.47,    20.44,    23.71,    24.24
      309.0,      21.93,    19.45,    20.39,    23.68,    24.20
      310.0,      21.90,    19.43,    20.35,    23.65,    24.16
