Radius (km), Mean (m/s), NE (m/s), SE (m/s), SW (m/s), NW (m/s)
        0.0,       0.00,     0.00,     0.00,     0.00,     0.00
        1.0,       0.94,     0.81,     1.07,     1.07,     0.81
        2.0,       1.92,     1.73,     2.11,     2.11,     1.73
        3.0,       2.91,     2.69,     3.13,     3.13,     2.69
        4.0,       3.91,     3.68,     4.15,     4.15,     3.68
        5.0,       4.92,     4.69,     5.15,     5.15,     4.69
        6.0,       5.94,     5.72,     6.15,     6.15,     5.72
        7.0,       6.96,     6.77,     7.15,     7.15,     6.77
        8.0,       7.99,     7.83,     8.14,     8.14,     7.83
        9.0,       9.02,     8.90,     9.13,     9.13,     8.90
       10.0,      10.05,     9.99,    10.12,    10.12,     9.99
       11.0,      11.09,    11.08,    11.11,    11.11,    11.08
       12.0,      12.14,    12.18,    12.09,    12.09,    12.18
       13.0,      13.18,    13.30,    13.07,    13.07,    13.30
       14.0,      14.23,    14.42,    14.05,    14.05,    14.42
       15.0,      15.28,    15.54,    15.03,    15.03,    15.54
       16.0,      16.34,    16.68,    16.00,    16.00,    16.68
       17.0,      17.40,    17.82,    16.97,    16.97,    17.82
       18.0,      18.46,    18.96,    17.95,    17.95,    18.96
       19.0,      19.52,    20.12,    18.92,    18.92,    20.12
       20.0,      20.58,    21.27,    19.89,    19.89,    21.27
       21.0,      21.65,    22.44,    20.86,    20.86,    22.44
       22.0,      22.71,    23.60,    21.82,    21.82,    23.60
       23.0,      23.78,    24.78,    22.79,    22.79,    24.78
       24.0,      24.85,    25.95,    23.75,    23.75,    25.95
       25.0,      25.93,    27.14,    24.72,    24.72,    27.14
       26.0,      27.00,    28.32,    25.68,    25.68,    28.32
       27.0,      28.08,    29.51,    26.64,    26.64,    29.51
       28.0,      29.15,    30.71,    27.60,    27.60,    30.71
       29.0,      30.23,    31.90,    28.56,    28.56,    31.90
       30.0,      31.31,    33.11,    29.52,    29.52,    33.11
       31.0,      32.40,    34.32,    30.48,    30.48,    34.32
       32.0,      33.52,    35.56,    31.46,    31.46,    35.59
       33.0,      34.72,    36.90,    32.49,    32.51,    36.99
       34.0,      36.05,    38.38,    33.61,    33.66,    38.56
       35.0,      37.56,    40.05,    34.87,    34.96,    40.37
       36.0,      39.25,    41.91,    36.27,    36.42,    42.39
       37.0,      41.08,    43.93,    37.80,    38.01,    44.58
       38.0,      42.97,    46.02,    39.38,    39.67,    46.82
       39.0,      44.83,    48.07,    40.95,    41.30,    48.98
       40.0,      46.52,    49.95,    42.41,    42.80,    50.92
       41.0,      47.94,    51.54,    43.65,    44.07,    52.50
       42.0,      49.00,    52.74,    44.61,    45.03,    53.62
       43.0,      49.66,    53.51,    45.25,    45.62,    54.25
       44.0,      49.90,    53.84,    45.54,    45.83,    54.39
       45.0,      49.75,    53.75,    45.50,    45.68,    54.07
       46.0,      49.29,    53.33,    45.19,    45.24,    53.40
       47.0,      48.60,    52.66,    44.68,    44.57,    52.48
       48.0,      47.77,    51.84,    44.05,    43.77,    51.42
       49.0,      46.88,    50.96,    43.35,    42.90,    50.32
       50.0,      46.00,    50.09,    42.66,    42.03,    49.23
       51.0,      45.16,    49.26,    42.00,    41.20,    48.20
       52.0,      44.37,    48.48,    41.38,    40.40,    47.24
       53.0,      43.63,    47.75,    40.80,    39.64,    46.32
       54.0,      42.91,    47.05,    40.25,    38.91,    45.44
       55.0,      42.22,    46.38,    39.71,    38.20,    44.60
       56.0,      41.56,    45.73,    39.20,    37.51,    43.79
       57.0,      40.91,    45.10,    38.70,    36.83,    43.01
       58.0,      40.29,    44.50,    38.22,    36.18,    42.26
       59.0,      39.68,    43.91,    37.76,    35.53,    41.53
       60.0,      39.10,    43.35,    37.31,    34.91,    40.84
       61.0,      38.54,    42.81,    36.88,    34.30,    40.16
       62.0,      37.99,    42.28,    36.46,    33.71,    39.52
       63.0,      37.47,    41.77,    36.06,    33.13,    38.90
       64.0,      36.95,    41.29,    35.67,    32.57,    38.30
       65.0,      36.46,    40.81,    35.29,    32.02,    37.72
       66.0,      35.98,    40.36,    34.92,    31.49,    37.17
       67.0,      35.52,    39.92,    34.57,    30.97,    36.63
       68.0,      35.07,    39.49,    34.23,    30.46,    36.12
       69.0,      34.64,    39.08,    33.90,    29.97,    35.62
       70.0,      34.22,    38.68,    33.58,    29.48,    35.14
       71.0,      33.81,    38.30,    33.27,    29.02,    34.68
       72.0,      33.42,    37.92,    32.97,    28.56,    34.23
       73.0,      33.04,    37.56,    32.68,    28.11,    33.81
       74.0,      32.67,    37.21,    32.40,    27.68,    33.39
       75.0,      32.31,    36.88,    32.12,    27.26,    33.00
       76.0,      31.97,    36.55,    31.86,    26.84,    32.61
       77.0,      31.63,    36.23,    31.60,    26.44,    32.24
       78.0,      31.30,    35.93,    31.36,    26.05,    31.88
       79.0,      30.99,    35.63,    31.11,    25.67,    31.54
       80.0,      30.68,    35.35,    30.88,    25.30,    31.21
       81.0,      30.39,    35.07,    30.65,    24.93,    30.89
       82.0,      30.10,    34.80,    30.43,    24.58,    30.58
       83.0,      29.82,    34.54,    30.22,    24.24,    30.28
       84.0,      29.55,    34.28,    30.01,    23.90,    29.99
       85.0,      29.28,    34.04,    29.81,    23.57,    29.71
       86.0,      29.03,    33.80,    29.61,    23.25,    29.45
       87.0,      28.78,    33.57,    29.42,    22.94,    29.19
       88.0,      28.54,    33.34,    29.24,    22.64,    28.94
       89.0,      28.30,    33.12,    29.06,    22.35,    28.69
       90.0,      28.08,    32.91,    28.88,    22.06,    28.46
       91.0,      27.86,    32.70,    28.71,    21.78,    28.23
       92.0,      27.64,    32.50,    28.54,    21.50,    28.02
       93.0,      27.43,    32.31,    28.38,    21.24,    27.80
       94.0,      27.23,    32.12,    28.22,    20.98,    27.60
       95.0,      27.03,    31.93,    28.07,    20.72,    27.40
       96.0,      26.84,    31.75,    27.92,    20.48,    27.21
       97.0,      26.65,    31.58,    27.77,    20.24,    27.03
       98.0,      26.47,    31.41,    27.63,    20.00,    26.85
       99.0,      26.30,    31.24,    27.49,    19.77,    26.68
      100.0,      26.12,    31.08,    27.35,    19.55,    26.51
      101.0,      25.96,    30.92,    27.22,    19.33,    26.35
      102.0,      25.79,    30.77,    27.09,    19.12,    26.19
      103.0,      25.63,    30.62,    26.96,    18.91,    26.04
      104.0,      25.48,    30.47,    26.84,    18.71,    25.89
      105.0,      25.33,    30.33,    26.72,    18.51,    25.74
      106.0,      25.18,    30.19,    26.60,    18.32,    25.61
      107.0,      25.04,    30.05,    26.48,    18.13,    25.47
      108.0,      24.89,    29.92,    26.37,    17.95,    25.34
      109.0,      24.76,    29.79,    26.26,    17.77,    25.21
      110.0,      24.62,    29.66,    26.15,    17.60,    25.09
      111.0,      24.49,    29.54,    26.04,    17.43,    24.97
      112.0,      24.37,    29.42,    25.94,    17.26,    24.85
      113.0,      24.24,    29.30,    25.83,    17.10,    24.74
      114.0,      24.12,    29.18,    25.73,    16.94,    24.63
      115.0,      24.00,    29.07,    25.63,    16.79,    24.52
      116.0,      23.89,    28.95,    25.53,    16.64,    24.42
      117.0,      23.77,    28.84,    25.44,    16.49,    24.32
      118.0,      23.66,    28.74,    25.34,    16.35,    24.22
      119.0,      23.55,    28.63,    25.25,    16.21,    24.13
      120.0,      23.45,    28.53,    25.16,    16.07,    24.03
      121.0,      23.34,    28.42,    25.07,    15.94,    23.94
      122.0,      23.24,    28.32,    24.98,    15.81,    23.85
      123.0,      23.14,    28.22,    24.90,    15.69,    23.77
      124.0,      23.05,    28.13,    24.81,    15.56,    23.68
      125.0,      22.95,    28.03,    24.73,    15.44,    23.60
      126.0,      22.86,    27.94,    24.64,    15.32,    23.52
      127.0,      22.77,    27.85,    24.56,    15.21,    23.44
      128.0,      22.68,    27.76,    24.48,    15.10,    23.37
      129.0,      22.59,    27.67,    24.40,    14.99,    23.29
      130.0,      22.50,    27.58,    24.33,    14.88,    23.22
      131.0,      22.42,    27.49,    24.25,    14.78,    23.15
      132.0,      22.33,    27.41,    24.17,    14.68,    23.08
      133.0,      22.25,    27.32,    24.10,    14.58,    23.01
      134.0,      22.17,    27.24,    24.02,    14.48,    22.94
      135.0,      22.09,    27.16,    23.95,    14.38,    22.88
      136.0,      22.01,    27.08,    23.88,    14.29,    22.81
      137.0,      21.94,    27.00,    23.80,    14.20,    22.75
      138.0,      21.86,    26.92,    23.73,    14.11,    22.69
      139.0,      21.79,    26.84,    23.66,    14.03,    22.63
      140.0,      21.72,    26.76,    23.59,    13.94,    22.57
      141.0,      21.65,    26.69,    23.53,    13.86,    22.51
      142.0,      21.58,    26.61,    23.46,    13.78,    22.45
      143.0,      21.51,    26.54,    23.39,    13.70,    22.40
      144.0,      21.44,    26.47,    23.32,    13.62,    22.34
      145.0,      21.37,    26.39,    23.26,    13.55,    22.29
      146.0,      21.31,    26.32,    23.19,    13.47,    22.23
      147.0,      21.24,    26.25,    23.13,    13.40,    22.18
      148.0,      21.18,    26.18,    23.06,    13.33,    22.13
      149.0,      21.11,    26.11,    23.00,    13.26,    22.08
      150.0,      21.05,    26.04,    22.94,    13.19,    22.03
      151.0,      20.99,    25.97,    22.88,    13.13,    21.98
      152.0,      20.93,    25.91,    22.81,    13.06,    21.93
      153.0,      20.87,    25.84,    22.75,    13.00,    21.88
      154.0,      20.81,    25.77,    22.69,    12.94,    21.84
      155.0,      20.75,    25.71,    22.63,    12.88,    21.79
      156.0,      20.69,    25.64,    22.57,    12.82,    21.74
      157.0,      20.64,    25.58,    22.51,    12.76,    21.70
      158.0,      20.58,    25.51,    22.45,    12.71,    21.65
      159.0,      20.53,    25.45,    22.39,    12.65,    21.61
      160.0,      20.47,    25.39,    22.34,    12.60,    21.57
      161.0,      20.42,    25.32,    22.28,    12.54,    21.52
      162.0,      20.36,    25.26,    22.22,    12.49,    21.48
      163.0,      20.31,    25.20,    22.16,    12.44,    21.44
      164.0,      20.26,    25.14,    22.11,    12.39,    21.40
      165.0,      20.21,    25.08,    22.05,    12.34,    21.36
      166.0,      20.16,    25.02,    21.99,    12.30,    21.32
      167.0,      20.10,    24.96,    21.94,    12.25,    21.28
      168.0,      20.05,    24.90,    21.88,    12.20,    21.24
      169.0,      20.00,    24.84,    21.83,    12.16,    21.20
      170.0,      19.96,    24.78,    21.77,    12.11,    21.16
      171.0,      19.91,    24.72,    21.72,    12.07,    21.12
      172.0,      19.86,    24.66,    21.66,    12.03,    21.08
      173.0,      19.81,    24.60,    21.61,    11.99,    21.04
      174.0,      19.76,    24.54,    21.56,    11.95,    21.00
      175.0,      19.72,    24.49,    21.50,    11.91,    20.97
      176.0,      19.67,    24.43,    21.45,    11.87,    20.93
      177.0,      19.62,    24.37,    21.40,    11.83,    20.89
      178.0,      19.58,    24.32,    21.34,    11.79,    20.86
      179.0,      19.53,    24.26,    21.29,    11.76,    20.82
      180.0,      19.49,    24.20,    21.24,    11.72,    20.78
      181.0,      19.44,    24.15,    21.19,    11.68,    20.75
      182.0,      19.40,    24.09,    21.14,    11.65,    20.71
      183.0,      19.35,    24.04,    21.09,    11.62,    20.68
      184.0,      19.31,    23.98,    21.03,    11.58,    20.64
      185.0,      19.27,    23.93,    20.98,    11.55,    20.61
      186.0,      19.22,    23.87,    20.93,    11.52,    20.57
      187.0,      19.18,    23.82,    20.88,    11.49,    20.54
      188.0,      19.14,    23.77,    20.83,    11.45,    20.51
      189.0,      19.10,    23.71,    20.78,    11.42,    20.47
      190.0,      19.06,    23.66,    20.73,    11.39,    20.44
      191.0,      19.01,    23.60,    20.68,    11.36,    20.40
      192.0,      18.97,    23.55,    20.63,    11.33,    20.37
      193.0,      18.93,    23.50,    20.58,    11.31,    20.34
      194.0,      18.89,    23.45,    20.53,    11.28,    20.30
      195.0,      18.85,    23.39,    20.48,    11.25,    20.27
      196.0,      18.81,    23.34,    20.44,    11.22,    20.24
      197.0,      18.77,    23.29,    20.39,    11.20,    20.21
      198.0,      18.73,    23.24,    20.34,    11.17,    20.17
      199.0,      18.69,    23.19,    20.29,    11.14,    20.14
      200.0,      18.65,    23.13,    20.24,    11.12,    20.11
      201.0,      18.61,    23.08,    20.19,    11.09,    20.08
      202.0,      18.57,    23.03,    20.15,    11.07,    20.05
      203.0,      18.53,    22.98,    20.10,    11.05,    20.01
      204.0,      18.50,    22.93,    20.05,    11.02,    19.98
      205.0,      18.46,    22.88,    20.00,    11.00,    19.95
      206.0,      18.42,    22.83,    19.96,    10.97,    19.92
      207.0,      18.38,    22.78,    19.91,    10.95,    19.89
      208.0,      18.34,    22.73,    19.86,    10.93,    19.86
      209.0,      18.31,    22.68,    19.82,    10.91,    19.83
      210.0,      18.27,    22.63,    19.77,    10.88,    19.80
      211.0,      18.23,    22.58,    19.72,    10.86,    19.77
      212.0,      18.20,    22.53,    19.68,    10.84,    19.74
      213.0,      18.16,    22.48,    19.63,    10.82,    19.70
      214.0,      18.12,    22.43,    19.58,    10.80,    19.67
      215.0,      18.09,    22.38,    19.54,    10.78,    19.64
      216.0,      18.05,    22.33,    19.49,    10.76,    19.61
      217.0,      18.01,    22.28,    19.45,    10.74,    19.58
      218.0,      17.98,    22.23,    19.40,    10.72,    19.55
      219.0,      17.94,    22.19,    19.36,    10.70,    19.52
      220.0,      17.91,    22.14,    19.31,    10.68,    19.49
      221.0,      17.87,    22.09,    19.27,    10.66,    19.46
      222.0,      17.84,    22.04,    19.22,    10.64,    19.43
      223.0,      17.80,    21.99,    19.18,    10.63,    19.40
      224.0,      17.76,    21.95,    19.13,    10.61,    19.38
      225.0,      17.73,    21.90,    19.09,    10.59,    19.35
      226.0,      17.69,    21.85,    19.04,    10.57,    19.32
      227.0,      17.66,    21.80,    19.00,    10.55,    19.29
      228.0,      17.63,    21.75,    18.95,    10.54,    19.26
      229.0,      17.59,    21.71,    18.91,    10.52,    19.23
      230.0,      17.56,    21.66,    18.86,    10.50,    19.20
      231.0,      17.52,    21.61,    18.82,    10.49,    19.17
      232.0,      17.49,    21.57,    18.78,    10.47,    19.14
      233.0,      17.45,    21.52,    18.73,    10.45,    19.11
      234.0,      17.42,    21.47,    18.69,    10.44,    19.08
      235.0,      17.39,    21.43,    18.65,    10.42,    19.06
      236.0,      17.35,    21.38,    18.60,    10.40,    19.03
      237.0,      17.32,    21.33,    18.56,    10.39,    19.00
      238.0,      17.29,    21.29,    18.52,    10.37,    18.97
      239.0,      17.25,    21.24,    18.47,    10.36,    18.94
      240.0,      17.22,    21.20,    18.43,    10.34,    18.91
      241.0,      17.19,    21.15,    18.39,    10.33,    18.88
      242.0,      17.15,    21.10,    18.35,    10.31,    18.86
      243.0,      17.12,    21.06,    18.30,    10.30,    18.83
      244.0,      17.09,    21.01,    18.26,    10.28,    18.80
      245.0,      17.06,    20.97,    18.22,    10.27,    18.77
      246.0,      17.02,    20.92,    18.18,    10.25,    18.74
      247.0,      16.99,    20.88,    18.13,    10.24,    18.72
      248.0,      16.96,    20.83,    18.09,    10.23,    18.69
      249.0,      16.93,    20.79,    18.05,    10.21,    18.66
      250.0,      16.89,    20.74,    18.01,    10.20,    18.63
      251.0,      16.86,    20.70,    17.97,    10.18,    18.60
      252.0,      16.83,    20.65,    17.92,    10.17,    18.58
      253.0,      16.80,    20.61,    17.88,    10.16,    18.55
      254.0,      16.77,    20.56,    17.84,    10.14,    18.52
      255.0,      16.74,    20.52,    17.80,    10.13,    18.49
      256.0,      16.70,    20.47,    17.76,    10.12,    18.47
      257.0,      16.67,    20.43,    17.72,    10.10,    18.44
      258.0,      16.64,    20.39,    17.68,    10.09,    18.41
      259.0,      16.61,    20.34,    17.64,    10.08,    18.38
      260.0,      16.58,    20.30,    17.59,    10.06,    18.36
      261.0,      16.55,    20.25,    17.55,    10.05,    18.33
      262.0,      16.52,    20.21,    17.51,    10.04,    18.30
      263.0,      16.48,    20.17,    17.47,    10.02,    18.27
      264.0,      16.45,    20.12,    17.43,    10.01,    18.25
      265.0,      16.42,    20.08,    17.39,    10.00,    18.22
      266.0,      16.39,    20.04,    17.35,     9.99,    18.19
      267.0,      16.36,    19.99,    17.31,     9.97,    18.17
      268.0,      16.33,    19.95,    17.27,     9.96,    18.14
      269.0,      16.30,    19.91,    17.23,     9.95,    18.11
      270.0,      16.27,    19.87,    17.19,     9.94,    18.08
      271.0,      16.24,    19.82,    17.15,     9.93,    18.06
      272.0,      16.21,    19.78,    17.11,     9.91,    18.03
      273.0,      16.18,    19.74,    17.07,     9.90,    18.00
      274.0,      16.15,    19.69,    17.03,     9.89,    17.98
      275.0,      16.12,    19.65,    16.99,     9.88,    17.95
      276.0,      16.09,    19.61,    16.96,     9.87,    17.92
      277.0,      16.06,    19.57,    16.92,     9.85,    17.90
      278.0,      16.03,    19.53,    16.88,     9.84,    17.87
      279.0,      16.00,    19.48,    16.84,     9.83,    17.85
      280.0,      15.97,    19.44,    16.80,     9.82,    17.82
      281.0,      15.94,    19.40,    16.76,     9.81,    17.79
      282.0,      15.91,    19.36,    16.72,     9.80,    17.77
      283.0,      15.88,    19.32,    16.68,     9.79,    17.74
      284.0,      15.85,    19.28,    16.64,     9.77,    17.71
      285.0,      15.82,    19.23,    16.61,     9.76,    17.69
      286.0,      15.79,    19.19,    16.57,     9.75,    17.66
      287.0,      15.76,    19.15,    16.53,     9.74,    17.63
      288.0,      15.73,    19.11,    16.49,     9.73,    17.61
      289.0,      15.71,    19.07,    16.45,     9.72,    17.58
      290.0,      15.68,    19.03,    16.41,     9.71,    17.56
      291.0,      15.65,    18.99,    16.38,     9.70,    17.53
      292.0,      15.62,    18.95,    16.34,     9.68,    17.50
      293.0,      15.59,    18.91,    16.30,     9.67,    17.48
      294.0,      15.56,    18.86,    16.26,     9.66,    17.45
      295.0,      15.53,    18.82,    16.23,     9.65,    17.43
      296.0,      15.50,    18.78,    16.19,     9.64,    17.40
      297.0,      15.48,    18.74,    16.15,     9.63,    17.38
      298.0,      15.45,    18.70,    16.11,     9.62,    17.35
      299.0,      15.42,    18.66,    16.08,     9.61,    17.32
      300.0,      15.39,    18.62,    16.04,     9.60,    17.30
      301.0,      15.36,    18.58,    16.00,     9.59,    17.27
      302.0,      15.33,    18.54,    15.97,     9.58,    17.25
      303.0,      15.31,    18.50,    15.93,     9.57,    17.22
      304.0,      15.28,    18.46,    15.89,     9.56,    17.20
      305.0,      15.25,    18.42,    15.86,     9.55,    17.17
      306.0,      15.22,    18.38,    15.82,     9.54,    17.15
      307.0,      15.19,    18.34,    15.78,     9.53,    17.12
      308.0,      15.17,    18.30,    15.75,     9.52,    17.10
      309.0,      15.14,    18.27,    15.71,     9.50,    17.07
      310.0,      15.11,    18.23,    15.67,     9.49,    17.04
