Radius (km), Mean (m/s), NE (m/s), SE (m/s), SW (m/s), NW (m/s)
        0.0,       0.00,     0.00,     0.00,     0.00,     0.00
        1.0,       0.88,     0.75,     0.75,     0.98,     1.04
        2.0,       1.50,     1.34,     1.34,     1.64,     1.70
        3.0,       2.06,     1.88,     1.88,     2.20,     2.27
        4.0,       2.57,     2.39,     2.39,     2.72,     2.78
        5.0,       3.05,     2.87,     2.87,     3.20,     3.26
        6.0,       3.51,     3.35,     3.35,     3.66,     3.71
        7.0,       3.96,     3.80,     3.80,     4.10,     4.14
        8.0,       4.39,     4.25,     4.25,     4.52,     4.55
        9.0,       4.81,     4.69,     4.69,     4.92,     4.95
       10.0,       5.22,     5.12,     5.12,     5.32,     5.33
       11.0,       5.62,     5.54,     5.54,     5.71,     5.71
       12.0,       6.02,     5.96,     5.96,     6.08,     6.07
       13.0,       6.40,     6.37,     6.37,     6.45,     6.43
       14.0,       6.78,     6.77,     6.77,     6.81,     6.78
       15.0,       7.16,     7.17,     7.17,     7.16,     7.12
       16.0,       7.52,     7.57,     7.57,     7.51,     7.45
       17.0,       7.89,     7.96,     7.96,     7.85,     7.78
       18.0,       8.25,     8.35,     8.35,     8.19,     8.10
       19.0,       8.60,     8.73,     8.73,     8.52,     8.42
       20.0,       8.95,     9.11,     9.11,     8.84,     8.73
       21.0,       9.30,     9.49,     9.49,     9.17,     9.04
       22.0,       9.64,     9.87,     9.87,     9.48,     9.35
       23.0,       9.98,    10.24,    10.24,     9.80,     9.65
       24.0,      10.32,    10.61,    10.61,    10.11,     9.94
       25.0,      10.65,    10.97,    10.97,    10.42,    10.24
       26.0,      10.98,    11.34,    11.34,    10.72,    10.53
       27.0,      11.31,    11.70,    11.70,    11.02,    10.81
       28.0,      11.63,    12.06,    12.06,    11.32,    11.09
       29.0,      11.96,    12.42,    12.42,    11.61,    11.38
       30.0,      12.28,    12.77,    12.77,    11.90,    11.65
       31.0,      12.59,    13.13,    13.13,    12.19,    11.93
       32.0,      12.91,    13.48,    13.48,    12.48,    12.20
       33.0,      13.22,    13.83,    13.83,    12.77,    12.47
       34.0,      13.53,    14.17,    14.17,    13.05,    12.74
       35.0,      13.84,    14.52,    14.52,    13.33,    13.00
       36.0,      14.15,    14.86,    14.86,    13.61,    13.27
       37.0,      14.46,    15.21,    15.21,    13.88,    13.53
       38.0,      14.76,    15.55,    15.55,    14.16,    13.79
       39.0,      15.06,    15.89,    15.89,    14.43,    14.04
       40.0,      15.36,    16.23,    16.23,    14.70,    14.30
       41.0,      15.66,    16.56,    16.56,    14.97,    14.55
       42.0,      15.96,    16.90,    16.90,    15.23,    14.80
       43.0,      16.26,    17.23,    17.23,    15.50,    15.05
       44.0,      16.55,    17.57,    17.57,    15.76,    15.30
       45.0,      16.84,    17.90,    17.90,    16.03,    15.55
       46.0,      17.13,    18.23,    18.23,    16.29,    15.79
       47.0,      17.42,    18.56,    18.56,    16.54,    16.04
       48.0,      17.71,    18.89,    18.89,    16.80,    16.28
       49.0,      18.00,    19.21,    19.21,    17.06,    16.52
       50.0,      18.29,    19.54,    19.54,    17.31,    16.76
       51.0,      18.57,    19.86,    19.86,    17.57,    17.00
       52.0,      18.86,    20.19,    20.19,    17.82,    17.23
       53.0,      19.14,    20.51,    20.51,    18.07,    17.47
       54.0,      19.42,    20.83,    20.83,    18.32,    17.70
       55.0,      19.70,    21.15,    21.15,    18.56,    17.93
       56.0,      19.98,    21.47,    21.47,    18.81,    18.17
       57.0,      20.26,    21.79,    21.79,    19.06,    18.40
       58.0,      20.54,    22.11,    22.11,    19.30,    18.62
       59.0,      20.81,    22.43,    22.43,    19.55,    18.85
       60.0,      21.09,    22.74,    22.74,    19.79,    19.08
       61.0,      21.36,    23.06,    23.06,    20.03,    19.31
       62.0,      21.64,    23.37,    23.37,    20.27,    19.53
       63.0,      21.91,    23.68,    23.68,    20.51,    19.75
       64.0,      22.18,    24.00,    24.00,    20.75,    19.98
       65.0,      22.45,    24.31,    24.31,    20.98,    20.20
       66.0,      22.72,    24.62,    24.62,    21.22,    20.42
       67.0,      22.99,    24.93,    24.93,    21.45,    20.64
       68.0,      23.26,    25.24,    25.24,    21.69,    20.86
       69.0,      23.52,    25.55,    25.55,    21.92,    21.07
       70.0,      23.79,    25.86,    25.86,    22.15,    21.29
       71.0,      24.05,    26.16,    26.16,    22.39,    21.51
       72.0,      24.32,    26.47,    26.47,    22.62,    21.72
       73.0,      24.58,    26.77,    26.77,    22.85,    21.94
       74.0,      24.85,    27.08,    27.08,    23.08,    22.15
       75.0,      25.11,    27.38,    27.38,    23.30,    22.36
       76.0,      25.37,    27.69,    27.69,    23.53,    22.57
       77.0,      25.63,    27.99,    27.99,    23.76,    22.78
       78.0,      25.89,    28.29,    28.29,    23.98,    22.99
       79.0,      26.15,    28.59,    28.59,    24.21,    23.20
       80.0,      26.41,    28.90,    28.90,    24.43,    23.41
       81.0,      26.67,    29.20,    29.20,    24.66,    23.62
       82.0,      26.92,    29.50,    29.50,    24.88,    23.83
       83.0,      27.18,    29.79,    29.79,    25.10,    24.03
       84.0,      27.44,    30.09,    30.09,    25.32,    24.24
       85.0,      27.69,    30.39,    30.39,    25.54,    24.44
       86.0,      27.95,    30.69,    30.69,    25.76,    24.65
       87.0,      28.20,    30.99,    30.99,    25.98,    24.85
       88.0,      28.45,    31.28,    31.28,    26.20,    25.05
       89.0,      28.71,    31.58,    31.58,    26.42,    25.26
       90.0,      28.96,    31.87,    31.87,    26.64,    25.46
       91.0,      29.21,    32.17,    32.17,    26.85,    25.66
       92.0,      29.46,    32.46,    32.46,    27.07,    25.86
       93.0,      29.71,    32.75,    32.75,    27.28,    26.06
       94.0,      29.96,    33.05,    33.05,    27.50,    26.26
       95.0,      30.21,    33.34,    33.34,    27.71,    26.46
       96.0,      30.46,    33.63,    33.63,    27.93,    26.65
       97.0,      30.71,    33.92,    33.92,    28.14,    26.85
       98.0,      30.96,    34.22,    34.21,    28.36,    27.06
       99.0,      31.23,    34.54,    34.51,    28.59,    27.29
      100.0,      31.54,    34.89,    34.84,    28.86,    27.57
      101.0,      31.89,    35.30,    35.20,    29.17,    27.89
      102.0,      32.30,    35.76,    35.61,    29.54,    28.27
      103.0,      32.74,    36.25,    36.07,    29.96,    28.69
      104.0,      33.21,    36.77,    36.55,    30.40,    29.12
      105.0,      33.66,    37.26,    37.04,    30.82,    29.52
      106.0,      34.05,    37.70,    37.48,    31.18,    29.85
      107.0,      34.35,    38.03,    37.85,    31.45,    30.07
      108.0,      34.53,    38.25,    38.10,    31.59,    30.16
      109.0,      34.56,    38.31,    38.22,    31.58,    30.12
      110.0,      34.44,    38.23,    38.19,    31.42,    29.93
      111.0,      34.20,    38.02,    38.02,    31.13,    29.62
      112.0,      33.84,    37.69,    37.72,    30.73,    29.22
      113.0,      33.40,    37.29,    37.33,    30.25,    28.75
      114.0,      32.93,    36.84,    36.88,    29.72,    28.26
      115.0,      32.44,    36.38,    36.41,    29.19,    27.76
      116.0,      31.96,    35.93,    35.95,    28.67,    27.29
      117.0,      31.50,    35.49,    35.50,    28.18,    26.84
      118.0,      31.08,    35.07,    35.09,    27.72,    26.42
      119.0,      30.68,    34.68,    34.71,    27.30,    26.02
      120.0,      30.29,    34.29,    34.35,    26.89,    25.64
      121.0,      29.92,    33.92,    34.00,    26.50,    25.28
      122.0,      29.57,    33.55,    33.66,    26.12,    24.93
      123.0,      29.22,    33.18,    33.34,    25.76,    24.59
      124.0,      28.88,    32.83,    33.03,    25.41,    24.26
      125.0,      28.56,    32.48,    32.73,    25.08,    23.95
      126.0,      28.24,    32.14,    32.43,    24.76,    23.65
      127.0,      27.94,    31.80,    32.15,    24.44,    23.36
      128.0,      27.64,    31.47,    31.87,    24.14,    23.08
      129.0,      27.35,    31.15,    31.61,    23.86,    22.81
      130.0,      27.08,    30.83,    31.35,    23.58,    22.55
      131.0,      26.81,    30.52,    31.10,    23.31,    22.30
      132.0,      26.54,    30.21,    30.85,    23.05,    22.06
      133.0,      26.29,    29.92,    30.62,    22.80,    21.83
      134.0,      26.04,    29.62,    30.39,    22.56,    21.61
      135.0,      25.80,    29.33,    30.17,    22.33,    21.39
      136.0,      25.57,    29.05,    29.95,    22.10,    21.18
      137.0,      25.35,    28.77,    29.74,    21.89,    20.98
      138.0,      25.13,    28.50,    29.54,    21.68,    20.79
      139.0,      24.91,    28.24,    29.34,    21.48,    20.61
      140.0,      24.71,    27.97,    29.15,    21.28,    20.43
      141.0,      24.51,    27.72,    28.96,    21.10,    20.25
      142.0,      24.31,    27.47,    28.78,    20.92,    20.09
      143.0,      24.12,    27.22,    28.60,    20.74,    19.93
      144.0,      23.94,    26.98,    28.43,    20.57,    19.77
      145.0,      23.76,    26.74,    28.26,    20.41,    19.62
      146.0,      23.58,    26.50,    28.10,    20.25,    19.48
      147.0,      23.41,    26.28,    27.94,    20.10,    19.34
      148.0,      23.25,    26.05,    27.79,    19.96,    19.20
      149.0,      23.09,    25.83,    27.64,    19.81,    19.07
      150.0,      22.93,    25.61,    27.49,    19.68,    18.95
      151.0,      22.78,    25.40,    27.35,    19.55,    18.83
      152.0,      22.63,    25.19,    27.21,    19.42,    18.71
      153.0,      22.49,    24.99,    27.07,    19.29,    18.60
      154.0,      22.35,    24.79,    26.94,    19.17,    18.49
      155.0,      22.21,    24.59,    26.81,    19.06,    18.38
      156.0,      22.08,    24.40,    26.68,    18.95,    18.28
      157.0,      21.95,    24.21,    26.55,    18.84,    18.18
      158.0,      21.82,    24.02,    26.43,    18.73,    18.09
      159.0,      21.69,    23.84,    26.31,    18.63,    18.00
      160.0,      21.57,    23.66,    26.20,    18.53,    17.91
      161.0,      21.46,    23.48,    26.08,    18.44,    17.82
      162.0,      21.34,    23.31,    25.97,    18.34,    17.74
      163.0,      21.23,    23.14,    25.86,    18.25,    17.66
      164.0,      21.12,    22.97,    25.76,    18.17,    17.58
      165.0,      21.01,    22.81,    25.65,    18.08,    17.50
      166.0,      20.91,    22.65,    25.55,    18.00,    17.43
      167.0,      20.80,    22.49,    25.45,    17.92,    17.36
      168.0,      20.70,    22.34,    25.35,    17.84,    17.29
      169.0,      20.61,    22.18,    25.25,    17.77,    17.22
      170.0,      20.51,    22.03,    25.15,    17.69,    17.16
      171.0,      20.42,    21.89,    25.06,    17.62,    17.09
      172.0,      20.32,    21.74,    24.97,    17.55,    17.03
      173.0,      20.23,    21.60,    24.88,    17.49,    16.97
      174.0,      20.15,    21.46,    24.79,    17.42,    16.91
      175.0,      20.06,    21.33,    24.70,    17.36,    16.86
      176.0,      19.98,    21.19,    24.62,    17.30,    16.80
      177.0,      19.89,    21.06,    24.53,    17.24,    16.75
      178.0,      19.81,    20.93,    24.45,    17.18,    16.70
      179.0,      19.74,    20.81,    24.36,    17.12,    16.65
      180.0,      19.66,    20.68,    24.28,    17.07,    16.60
      181.0,      19.58,    20.56,    24.20,    17.01,    16.55
      182.0,      19.51,    20.44,    24.12,    16.96,    16.51
      183.0,      19.43,    20.32,    24.05,    16.91,    16.46
      184.0,      19.36,    20.20,    23.97,    16.86,    16.42
      185.0,      19.29,    20.09,    23.89,    16.81,    16.38
      186.0,      19.22,    19.98,    23.82,    16.76,    16.33
      187.0,      19.16,    19.87,    23.75,    16.71,    16.29
      188.0,      19.09,    19.76,    23.67,    16.67,    16.25
      189.0,      19.02,    19.65,    23.60,    16.62,    16.22
      190.0,      18.96,    19.55,    23.53,    16.58,    16.18
      191.0,      18.90,    19.45,    23.46,    16.53,    16.14
      192.0,      18.83,    19.35,    23.39,    16.49,    16.11
      193.0,      18.77,    19.25,    23.32,    16.45,    16.07
      194.0,      18.71,    19.15,    23.25,    16.41,    16.04
      195.0,      18.65,    19.05,    23.19,    16.37,    16.00
      196.0,      18.60,    18.96,    23.12,    16.33,    15.97
      197.0,      18.54,    18.87,    23.06,    16.29,    15.94
      198.0,      18.48,    18.78,    22.99,    16.26,    15.91
      199.0,      18.43,    18.69,    22.93,    16.22,    15.87
      200.0,      18.37,    18.60,    22.86,    16.18,    15.84
      201.0,      18.32,    18.51,    22.80,    16.15,    15.81
      202.0,      18.27,    18.43,    22.74,    16.11,    15.79
      203.0,      18.21,    18.34,    22.67,    16.08,    15.76
      204.0,      18.16,    18.26,    22.61,    16.05,    15.73
      205.0,      18.11,    18.18,    22.55,    16.01,    15.70
      206.0,      18.06,    18.10,    22.49,    15.98,    15.67
      207.0,      18.01,    18.02,    22.43,    15.95,    15.65
      208.0,      17.96,    17.94,    22.37,    15.92,    15.62
      209.0,      17.92,    17.87,    22.31,    15.89,    15.60
      210.0,      17.87,    17.79,    22.25,    15.86,    15.57
      211.0,      17.82,    17.72,    22.19,    15.83,    15.55
      212.0,      17.78,    17.65,    22.14,    15.80,    15.52
      213.0,      17.73,    17.58,    22.08,    15.77,    15.50
      214.0,      17.69,    17.51,    22.02,    15.74,    15.47
      215.0,      17.64,    17.44,    21.96,    15.71,    15.45
      216.0,      17.60,    17.37,    21.91,    15.68,    15.43
      217.0,      17.55,    17.31,    21.85,    15.65,    15.41
      218.0,      17.51,    17.24,    21.80,    15.63,    15.38
      219.0,      17.47,    17.18,    21.74,    15.60,    15.36
      220.0,      17.43,    17.11,    21.69,    15.57,    15.34
      221.0,      17.39,    17.05,    21.63,    15.54,    15.32
      222.0,      17.35,    16.99,    21.58,    15.52,    15.30
      223.0,      17.31,    16.93,    21.52,    15.49,    15.28
      224.0,      17.27,    16.87,    21.47,    15.47,    15.25
      225.0,      17.23,    16.81,    21.42,    15.44,    15.23
      226.0,      17.19,    16.75,    21.36,    15.42,    15.21
      227.0,      17.15,    16.70,    21.31,    15.39,    15.19
      228.0,      17.11,    16.64,    21.26,    15.37,    15.17
      229.0,      17.07,    16.59,    21.21,    15.34,    15.15
      230.0,      17.03,    16.53,    21.15,    15.32,    15.13
      231.0,      17.00,    16.48,    21.10,    15.29,    15.12
      232.0,      16.96,    16.42,    21.05,    15.27,    15.10
      233.0,      16.92,    16.37,    21.00,    15.25,    15.08
      234.0,      16.89,    16.32,    20.95,    15.22,    15.06
      235.0,      16.85,    16.27,    20.90,    15.20,    15.04
      236.0,      16.82,    16.22,    20.85,    15.18,    15.02
      237.0,      16.78,    16.17,    20.80,    15.15,    15.00
      238.0,      16.75,    16.12,    20.75,    15.13,    14.98
      239.0,      16.71,    16.08,    20.70,    15.11,    14.97
      240.0,      16.68,    16.03,    20.65,    15.08,    14.95
      241.0,      16.64,    15.98,    20.60,    15.06,    14.93
      242.0,      16.61,    15.94,    20.55,    15.04,    14.91
      243.0,      16.58,    15.89,    20.50,    15.02,    14.90
      244.0,      16.54,    15.85,    20.45,    15.00,    14.88
      245.0,      16.51,    15.80,    20.40,    14.97,    14.86
      246.0,      16.48,    15.76,    20.35,    14.95,    14.84
      247.0,      16.45,    15.72,    20.30,    14.93,    14.83
      248.0,      16.41,    15.68,    20.26,    14.91,    14.81
      249.0,      16.38,    15.64,    20.21,    14.89,    14.79
      250.0,      16.35,    15.60,    20.16,    14.87,    14.78
      251.0,      16.32,    15.56,    20.11,    14.85,    14.76
      252.0,      16.29,    15.52,    20.06,    14.82,    14.74
      253.0,      16.26,    15.48,    20.02,    14.80,    14.73
      254.0,      16.23,    15.44,    19.97,    14.78,    14.71
      255.0,      16.19,    15.40,    19.92,    14.76,    14.69
      256.0,      16.16,    15.36,    19.88,    14.74,    14.68
      257.0,      16.13,    15.32,    19.83,    14.72,    14.66
      258.0,      16.10,    15.29,    19.78,    14.70,    14.65
      259.0,      16.07,    15.25,    19.74,    14.68,    14.63
      260.0,      16.04,    15.22,    19.69,    14.66,    14.61
      261.0,      16.02,    15.18,    19.64,    14.64,    14.60
      262.0,      15.99,    15.15,    19.60,    14.62,    14.58
      263.0,      15.96,    15.11,    19.55,    14.60,    14.57
      264.0,      15.93,    15.08,    19.51,    14.58,    14.55
      265.0,      15.90,    15.04,    19.46,    14.56,    14.54
      266.0,      15.87,    15.01,    19.41,    14.54,    14.52
      267.0,      15.84,    14.98,    19.37,    14.52,    14.50
      268.0,      15.81,    14.94,    19.32,    14.50,    14.49
      269.0,      15.79,    14.91,    19.28,    14.48,    14.47
      270.0,      15.76,    14.88,    19.23,    14.46,    14.46
      271.0,      15.73,    14.85,    19.19,    14.44,    14.44
      272.0,      15.70,    14.82,    19.14,    14.42,    14.43
      273.0,      15.68,    14.79,    19.10,    14.40,    14.41
      274.0,      15.65,    14.76,    19.06,    14.38,    14.40
      275.0,      15.62,    14.73,    19.01,    14.36,    14.38
      276.0,      15.59,    14.70,    18.97,    14.34,    14.37
      277.0,      15.57,    14.67,    18.92,    14.33,    14.35
      278.0,      15.54,    14.64,    18.88,    14.31,    14.34
      279.0,      15.51,    14.61,    18.84,    14.29,    14.32
      280.0,      15.49,    14.58,    18.79,    14.27,    14.31
      281.0,      15.46,    14.56,    18.75,    14.25,    14.29
      282.0,      15.44,    14.53,    18.71,    14.23,    14.28
      283.0,      15.41,    14.50,    18.66,    14.21,    14.26
      284.0,      15.38,    14.47,    18.62,    14.19,    14.25
      285.0,      15.36,    14.45,    18.58,    14.17,    14.23
      286.0,      15.33,    14.42,    18.53,    14.15,    14.22
      287.0,      15.31,    14.39,    18.49,    14.14,    14.20
      288.0,      15.28,    14.37,    18.45,    14.12,    14.19
      289.0,      15.25,    14.34,    18.40,    14.10,    14.17
      290.0,      15.23,    14.32,    18.36,    14.08,    14.16
      291.0,      15.20,    14.29,    18.32,    14.06,    14.15
      292.0,      15.18,    14.27,    18.28,    14.04,    14.13
      293.0,      15.15,    14.24,    18.24,    14.02,    14.12
      294.0,      15.13,    14.22,    18.19,    14.01,    14.10
      295.0,      15.10,    14.19,    18.15,    13.99,    14.09
      296.0,      15.08,    14.17,    18.11,    13.97,    14.07
      297.0,      15.06,    14.14,    18.07,    13.95,    14.06
      298.0,      15.03,    14.12,    18.03,    13.93,    14.04
      299.0,      15.01,    14.10,    17.98,    13.91,    14.03
      300.0,      14.98,    14.07,    17.94,    13.90,    14.02
      301.0,      14.96,    14.05,    17.90,    13.88,    14.00
      302.0,      14.93,    14.03,    17.86,    13.86,    13.99
      303.0,      14.91,    14.00,    17.82,    13.84,    13.97
      304.0,      14.89,    13.98,    17.78,    13.82,    13.96
      305.0,      14.86,    13.96,    17.74,    13.81,    13.95
      306.0,      14.84,    13.94,    17.70,    13.79,    13.93
      307.0,      14.81,    13.92,    17.66,    13.77,    13.92
      308.0,      14.79,    13.89,    17.61,    13.75,    13.90
      309.0,      14.77,    13.87,    17.57,    13.73,    13.89
      310.0,      14.74,    13.85,    17.53,    13.72,    13.87
