Radius (km), Mean (m/s), NE (m/s), SE (m/s), SW (m/s), NW (m/s)
        0.0,       0.00,     0.00,     0.00,     0.00,     0.00
        1.0,       1.16,     1.19,     1.19,     1.34,     0.93
        2.0,       2.38,     2.43,     2.43,     2.62,     2.04
        3.0,       3.62,     3.68,     3.68,     3.89,     3.23
        4.0,       4.87,     4.93,     4.93,     5.13,     4.48
        5.0,       6.14,     6.20,     6.20,     6.37,     5.77
        6.0,       7.41,     7.47,     7.47,     7.60,     7.09
        7.0,       8.69,     8.75,     8.75,     8.83,     8.44
        8.0,       9.98,    10.03,    10.03,    10.05,     9.82
        9.0,      11.28,    11.32,    11.32,    11.26,    11.22
       10.0,      12.58,    12.61,    12.61,    12.47,    12.65
       11.0,      13.89,    13.90,    13.90,    13.68,    14.09
       12.0,      15.20,    15.19,    15.19,    14.88,    15.55
       13.0,      16.52,    16.49,    16.49,    16.08,    17.03
       14.0,      17.84,    17.79,    17.79,    17.28,    18.52
       15.0,      19.17,    19.09,    19.09,    18.47,    20.02
       16.0,      20.50,    20.39,    20.39,    19.67,    21.54
       17.0,      21.83,    21.70,    21.70,    20.85,    23.07
       18.0,      23.17,    23.01,    23.01,    22.04,    24.62
       19.0,      24.51,    24.32,    24.32,    23.23,    26.17
       20.0,      25.85,    25.63,    25.63,    24.41,    27.74
       21.0,      27.20,    26.94,    26.94,    25.59,    29.32
       22.0,      28.56,    28.28,    28.26,    26.79,    30.91
       23.0,      29.97,    29.68,    29.63,    28.03,    32.55
       24.0,      31.48,    31.19,    31.09,    29.35,    34.30
       25.0,      33.14,    32.84,    32.70,    30.80,    36.22
       26.0,      34.97,    34.64,    34.48,    32.39,    38.35
       27.0,      36.95,    36.58,    36.44,    34.10,    40.68
       28.0,      39.05,    38.60,    38.52,    35.90,    43.18
       29.0,      41.17,    40.61,    40.64,    37.71,    45.74
       30.0,      43.22,    42.52,    42.68,    39.43,    48.25
       31.0,      45.09,    44.25,    44.54,    40.99,    50.57
       32.0,      46.67,    45.70,    46.11,    42.31,    52.56
       33.0,      47.90,    46.83,    47.31,    43.32,    54.14
       34.0,      48.74,    47.61,    48.09,    44.01,    55.23
       35.0,      49.19,    48.06,    48.47,    44.39,    55.84
       36.0,      49.29,    48.22,    48.47,    44.48,    56.00
       37.0,      49.12,    48.16,    48.17,    44.35,    55.78
       38.0,      48.74,    47.94,    47.66,    44.07,    55.29
       39.0,      48.25,    47.64,    47.02,    43.70,    54.64
       40.0,      47.72,    47.31,    46.34,    43.29,    53.92
       41.0,      47.18,    46.98,    45.67,    42.89,    53.19
       42.0,      46.68,    46.67,    45.03,    42.51,    52.50
       43.0,      46.20,    46.38,    44.42,    42.14,    51.86
       44.0,      45.74,    46.09,    43.85,    41.78,    51.24
       45.0,      45.29,    45.81,    43.29,    41.43,    50.64
       46.0,      44.85,    45.52,    42.75,    41.08,    50.05
       47.0,      44.42,    45.25,    42.22,    40.73,    49.48
       48.0,      44.00,    44.97,    41.71,    40.39,    48.91
       49.0,      43.58,    44.70,    41.20,    40.06,    48.36
       50.0,      43.17,    44.43,    40.72,    39.72,    47.82
       51.0,      42.77,    44.16,    40.24,    39.39,    47.29
       52.0,      42.38,    43.90,    39.77,    39.07,    46.77
       53.0,      41.99,    43.63,    39.32,    38.74,    46.26
       54.0,      41.61,    43.37,    38.88,    38.42,    45.76
       55.0,      41.23,    43.12,    38.45,    38.11,    45.27
       56.0,      40.87,    42.86,    38.03,    37.80,    44.79
       57.0,      40.51,    42.61,    37.61,    37.49,    44.32
       58.0,      40.15,    42.36,    37.21,    37.18,    43.86
       59.0,      39.81,    42.12,    36.82,    36.88,    43.40
       60.0,      39.46,    41.87,    36.44,    36.58,    42.96
       61.0,      39.13,    41.63,    36.07,    36.29,    42.52
       62.0,      38.80,    41.39,    35.71,    35.99,    42.10
       63.0,      38.47,    41.15,    35.36,    35.71,    41.68
       64.0,      38.15,    40.92,    35.01,    35.42,    41.27
       65.0,      37.84,    40.69,    34.67,    35.14,    40.87
       66.0,      37.53,    40.46,    34.34,    34.86,    40.47
       67.0,      37.23,    40.23,    34.02,    34.58,    40.08
       68.0,      36.93,    40.01,    33.71,    34.31,    39.70
       69.0,      36.64,    39.78,    33.40,    34.04,    39.33
       70.0,      36.35,    39.56,    33.10,    33.77,    38.97
       71.0,      36.07,    39.34,    32.81,    33.50,    38.61
       72.0,      35.79,    39.13,    32.53,    33.24,    38.25
       73.0,      35.51,    38.91,    32.25,    32.98,    37.91
       74.0,      35.24,    38.70,    31.98,    32.73,    37.57
       75.0,      34.98,    38.49,    31.71,    32.47,    37.24
       76.0,      34.72,    38.28,    31.45,    32.22,    36.91
       77.0,      34.46,    38.08,    31.20,    31.98,    36.59
       78.0,      34.21,    37.87,    30.95,    31.73,    36.27
       79.0,      33.96,    37.67,    30.70,    31.49,    35.97
       80.0,      33.71,    37.47,    30.47,    31.25,    35.66
       81.0,      33.47,    37.27,    30.24,    31.01,    35.36
       82.0,      33.23,    37.08,    30.01,    30.78,    35.07
       83.0,      33.00,    36.88,    29.79,    30.54,    34.78
       84.0,      32.77,    36.69,    29.57,    30.32,    34.50
       85.0,      32.54,    36.50,    29.36,    30.09,    34.23
       86.0,      32.32,    36.31,    29.15,    29.86,    33.95
       87.0,      32.10,    36.12,    28.95,    29.64,    33.69
       88.0,      31.88,    35.94,    28.75,    29.42,    33.42
       89.0,      31.67,    35.75,    28.55,    29.20,    33.17
       90.0,      31.46,    35.57,    28.36,    28.99,    32.91
       91.0,      31.25,    35.39,    28.17,    28.78,    32.66
       92.0,      31.05,    35.22,    27.99,    28.57,    32.42
       93.0,      30.85,    35.04,    27.81,    28.36,    32.18
       94.0,      30.65,    34.86,    27.64,    28.15,    31.94
       95.0,      30.45,    34.69,    27.47,    27.95,    31.71
       96.0,      30.26,    34.52,    27.30,    27.75,    31.48
       97.0,      30.07,    34.35,    27.13,    27.55,    31.26
       98.0,      29.88,    34.18,    26.97,    27.35,    31.04
       99.0,      29.70,    34.01,    26.81,    27.16,    30.82
      100.0,      29.52,    33.85,    26.66,    26.96,    30.61
      101.0,      29.34,    33.69,    26.50,    26.77,    30.40
      102.0,      29.16,    33.52,    26.35,    26.58,    30.19
      103.0,      28.99,    33.36,    26.21,    26.40,    29.99
      104.0,      28.82,    33.20,    26.06,    26.21,    29.79
      105.0,      28.65,    33.05,    25.92,    26.03,    29.59
      106.0,      28.48,    32.89,    25.78,    25.85,    29.40
      107.0,      28.31,    32.74,    25.65,    25.67,    29.21
      108.0,      28.15,    32.58,    25.51,    25.49,    29.02
      109.0,      27.99,    32.43,    25.38,    25.32,    28.84
      110.0,      27.83,    32.28,    25.25,    25.14,    28.65
      111.0,      27.68,    32.13,    25.13,    24.97,    28.48
      112.0,      27.52,    31.98,    25.00,    24.80,    28.30
      113.0,      27.37,    31.84,    24.88,    24.64,    28.13
      114.0,      27.22,    31.69,    24.76,    24.47,    27.96
      115.0,      27.07,    31.55,    24.64,    24.31,    27.79
      116.0,      26.93,    31.41,    24.53,    24.14,    27.62
      117.0,      26.78,    31.27,    24.41,    23.98,    27.46
      118.0,      26.64,    31.13,    24.30,    23.82,    27.30
      119.0,      26.50,    30.99,    24.19,    23.67,    27.14
      120.0,      26.36,    30.85,    24.08,    23.51,    26.99
      121.0,      26.22,    30.71,    23.98,    23.36,    26.84
      122.0,      26.09,    30.58,    23.87,    23.20,    26.69
      123.0,      25.95,    30.45,    23.77,    23.05,    26.54
      124.0,      25.82,    30.31,    23.67,    22.90,    26.39
      125.0,      25.69,    30.18,    23.57,    22.76,    26.25
      126.0,      25.56,    30.05,    23.47,    22.61,    26.10
      127.0,      25.43,    29.92,    23.37,    22.47,    25.96
      128.0,      25.31,    29.80,    23.28,    22.32,    25.83
      129.0,      25.18,    29.67,    23.18,    22.18,    25.69
      130.0,      25.06,    29.54,    23.09,    22.04,    25.55
      131.0,      24.94,    29.42,    23.00,    21.90,    25.42
      132.0,      24.82,    29.30,    22.91,    21.77,    25.29
      133.0,      24.70,    29.17,    22.82,    21.63,    25.16
      134.0,      24.58,    29.05,    22.73,    21.50,    25.04
      135.0,      24.46,    28.93,    22.64,    21.37,    24.91
      136.0,      24.35,    28.81,    22.56,    21.23,    24.79
      137.0,      24.23,    28.70,    22.47,    21.10,    24.66
      138.0,      24.12,    28.58,    22.39,    20.98,    24.54
      139.0,      24.01,    28.46,    22.31,    20.85,    24.42
      140.0,      23.90,    28.35,    22.23,    20.72,    24.31
      141.0,      23.79,    28.23,    22.15,    20.60,    24.19
      142.0,      23.69,    28.12,    22.07,    20.48,    24.08
      143.0,      23.58,    28.01,    21.99,    20.35,    23.96
      144.0,      23.47,    27.90,    21.91,    20.23,    23.85
      145.0,      23.37,    27.79,    21.84,    20.11,    23.74
      146.0,      23.27,    27.68,    21.76,    20.00,    23.63
      147.0,      23.17,    27.57,    21.69,    19.88,    23.52
      148.0,      23.06,    27.46,    21.61,    19.76,    23.42
      149.0,      22.96,    27.36,    21.54,    19.65,    23.31
      150.0,      22.87,    27.25,    21.47,    19.53,    23.21
      151.0,      22.77,    27.15,    21.40,    19.42,    23.11
      152.0,      22.67,    27.04,    21.33,    19.31,    23.01
      153.0,      22.58,    26.94,    21.26,    19.20,    22.91
      154.0,      22.48,    26.84,    21.19,    19.09,    22.81
      155.0,      22.39,    26.73,    21.12,    18.99,    22.71
      156.0,      22.30,    26.63,    21.06,    18.88,    22.61
      157.0,      22.20,    26.53,    20.99,    18.77,    22.52
      158.0,      22.11,    26.44,    20.92,    18.67,    22.42
      159.0,      22.02,    26.34,    20.86,    18.57,    22.33
      160.0,      21.93,    26.24,    20.79,    18.46,    22.23
      161.0,      21.85,    26.14,    20.73,    18.36,    22.14
      162.0,      21.76,    26.05,    20.67,    18.26,    22.05
      163.0,      21.67,    25.95,    20.60,    18.16,    21.96
      164.0,      21.59,    25.86,    20.54,    18.07,    21.87
      165.0,      21.50,    25.77,    20.48,    17.97,    21.79
      166.0,      21.42,    25.67,    20.42,    17.87,    21.70
      167.0,      21.33,    25.58,    20.36,    17.78,    21.61
      168.0,      21.25,    25.49,    20.30,    17.68,    21.53
      169.0,      21.17,    25.40,    20.24,    17.59,    21.44
      170.0,      21.09,    25.31,    20.18,    17.50,    21.36
      171.0,      21.01,    25.22,    20.12,    17.41,    21.28
      172.0,      20.93,    25.13,    20.06,    17.32,    21.20
      173.0,      20.85,    25.04,    20.01,    17.23,    21.12
      174.0,      20.77,    24.96,    19.95,    17.14,    21.04
      175.0,      20.69,    24.87,    19.89,    17.05,    20.96
      176.0,      20.62,    24.79,    19.84,    16.97,    20.88
      177.0,      20.54,    24.70,    19.78,    16.88,    20.80
      178.0,      20.46,    24.62,    19.72,    16.80,    20.72
      179.0,      20.39,    24.53,    19.67,    16.71,    20.65
      180.0,      20.32,    24.45,    19.62,    16.63,    20.57
      181.0,      20.24,    24.37,    19.56,    16.55,    20.49
      182.0,      20.17,    24.29,    19.51,    16.46,    20.42
      183.0,      20.10,    24.20,    19.45,    16.38,    20.35
      184.0,      20.03,    24.12,    19.40,    16.30,    20.27
      185.0,      19.95,    24.04,    19.35,    16.23,    20.20
      186.0,      19.88,    23.97,    19.30,    16.15,    20.13
      187.0,      19.81,    23.89,    19.24,    16.07,    20.06
      188.0,      19.74,    23.81,    19.19,    15.99,    19.99
      189.0,      19.68,    23.73,    19.14,    15.92,    19.92
      190.0,      19.61,    23.65,    19.09,    15.84,    19.85
      191.0,      19.54,    23.58,    19.04,    15.77,    19.78
      192.0,      19.47,    23.50,    18.99,    15.69,    19.71
      193.0,      19.41,    23.43,    18.94,    15.62,    19.64
      194.0,      19.34,    23.35,    18.89,    15.55,    19.57
      195.0,      19.27,    23.28,    18.84,    15.48,    19.51
      196.0,      19.21,    23.20,    18.79,    15.41,    19.44
      197.0,      19.15,    23.13,    18.74,    15.34,    19.37
      198.0,      19.08,    23.06,    18.69,    15.27,    19.31
      199.0,      19.02,    22.99,    18.64,    15.20,    19.24
      200.0,      18.95,    22.91,    18.60,    15.13,    19.18
      201.0,      18.89,    22.84,    18.55,    15.06,    19.11
      202.0,      18.83,    22.77,    18.50,    15.00,    19.05
      203.0,      18.77,    22.70,    18.45,    14.93,    18.99
      204.0,      18.71,    22.63,    18.41,    14.86,    18.93
      205.0,      18.65,    22.56,    18.36,    14.80,    18.86
      206.0,      18.59,    22.50,    18.31,    14.73,    18.80
      207.0,      18.53,    22.43,    18.27,    14.67,    18.74
      208.0,      18.47,    22.36,    18.22,    14.61,    18.68
      209.0,      18.41,    22.29,    18.18,    14.55,    18.62
      210.0,      18.35,    22.23,    18.13,    14.48,    18.56
      211.0,      18.29,    22.16,    18.08,    14.42,    18.50
      212.0,      18.23,    22.09,    18.04,    14.36,    18.44
      213.0,      18.18,    22.03,    17.99,    14.30,    18.38
      214.0,      18.12,    21.96,    17.95,    14.24,    18.32
      215.0,      18.06,    21.90,    17.90,    14.18,    18.26
      216.0,      18.01,    21.84,    17.86,    14.13,    18.21
      217.0,      17.95,    21.77,    17.82,    14.07,    18.15
      218.0,      17.90,    21.71,    17.77,    14.01,    18.09
      219.0,      17.84,    21.65,    17.73,    13.96,    18.04
      220.0,      17.79,    21.58,    17.68,    13.90,    17.98
      221.0,      17.73,    21.52,    17.64,    13.84,    17.92
      222.0,      17.68,    21.46,    17.60,    13.79,    17.87
      223.0,      17.63,    21.40,    17.55,    13.73,    17.81
      224.0,      17.57,    21.34,    17.51,    13.68,    17.76
      225.0,      17.52,    21.28,    17.47,    13.63,    17.70
      226.0,      17.47,    21.22,    17.43,    13.57,    17.65
      227.0,      17.41,    21.16,    17.38,    13.52,    17.59
      228.0,      17.36,    21.10,    17.34,    13.47,    17.54
      229.0,      17.31,    21.04,    17.30,    13.42,    17.49
      230.0,      17.26,    20.98,    17.26,    13.37,    17.43
      231.0,      17.21,    20.92,    17.22,    13.32,    17.38
      232.0,      17.16,    20.87,    17.17,    13.27,    17.33
      233.0,      17.11,    20.81,    17.13,    13.22,    17.28
      234.0,      17.06,    20.75,    17.09,    13.17,    17.22
      235.0,      17.01,    20.70,    17.05,    13.12,    17.17
      236.0,      16.96,    20.64,    17.01,    13.07,    17.12
      237.0,      16.91,    20.58,    16.97,    13.02,    17.07
      238.0,      16.86,    20.53,    16.93,    12.98,    17.02
      239.0,      16.82,    20.47,    16.89,    12.93,    16.97
      240.0,      16.77,    20.42,    16.85,    12.88,    16.92
      241.0,      16.72,    20.36,    16.81,    12.84,    16.87
      242.0,      16.67,    20.31,    16.77,    12.79,    16.82
      243.0,      16.62,    20.26,    16.73,    12.75,    16.77
      244.0,      16.58,    20.20,    16.69,    12.70,    16.72
      245.0,      16.53,    20.15,    16.65,    12.66,    16.67
      246.0,      16.48,    20.10,    16.61,    12.61,    16.62
      247.0,      16.44,    20.04,    16.57,    12.57,    16.57
      248.0,      16.39,    19.99,    16.53,    12.53,    16.52
      249.0,      16.35,    19.94,    16.49,    12.48,    16.48
      250.0,      16.30,    19.89,    16.45,    12.44,    16.43
      251.0,      16.26,    19.84,    16.41,    12.40,    16.38
      252.0,      16.21,    19.79,    16.37,    12.36,    16.33
      253.0,      16.17,    19.74,    16.33,    12.32,    16.29
      254.0,      16.12,    19.69,    16.30,    12.28,    16.24
      255.0,      16.08,    19.64,    16.26,    12.24,    16.19
      256.0,      16.04,    19.59,    16.22,    12.20,    16.14
      257.0,      15.99,    19.54,    16.18,    12.16,    16.10
      258.0,      15.95,    19.49,    16.14,    12.12,    16.05
      259.0,      15.91,    19.44,    16.10,    12.08,    16.01
      260.0,      15.86,    19.39,    16.07,    12.04,    15.96
      261.0,      15.82,    19.34,    16.03,    12.00,    15.91
      262.0,      15.78,    19.29,    15.99,    11.96,    15.87
      263.0,      15.74,    19.24,    15.95,    11.92,    15.82
      264.0,      15.69,    19.20,    15.92,    11.89,    15.78
      265.0,      15.65,    19.15,    15.88,    11.85,    15.73
      266.0,      15.61,    19.10,    15.84,    11.81,    15.69
      267.0,      15.57,    19.06,    15.80,    11.78,    15.64
      268.0,      15.53,    19.01,    15.77,    11.74,    15.60
      269.0,      15.49,    18.96,    15.73,    11.71,    15.56
      270.0,      15.45,    18.92,    15.69,    11.67,    15.51
      271.0,      15.41,    18.87,    15.66,    11.63,    15.47
      272.0,      15.37,    18.83,    15.62,    11.60,    15.42
      273.0,      15.33,    18.78,    15.58,    11.57,    15.38
      274.0,      15.29,    18.73,    15.55,    11.53,    15.34
      275.0,      15.25,    18.69,    15.51,    11.50,    15.29
      276.0,      15.21,    18.65,    15.48,    11.46,    15.25
      277.0,      15.17,    18.60,    15.44,    11.43,    15.21
      278.0,      15.13,    18.56,    15.40,    11.40,    15.17
      279.0,      15.09,    18.51,    15.37,    11.36,    15.12
      280.0,      15.05,    18.47,    15.33,    11.33,    15.08
      281.0,      15.02,    18.43,    15.30,    11.30,    15.04
      282.0,      14.98,    18.38,    15.26,    11.27,    15.00
      283.0,      14.94,    18.34,    15.23,    11.24,    14.96
      284.0,      14.90,    18.30,    15.19,    11.20,    14.91
      285.0,      14.86,    18.25,    15.15,    11.17,    14.87
      286.0,      14.83,    18.21,    15.12,    11.14,    14.83
      287.0,      14.79,    18.17,    15.08,    11.11,    14.79
      288.0,      14.75,    18.13,    15.05,    11.08,    14.75
      289.0,      14.71,    18.09,    15.01,    11.05,    14.71
      290.0,      14.68,    18.04,    14.98,    11.02,    14.67
      291.0,      14.64,    18.00,    14.94,    10.99,    14.63
      292.0,      14.60,    17.96,    14.91,    10.96,    14.59
      293.0,      14.57,    17.92,    14.88,    10.93,    14.55
      294.0,      14.53,    17.88,    14.84,    10.90,    14.51
      295.0,      14.50,    17.84,    14.81,    10.87,    14.47
      296.0,      14.46,    17.80,    14.77,    10.85,    14.43
      297.0,      14.43,    17.76,    14.74,    10.82,    14.39
      298.0,      14.39,    17.72,    14.70,    10.79,    14.35
      299.0,      14.35,    17.68,    14.67,    10.76,    14.31
      300.0,      14.32,    17.64,    14.64,    10.73,    14.27
      301.0,      14.28,    17.60,    14.60,    10.71,    14.23
      302.0,      14.25,    17.56,    14.57,    10.68,    14.19
      303.0,      14.21,    17.52,    14.53,    10.65,    14.15
      304.0,      14.18,    17.48,    14.50,    10.63,    14.11
      305.0,      14.15,    17.44,    14.47,    10.60,    14.07
      306.0,      14.11,    17.41,    14.43,    10.57,    14.03
      307.0,      14.08,    17.37,    14.40,    10.55,    14.00
      308.0,      14.04,    17.33,    14.37,    10.52,    13.96
      309.0,      14.01,    17.29,    14.33,    10.49,    13.92
      310.0,      13.98,    17.25,    14.30,    10.47,    13.88
