Radius (km), Mean (m/s), NE (m/s), SE (m/s), SW (m/s), NW (m/s)
        0.0,       0.00,     0.00,     0.00,     0.00,     0.00
        1.0,       1.57,     1.50,     1.63,     1.64,     1.50
        2.0,       2.89,     2.81,     2.96,     2.96,     2.81
        3.0,       4.12,     4.06,     4.19,     4.19,     4.06
        4.0,       5.31,     5.26,     5.36,     5.36,     5.26
        5.0,       6.46,     6.44,     6.49,     6.49,     6.44
        6.0,       7.59,     7.59,     7.59,     7.58,     7.59
        7.0,       8.69,     8.73,     8.66,     8.65,     8.73
        8.0,       9.78,     9.85,     9.71,     9.70,     9.85
        9.0,      10.85,    10.96,    10.74,    10.73,    10.96
       10.0,      11.90,    12.05,    11.76,    11.74,    12.05
       11.0,      12.94,    13.14,    12.76,    12.74,    13.14
       12.0,      13.97,    14.21,    13.75,    13.72,    14.21
       13.0,      14.99,    15.28,    14.73,    14.69,    15.28
       14.0,      16.00,    16.34,    15.69,    15.65,    16.34
       15.0,      17.01,    17.39,    16.65,    16.60,    17.39
       16.0,      18.00,    18.43,    17.60,    17.55,    18.43
       17.0,      18.99,    19.47,    18.54,    18.48,    19.47
       18.0,      19.97,    20.51,    19.47,    19.40,    20.51
       19.0,      20.94,    21.53,    20.39,    20.32,    21.53
       20.0,      21.91,    22.56,    21.31,    21.23,    22.56
       21.0,      22.88,    23.58,    22.22,    22.14,    23.58
       22.0,      23.86,    24.63,    23.15,    23.04,    24.62
       23.0,      24.89,    25.74,    24.12,    23.95,    25.73
       24.0,      25.99,    26.96,    25.18,    24.89,    26.94
       25.0,      27.21,    28.30,    26.35,    25.91,    28.28
       26.0,      28.54,    29.78,    27.62,    27.02,    29.76
       27.0,      29.97,    31.35,    28.99,    28.22,    31.34
       28.0,      31.46,    32.96,    30.41,    29.51,    32.96
       29.0,      32.94,    34.53,    31.81,    30.84,    34.56
       30.0,      34.32,    36.00,    33.12,    32.14,    36.04
       31.0,      35.55,    37.27,    34.27,    33.34,    37.33
       32.0,      36.56,    38.29,    35.19,    34.38,    38.37
       33.0,      37.30,    39.03,    35.87,    35.20,    39.12
       34.0,      37.77,    39.48,    36.27,    35.76,    39.56
       35.0,      37.97,    39.65,    36.43,    36.06,    39.72
       36.0,      37.94,    39.60,    36.38,    36.12,    39.64
       37.0,      37.73,    39.39,    36.16,    35.97,    39.39
       38.0,      37.40,    39.07,    35.84,    35.67,    39.02
       39.0,      37.01,    38.69,    35.46,    35.28,    38.60
       40.0,      36.59,    38.30,    35.07,    34.84,    38.16
       41.0,      36.18,    37.92,    34.68,    34.39,    37.73
       42.0,      35.79,    37.56,    34.31,    33.96,    37.32
       43.0,      35.41,    37.20,    33.96,    33.56,    36.93
       44.0,      35.05,    36.86,    33.61,    33.18,    36.54
       45.0,      34.69,    36.52,    33.27,    32.81,    36.17
       46.0,      34.34,    36.19,    32.94,    32.44,    35.80
       47.0,      34.00,    35.87,    32.61,    32.08,    35.43
       48.0,      33.66,    35.54,    32.28,    31.73,    35.08
       49.0,      33.33,    35.23,    31.97,    31.39,    34.73
       50.0,      33.00,    34.92,    31.65,    31.05,    34.39
       51.0,      32.68,    34.61,    31.35,    30.72,    34.05
       52.0,      32.37,    34.31,    31.05,    30.39,    33.72
       53.0,      32.06,    34.02,    30.75,    30.07,    33.40
       54.0,      31.75,    33.73,    30.46,    29.76,    33.08
       55.0,      31.46,    33.44,    30.17,    29.45,    32.77
       56.0,      31.16,    33.16,    29.89,    29.14,    32.46
       57.0,      30.88,    32.89,    29.61,    28.85,    32.16
       58.0,      30.59,    32.62,    29.34,    28.55,    31.86
       59.0,      30.32,    32.35,    29.07,    28.27,    31.57
       60.0,      30.04,    32.09,    28.81,    27.99,    31.29
       61.0,      29.78,    31.83,    28.55,    27.71,    31.01
       62.0,      29.51,    31.57,    28.30,    27.44,    30.74
       63.0,      29.25,    31.32,    28.05,    27.17,    30.47
       64.0,      29.00,    31.08,    27.80,    26.91,    30.20
       65.0,      28.75,    30.84,    27.56,    26.65,    29.95
       66.0,      28.50,    30.60,    27.32,    26.40,    29.69
       67.0,      28.26,    30.37,    27.09,    26.15,    29.44
       68.0,      28.03,    30.14,    26.86,    25.91,    29.20
       69.0,      27.79,    29.91,    26.64,    25.67,    28.96
       70.0,      27.56,    29.69,    26.41,    25.43,    28.72
       71.0,      27.34,    29.47,    26.20,    25.20,    28.49
       72.0,      27.12,    29.25,    25.98,    24.97,    28.26
       73.0,      26.90,    29.04,    25.77,    24.75,    28.04
       74.0,      26.69,    28.84,    25.56,    24.53,    27.82
       75.0,      26.48,    28.63,    25.36,    24.32,    27.60
       76.0,      26.27,    28.43,    25.16,    24.10,    27.39
       77.0,      26.07,    28.23,    24.96,    23.90,    27.18
       78.0,      25.87,    28.04,    24.77,    23.69,    26.98
       79.0,      25.67,    27.84,    24.58,    23.49,    26.78
       80.0,      25.48,    27.66,    24.39,    23.29,    26.58
       81.0,      25.29,    27.47,    24.21,    23.10,    26.39
       82.0,      25.11,    27.29,    24.03,    22.91,    26.20
       83.0,      24.92,    27.11,    23.85,    22.72,    26.02
       84.0,      24.74,    26.93,    23.67,    22.54,    25.83
       85.0,      24.57,    26.76,    23.50,    22.36,    25.65
       86.0,      24.39,    26.58,    23.33,    22.18,    25.48
       87.0,      24.22,    26.42,    23.16,    22.00,    25.30
       88.0,      24.05,    26.25,    23.00,    21.83,    25.13
       89.0,      23.89,    26.09,    22.84,    21.66,    24.97
       90.0,      23.73,    25.93,    22.68,    21.50,    24.80
       91.0,      23.57,    25.77,    22.52,    21.33,    24.64
       92.0,      23.41,    25.61,    22.37,    21.17,    24.48
       93.0,      23.26,    25.46,    22.22,    21.01,    24.33
       94.0,      23.10,    25.31,    22.07,    20.86,    24.17
       95.0,      22.95,    25.16,    21.92,    20.71,    24.02
       96.0,      22.81,    25.01,    21.78,    20.56,    23.88
       97.0,      22.66,    24.87,    21.64,    20.41,    23.73
       98.0,      22.52,    24.73,    21.50,    20.26,    23.59
       99.0,      22.38,    24.59,    21.36,    20.12,    23.45
      100.0,      22.24,    24.45,    21.23,    19.98,    23.31
      101.0,      22.11,    24.32,    21.10,    19.84,    23.18
      102.0,      21.97,    24.19,    20.97,    19.70,    23.04
      103.0,      21.84,    24.05,    20.84,    19.57,    22.91
      104.0,      21.71,    23.93,    20.71,    19.44,    22.78
      105.0,      21.59,    23.80,    20.59,    19.31,    22.66
      106.0,      21.46,    23.67,    20.46,    19.18,    22.53
      107.0,      21.34,    23.55,    20.34,    19.05,    22.41
      108.0,      21.22,    23.43,    20.23,    18.93,    22.29
      109.0,      21.10,    23.31,    20.11,    18.81,    22.17
      110.0,      20.98,    23.19,    19.99,    18.69,    22.06
      111.0,      20.87,    23.08,    19.88,    18.57,    21.94
      112.0,      20.76,    22.96,    19.77,    18.45,    21.83
      113.0,      20.64,    22.85,    19.66,    18.34,    21.72
      114.0,      20.53,    22.74,    19.55,    18.23,    21.61
      115.0,      20.43,    22.63,    19.45,    18.12,    21.51
      116.0,      20.32,    22.53,    19.34,    18.01,    21.40
      117.0,      20.22,    22.42,    19.24,    17.90,    21.30
      118.0,      20.11,    22.32,    19.14,    17.79,    21.20
      119.0,      20.01,    22.21,    19.04,    17.69,    21.10
      120.0,      19.91,    22.11,    18.94,    17.59,    21.00
      121.0,      19.81,    22.01,    18.85,    17.49,    20.91
      122.0,      19.72,    21.92,    18.75,    17.39,    20.81
      123.0,      19.62,    21.82,    18.66,    17.29,    20.72
      124.0,      19.53,    21.72,    18.57,    17.19,    20.63
      125.0,      19.43,    21.63,    18.47,    17.10,    20.54
      126.0,      19.34,    21.54,    18.39,    17.00,    20.45
      127.0,      19.25,    21.45,    18.30,    16.91,    20.36
      128.0,      19.17,    21.36,    18.21,    16.82,    20.27
      129.0,      19.08,    21.27,    18.13,    16.73,    20.19
      130.0,      18.99,    21.18,    18.04,    16.64,    20.11
      131.0,      18.91,    21.10,    17.96,    16.55,    20.02
      132.0,      18.82,    21.01,    17.88,    16.47,    19.94
      133.0,      18.74,    20.93,    17.80,    16.38,    19.86
      134.0,      18.66,    20.85,    17.72,    16.30,    19.79
      135.0,      18.58,    20.77,    17.64,    16.21,    19.71
      136.0,      18.50,    20.69,    17.56,    16.13,    19.63
      137.0,      18.43,    20.61,    17.49,    16.05,    19.56
      138.0,      18.35,    20.53,    17.41,    15.97,    19.49
      139.0,      18.28,    20.45,    17.34,    15.90,    19.41
      140.0,      18.20,    20.38,    17.27,    15.82,    19.34
      141.0,      18.13,    20.30,    17.20,    15.74,    19.27
      142.0,      18.06,    20.23,    17.13,    15.67,    19.20
      143.0,      17.99,    20.16,    17.06,    15.59,    19.14
      144.0,      17.92,    20.09,    16.99,    15.52,    19.07
      145.0,      17.85,    20.01,    16.92,    15.45,    19.00
      146.0,      17.78,    19.95,    16.86,    15.38,    18.94
      147.0,      17.71,    19.88,    16.79,    15.31,    18.87
      148.0,      17.65,    19.81,    16.73,    15.24,    18.81
      149.0,      17.58,    19.74,    16.66,    15.17,    18.75
      150.0,      17.52,    19.68,    16.60,    15.10,    18.69
      151.0,      17.45,    19.61,    16.54,    15.03,    18.63
      152.0,      17.39,    19.55,    16.48,    14.97,    18.57
      153.0,      17.33,    19.49,    16.42,    14.90,    18.51
      154.0,      17.27,    19.42,    16.36,    14.84,    18.45
      155.0,      17.21,    19.36,    16.30,    14.78,    18.39
      156.0,      17.15,    19.30,    16.24,    14.71,    18.34
      157.0,      17.09,    19.24,    16.19,    14.65,    18.28
      158.0,      17.03,    19.18,    16.13,    14.59,    18.23
      159.0,      16.98,    19.12,    16.08,    14.53,    18.17
      160.0,      16.92,    19.07,    16.02,    14.47,    18.12
      161.0,      16.86,    19.01,    15.97,    14.41,    18.07
      162.0,      16.81,    18.95,    15.92,    14.35,    18.02
      163.0,      16.76,    18.90,    15.86,    14.30,    17.97
      164.0,      16.70,    18.84,    15.81,    14.24,    17.92
      165.0,      16.65,    18.79,    15.76,    14.18,    17.87
      166.0,      16.60,    18.74,    15.71,    14.13,    17.82
      167.0,      16.55,    18.68,    15.66,    14.07,    17.77
      168.0,      16.50,    18.63,    15.61,    14.02,    17.72
      169.0,      16.45,    18.58,    15.56,    13.96,    17.67
      170.0,      16.40,    18.53,    15.52,    13.91,    17.63
      171.0,      16.35,    18.48,    15.47,    13.86,    17.58
      172.0,      16.30,    18.43,    15.42,    13.81,    17.54
      173.0,      16.25,    18.38,    15.38,    13.76,    17.49
      174.0,      16.20,    18.33,    15.33,    13.71,    17.45
      175.0,      16.16,    18.28,    15.29,    13.65,    17.40
      176.0,      16.11,    18.24,    15.24,    13.61,    17.36
      177.0,      16.07,    18.19,    15.20,    13.56,    17.32
      178.0,      16.02,    18.14,    15.16,    13.51,    17.28
      179.0,      15.98,    18.10,    15.12,    13.46,    17.24
      180.0,      15.93,    18.05,    15.07,    13.41,    17.20
      181.0,      15.89,    18.01,    15.03,    13.36,    17.15
      182.0,      15.85,    17.96,    14.99,    13.32,    17.11
      183.0,      15.81,    17.92,    14.95,    13.27,    17.08
      184.0,      15.76,    17.88,    14.91,    13.23,    17.04
      185.0,      15.72,    17.84,    14.87,    13.18,    17.00
      186.0,      15.68,    17.79,    14.83,    13.14,    16.96
      187.0,      15.64,    17.75,    14.80,    13.09,    16.92
      188.0,      15.60,    17.71,    14.76,    13.05,    16.89
      189.0,      15.56,    17.67,    14.72,    13.00,    16.85
      190.0,      15.52,    17.63,    14.68,    12.96,    16.81
      191.0,      15.48,    17.59,    14.65,    12.92,    16.78
      192.0,      15.44,    17.55,    14.61,    12.88,    16.74
      193.0,      15.41,    17.51,    14.58,    12.83,    16.71
      194.0,      15.37,    17.47,    14.54,    12.79,    16.67
      195.0,      15.33,    17.44,    14.51,    12.75,    16.64
      196.0,      15.30,    17.40,    14.47,    12.71,    16.60
      197.0,      15.26,    17.36,    14.44,    12.67,    16.57
      198.0,      15.22,    17.32,    14.40,    12.63,    16.54
      199.0,      15.19,    17.29,    14.37,    12.59,    16.50
      200.0,      15.15,    17.25,    14.34,    12.55,    16.47
      201.0,      15.12,    17.22,    14.30,    12.51,    16.44
      202.0,      15.08,    17.18,    14.27,    12.47,    16.41
      203.0,      15.05,    17.15,    14.24,    12.43,    16.38
      204.0,      15.01,    17.11,    14.21,    12.40,    16.34
      205.0,      14.98,    17.08,    14.18,    12.36,    16.31
      206.0,      14.95,    17.04,    14.15,    12.32,    16.28
      207.0,      14.92,    17.01,    14.12,    12.28,    16.25
      208.0,      14.88,    16.98,    14.09,    12.25,    16.22
      209.0,      14.85,    16.94,    14.06,    12.21,    16.19
      210.0,      14.82,    16.91,    14.03,    12.17,    16.16
      211.0,      14.79,    16.88,    14.00,    12.14,    16.13
      212.0,      14.76,    16.85,    13.97,    12.10,    16.10
      213.0,      14.72,    16.81,    13.94,    12.07,    16.08
      214.0,      14.69,    16.78,    13.91,    12.03,    16.05
      215.0,      14.66,    16.75,    13.88,    12.00,    16.02
      216.0,      14.63,    16.72,    13.86,    11.96,    15.99
      217.0,      14.60,    16.69,    13.83,    11.93,    15.96
      218.0,      14.57,    16.66,    13.80,    11.89,    15.94
      219.0,      14.54,    16.63,    13.77,    11.86,    15.91
      220.0,      14.51,    16.60,    13.75,    11.83,    15.88
      221.0,      14.49,    16.57,    13.72,    11.79,    15.86
      222.0,      14.46,    16.54,    13.70,    11.76,    15.83
      223.0,      14.43,    16.51,    13.67,    11.73,    15.80
      224.0,      14.40,    16.48,    13.64,    11.69,    15.78
      225.0,      14.37,    16.45,    13.62,    11.66,    15.75
      226.0,      14.34,    16.43,    13.59,    11.63,    15.73
      227.0,      14.32,    16.40,    13.57,    11.60,    15.70
      228.0,      14.29,    16.37,    13.54,    11.57,    15.68
      229.0,      14.26,    16.34,    13.52,    11.54,    15.65
      230.0,      14.24,    16.32,    13.49,    11.50,    15.63
      231.0,      14.21,    16.29,    13.47,    11.47,    15.60
      232.0,      14.18,    16.26,    13.45,    11.44,    15.58
      233.0,      14.16,    16.23,    13.42,    11.41,    15.55
      234.0,      14.13,    16.21,    13.40,    11.38,    15.53
      235.0,      14.10,    16.18,    13.38,    11.35,    15.51
      236.0,      14.08,    16.16,    13.35,    11.32,    15.48
      237.0,      14.05,    16.13,    13.33,    11.29,    15.46
      238.0,      14.03,    16.10,    13.31,    11.26,    15.44
      239.0,      14.00,    16.08,    13.29,    11.23,    15.41
      240.0,      13.98,    16.05,    13.26,    11.20,    15.39
      241.0,      13.95,    16.03,    13.24,    11.17,    15.37
      242.0,      13.93,    16.00,    13.22,    11.14,    15.34
      243.0,      13.90,    15.98,    13.20,    11.11,    15.32
      244.0,      13.88,    15.95,    13.18,    11.09,    15.30
      245.0,      13.85,    15.93,    13.15,    11.06,    15.28
      246.0,      13.83,    15.91,    13.13,    11.03,    15.26
      247.0,      13.81,    15.88,    13.11,    11.00,    15.23
      248.0,      13.78,    15.86,    13.09,    10.97,    15.21
      249.0,      13.76,    15.83,    13.07,    10.95,    15.19
      250.0,      13.74,    15.81,    13.05,    10.92,    15.17
      251.0,      13.71,    15.79,    13.03,    10.89,    15.15
      252.0,      13.69,    15.76,    13.01,    10.86,    15.13
      253.0,      13.67,    15.74,    12.99,    10.84,    15.11
      254.0,      13.65,    15.72,    12.97,    10.81,    15.08
      255.0,      13.62,    15.70,    12.95,    10.78,    15.06
      256.0,      13.60,    15.67,    12.93,    10.75,    15.04
      257.0,      13.58,    15.65,    12.91,    10.73,    15.02
      258.0,      13.56,    15.63,    12.89,    10.70,    15.00
      259.0,      13.53,    15.61,    12.87,    10.67,    14.98
      260.0,      13.51,    15.58,    12.85,    10.65,    14.96
      261.0,      13.49,    15.56,    12.83,    10.62,    14.94
      262.0,      13.47,    15.54,    12.81,    10.60,    14.92
      263.0,      13.45,    15.52,    12.80,    10.57,    14.90
      264.0,      13.43,    15.50,    12.78,    10.54,    14.88
      265.0,      13.40,    15.48,    12.76,    10.52,    14.86
      266.0,      13.38,    15.45,    12.74,    10.49,    14.84
      267.0,      13.36,    15.43,    12.72,    10.47,    14.82
      268.0,      13.34,    15.41,    12.70,    10.44,    14.80
      269.0,      13.32,    15.39,    12.69,    10.42,    14.78
      270.0,      13.30,    15.37,    12.67,    10.39,    14.77
      271.0,      13.28,    15.35,    12.65,    10.37,    14.75
      272.0,      13.26,    15.33,    12.63,    10.34,    14.73
      273.0,      13.24,    15.31,    12.62,    10.32,    14.71
      274.0,      13.22,    15.29,    12.60,    10.29,    14.69
      275.0,      13.20,    15.27,    12.58,    10.27,    14.67
      276.0,      13.18,    15.25,    12.56,    10.24,    14.65
      277.0,      13.16,    15.23,    12.55,    10.22,    14.63
      278.0,      13.14,    15.21,    12.53,    10.20,    14.62
      279.0,      13.12,    15.19,    12.51,    10.17,    14.60
      280.0,      13.10,    15.17,    12.50,    10.15,    14.58
      281.0,      13.08,    15.15,    12.48,    10.12,    14.56
      282.0,      13.06,    15.13,    12.46,    10.10,    14.54
      283.0,      13.04,    15.11,    12.45,    10.08,    14.52
      284.0,      13.02,    15.09,    12.43,    10.05,    14.51
      285.0,      13.00,    15.07,    12.41,    10.03,    14.49
      286.0,      12.98,    15.05,    12.40,    10.01,    14.47
      287.0,      12.96,    15.03,    12.38,     9.98,    14.45
      288.0,      12.94,    15.02,    12.36,     9.96,    14.44
      289.0,      12.92,    15.00,    12.35,     9.94,    14.42
      290.0,      12.91,    14.98,    12.33,     9.91,    14.40
      291.0,      12.89,    14.96,    12.32,     9.89,    14.38
      292.0,      12.87,    14.94,    12.30,     9.87,    14.37
      293.0,      12.85,    14.92,    12.28,     9.84,    14.35
      294.0,      12.83,    14.90,    12.27,     9.82,    14.33
      295.0,      12.81,    14.89,    12.25,     9.80,    14.31
      296.0,      12.79,    14.87,    12.24,     9.78,    14.30
      297.0,      12.78,    14.85,    12.22,     9.75,    14.28
      298.0,      12.76,    14.83,    12.21,     9.73,    14.26
      299.0,      12.74,    14.81,    12.19,     9.71,    14.25
      300.0,      12.72,    14.79,    12.18,     9.69,    14.23
      301.0,      12.70,    14.78,    12.16,     9.67,    14.21
      302.0,      12.69,    14.76,    12.15,     9.64,    14.20
      303.0,      12.67,    14.74,    12.13,     9.62,    14.18
      304.0,      12.65,    14.72,    12.12,     9.60,    14.16
      305.0,      12.63,    14.71,    12.10,     9.58,    14.15
      306.0,      12.62,    14.69,    12.09,     9.56,    14.13
      307.0,      12.60,    14.67,    12.07,     9.54,    14.11
      308.0,      12.58,    14.65,    12.06,     9.51,    14.10
      309.0,      12.56,    14.64,    12.04,     9.49,    14.08
      310.0,      12.55,    14.62,    12.03,     9.47,    14.06
