Radius (km), Mean (m/s), NE (m/s), SE (m/s), SW (m/s), NW (m/s)
        0.0,       0.00,     0.00,     0.00,     0.00,     0.00
        1.0,       0.90,     0.67,     0.69,     1.10,     1.13
        2.0,       1.53,     1.24,     1.27,     1.79,     1.83
        3.0,       2.10,     1.78,     1.80,     2.38,     2.43
        4.0,       2.62,     2.29,     2.32,     2.92,     2.96
        5.0,       3.12,     2.78,     2.82,     3.42,     3.46
        6.0,       3.60,     3.27,     3.30,     3.89,     3.92
        7.0,       4.06,     3.74,     3.78,     4.34,     4.37
        8.0,       4.50,     4.21,     4.24,     4.77,     4.79
        9.0,       4.94,     4.67,     4.70,     5.18,     5.20
       10.0,       5.36,     5.12,     5.15,     5.58,     5.59
       11.0,       5.78,     5.57,     5.60,     5.97,     5.97
       12.0,       6.19,     6.02,     6.04,     6.35,     6.35
       13.0,       6.59,     6.45,     6.48,     6.72,     6.71
       14.0,       6.99,     6.89,     6.91,     7.08,     7.06
       15.0,       7.38,     7.32,     7.34,     7.44,     7.41
       16.0,       7.76,     7.75,     7.77,     7.79,     7.75
       17.0,       8.14,     8.17,     8.19,     8.13,     8.08
       18.0,       8.52,     8.60,     8.61,     8.46,     8.41
       19.0,       8.89,     9.02,     9.02,     8.79,     8.73
       20.0,       9.26,     9.43,     9.44,     9.12,     9.04
       21.0,       9.62,     9.85,     9.85,     9.44,     9.36
       22.0,       9.98,    10.26,    10.26,     9.75,     9.66
       23.0,      10.34,    10.67,    10.66,    10.06,     9.97
       24.0,      10.69,    11.07,    11.07,    10.37,    10.26
       25.0,      11.04,    11.48,    11.47,    10.67,    10.56
       26.0,      11.39,    11.88,    11.87,    10.97,    10.85
       27.0,      11.74,    12.28,    12.26,    11.27,    11.14
       28.0,      12.08,    12.68,    12.66,    11.56,    11.42
       29.0,      12.42,    13.08,    13.05,    11.85,    11.70
       30.0,      12.76,    13.48,    13.44,    12.14,    11.98
       31.0,      13.10,    13.87,    13.83,    12.43,    12.26
       32.0,      13.43,    14.27,    14.22,    12.71,    12.53
       33.0,      13.76,    14.66,    14.61,    12.99,    12.80
       34.0,      14.09,    15.05,    14.99,    13.26,    13.07
       35.0,      14.42,    15.44,    15.38,    13.54,    13.33
       36.0,      14.75,    15.82,    15.76,    13.81,    13.60
       37.0,      15.07,    16.21,    16.14,    14.08,    13.86
       38.0,      15.40,    16.60,    16.52,    14.35,    14.12
       39.0,      15.72,    16.98,    16.90,    14.61,    14.37
       40.0,      16.04,    17.36,    17.28,    14.88,    14.63
       41.0,      16.36,    17.74,    17.66,    15.14,    14.88
       42.0,      16.67,    18.12,    18.03,    15.40,    15.13
       43.0,      16.99,    18.50,    18.41,    15.66,    15.38
       44.0,      17.30,    18.88,    18.78,    15.92,    15.63
       45.0,      17.61,    19.26,    19.15,    16.17,    15.87
       46.0,      17.92,    19.64,    19.52,    16.42,    16.12
       47.0,      18.23,    20.01,    19.89,    16.68,    16.36
       48.0,      18.54,    20.39,    20.26,    16.93,    16.60
       49.0,      18.85,    20.76,    20.63,    17.17,    16.84
       50.0,      19.16,    21.13,    20.99,    17.42,    17.08
       51.0,      19.46,    21.50,    21.36,    17.67,    17.31
       52.0,      19.76,    21.87,    21.72,    17.91,    17.55
       53.0,      20.07,    22.24,    22.09,    18.15,    17.78
       54.0,      20.37,    22.61,    22.45,    18.39,    18.01
       55.0,      20.67,    22.98,    22.81,    18.63,    18.24
       56.0,      20.97,    23.35,    23.18,    18.87,    18.47
       57.0,      21.27,    23.72,    23.54,    19.11,    18.70
       58.0,      21.56,    24.08,    23.90,    19.35,    18.93
       59.0,      21.86,    24.45,    24.26,    19.58,    19.15
       60.0,      22.16,    24.81,    24.61,    19.82,    19.38
       61.0,      22.45,    25.17,    24.97,    20.05,    19.60
       62.0,      22.74,    25.54,    25.33,    20.28,    19.82
       63.0,      23.04,    25.90,    25.68,    20.51,    20.05
       64.0,      23.33,    26.26,    26.04,    20.74,    20.27
       65.0,      23.62,    26.62,    26.39,    20.97,    20.48
       66.0,      23.91,    26.98,    26.75,    21.20,    20.70
       67.0,      24.20,    27.34,    27.10,    21.42,    20.92
       68.0,      24.49,    27.70,    27.45,    21.65,    21.14
       69.0,      24.77,    28.06,    27.81,    21.87,    21.35
       70.0,      25.06,    28.42,    28.16,    22.10,    21.56
       71.0,      25.35,    28.77,    28.51,    22.32,    21.78
       72.0,      25.63,    29.13,    28.86,    22.54,    21.99
       73.0,      25.92,    29.49,    29.21,    22.76,    22.20
       74.0,      26.20,    29.84,    29.56,    22.98,    22.41
       75.0,      26.48,    30.20,    29.90,    23.20,    22.62
       76.0,      26.76,    30.55,    30.25,    23.42,    22.83
       77.0,      27.05,    30.90,    30.60,    23.64,    23.04
       78.0,      27.33,    31.26,    30.95,    23.85,    23.25
       79.0,      27.61,    31.61,    31.29,    24.07,    23.45
       80.0,      27.89,    31.96,    31.64,    24.29,    23.66
       81.0,      28.16,    32.31,    31.98,    24.50,    23.86
       82.0,      28.44,    32.66,    32.33,    24.71,    24.07
       83.0,      28.72,    33.02,    32.67,    24.93,    24.27
       84.0,      29.00,    33.37,    33.01,    25.14,    24.47
       85.0,      29.27,    33.71,    33.36,    25.35,    24.67
       86.0,      29.55,    34.06,    33.70,    25.56,    24.87
       87.0,      29.82,    34.41,    34.04,    25.77,    25.07
       88.0,      30.10,    34.76,    34.38,    25.98,    25.27
       89.0,      30.37,    35.11,    34.72,    26.19,    25.47
       90.0,      30.65,    35.45,    35.06,    26.39,    25.67
       91.0,      30.92,    35.80,    35.40,    26.60,    25.87
       92.0,      31.19,    36.15,    35.74,    26.81,    26.07
       93.0,      31.46,    36.49,    36.08,    27.01,    26.26
       94.0,      31.73,    36.84,    36.42,    27.22,    26.46
       95.0,      32.00,    37.18,    36.76,    27.42,    26.65
       96.0,      32.27,    37.53,    37.09,    27.63,    26.85
       97.0,      32.54,    37.88,    37.43,    27.83,    27.04
       98.0,      32.83,    38.24,    37.77,    28.04,    27.25
       99.0,      33.13,    38.64,    38.14,    28.27,    27.47
      100.0,      33.48,    39.10,    38.55,    28.53,    27.73
      101.0,      33.87,    39.62,    39.03,    28.82,    28.03
      102.0,      34.32,    40.20,    39.58,    29.14,    28.36
      103.0,      34.80,    40.81,    40.18,    29.49,    28.71
      104.0,      35.28,    41.42,    40.81,    29.84,    29.06
      105.0,      35.74,    41.99,    41.42,    30.17,    29.39
      106.0,      36.13,    42.47,    41.95,    30.46,    29.67
      107.0,      36.43,    42.82,    42.35,    30.67,    29.87
      108.0,      36.60,    43.02,    42.59,    30.80,    29.98
      109.0,      36.64,    43.07,    42.65,    30.84,    29.99
      110.0,      36.54,    42.96,    42.51,    30.79,    29.90
      111.0,      36.33,    42.72,    42.19,    30.66,    29.74
      112.0,      36.02,    42.38,    41.73,    30.46,    29.51
      113.0,      35.66,    41.98,    41.17,    30.23,    29.24
      114.0,      35.26,    41.55,    40.56,    29.97,    28.95
      115.0,      34.86,    41.13,    39.94,    29.71,    28.66
      116.0,      34.47,    40.72,    39.33,    29.46,    28.37
      117.0,      34.10,    40.33,    38.75,    29.23,    28.11
      118.0,      33.76,    39.97,    38.22,    29.00,    27.85
      119.0,      33.44,    39.62,    37.72,    28.79,    27.61
      120.0,      33.13,    39.29,    37.24,    28.59,    27.38
      121.0,      32.82,    38.97,    36.78,    28.40,    27.15
      122.0,      32.53,    38.67,    36.34,    28.20,    26.93
      123.0,      32.25,    38.37,    35.91,    28.02,    26.71
      124.0,      31.98,    38.08,    35.50,    27.84,    26.50
      125.0,      31.72,    37.80,    35.10,    27.67,    26.30
      126.0,      31.46,    37.53,    34.72,    27.50,    26.10
      127.0,      31.22,    37.27,    34.35,    27.33,    25.91
      128.0,      30.98,    37.02,    33.99,    27.17,    25.72
      129.0,      30.75,    36.78,    33.65,    27.02,    25.54
      130.0,      30.52,    36.54,    33.32,    26.87,    25.36
      131.0,      30.31,    36.31,    33.00,    26.73,    25.19
      132.0,      30.10,    36.09,    32.68,    26.58,    25.02
      133.0,      29.89,    35.88,    32.39,    26.45,    24.86
      134.0,      29.70,    35.67,    32.10,    26.31,    24.70
      135.0,      29.51,    35.47,    31.82,    26.18,    24.55
      136.0,      29.32,    35.28,    31.55,    26.06,    24.40
      137.0,      29.14,    35.09,    31.28,    25.93,    24.25
      138.0,      28.97,    34.91,    31.03,    25.81,    24.11
      139.0,      28.80,    34.73,    30.79,    25.70,    23.97
      140.0,      28.63,    34.56,    30.55,    25.59,    23.83
      141.0,      28.47,    34.40,    30.32,    25.48,    23.70
      142.0,      28.32,    34.24,    30.10,    25.37,    23.58
      143.0,      28.17,    34.08,    29.88,    25.26,    23.45
      144.0,      28.02,    33.93,    29.68,    25.16,    23.33
      145.0,      27.88,    33.78,    29.48,    25.06,    23.21
      146.0,      27.75,    33.64,    29.28,    24.97,    23.09
      147.0,      27.61,    33.50,    29.09,    24.87,    22.98
      148.0,      27.48,    33.36,    28.91,    24.78,    22.87
      149.0,      27.36,    33.23,    28.73,    24.69,    22.77
      150.0,      27.23,    33.10,    28.56,    24.61,    22.66
      151.0,      27.11,    32.98,    28.39,    24.52,    22.56
      152.0,      27.00,    32.86,    28.23,    24.44,    22.46
      153.0,      26.88,    32.74,    28.07,    24.36,    22.36
      154.0,      26.77,    32.63,    27.92,    24.28,    22.27
      155.0,      26.67,    32.51,    27.77,    24.20,    22.18
      156.0,      26.56,    32.40,    27.63,    24.12,    22.09
      157.0,      26.46,    32.30,    27.49,    24.05,    22.00
      158.0,      26.36,    32.19,    27.35,    23.98,    21.91
      159.0,      26.26,    32.09,    27.22,    23.91,    21.83
      160.0,      26.17,    31.99,    27.09,    23.84,    21.75
      161.0,      26.08,    31.90,    26.97,    23.77,    21.67
      162.0,      25.99,    31.80,    26.85,    23.70,    21.59
      163.0,      25.90,    31.71,    26.73,    23.64,    21.52
      164.0,      25.81,    31.62,    26.61,    23.58,    21.44
      165.0,      25.73,    31.53,    26.50,    23.51,    21.37
      166.0,      25.65,    31.45,    26.39,    23.45,    21.30
      167.0,      25.57,    31.36,    26.29,    23.39,    21.23
      168.0,      25.49,    31.28,    26.18,    23.34,    21.16
      169.0,      25.41,    31.20,    26.08,    23.28,    21.09
      170.0,      25.34,    31.12,    25.98,    23.22,    21.03
      171.0,      25.26,    31.04,    25.88,    23.17,    20.97
      172.0,      25.19,    30.97,    25.79,    23.11,    20.90
      173.0,      25.12,    30.89,    25.70,    23.06,    20.84
      174.0,      25.05,    30.82,    25.61,    23.01,    20.78
      175.0,      24.99,    30.75,    25.52,    22.95,    20.72
      176.0,      24.92,    30.68,    25.43,    22.90,    20.67
      177.0,      24.86,    30.61,    25.35,    22.85,    20.61
      178.0,      24.79,    30.54,    25.27,    22.80,    20.56
      179.0,      24.73,    30.47,    25.19,    22.76,    20.50
      180.0,      24.67,    30.41,    25.11,    22.71,    20.45
      181.0,      24.61,    30.34,    25.03,    22.66,    20.40
      182.0,      24.55,    30.28,    24.95,    22.62,    20.35
      183.0,      24.49,    30.22,    24.88,    22.57,    20.30
      184.0,      24.43,    30.16,    24.81,    22.53,    20.25
      185.0,      24.38,    30.10,    24.73,    22.48,    20.20
      186.0,      24.32,    30.04,    24.66,    22.44,    20.16
      187.0,      24.27,    29.98,    24.59,    22.40,    20.11
      188.0,      24.22,    29.92,    24.53,    22.35,    20.06
      189.0,      24.16,    29.86,    24.46,    22.31,    20.02
      190.0,      24.11,    29.81,    24.39,    22.27,    19.98
      191.0,      24.06,    29.75,    24.33,    22.23,    19.93
      192.0,      24.01,    29.69,    24.27,    22.19,    19.89
      193.0,      23.96,    29.64,    24.20,    22.15,    19.85
      194.0,      23.91,    29.59,    24.14,    22.11,    19.81
      195.0,      23.86,    29.53,    24.08,    22.07,    19.77
      196.0,      23.82,    29.48,    24.02,    22.04,    19.73
      197.0,      23.77,    29.43,    23.96,    22.00,    19.69
      198.0,      23.72,    29.38,    23.91,    21.96,    19.65
      199.0,      23.68,    29.33,    23.85,    21.92,    19.62
      200.0,      23.63,    29.28,    23.79,    21.89,    19.58
      201.0,      23.59,    29.23,    23.74,    21.85,    19.54
      202.0,      23.55,    29.18,    23.68,    21.81,    19.51
      203.0,      23.50,    29.13,    23.63,    21.78,    19.47
      204.0,      23.46,    29.08,    23.57,    21.74,    19.44
      205.0,      23.42,    29.03,    23.52,    21.71,    19.40
      206.0,      23.37,    28.99,    23.47,    21.67,    19.37
      207.0,      23.33,    28.94,    23.42,    21.64,    19.34
      208.0,      23.29,    28.89,    23.37,    21.61,    19.30
      209.0,      23.25,    28.85,    23.32,    21.57,    19.27
      210.0,      23.21,    28.80,    23.27,    21.54,    19.24
      211.0,      23.17,    28.75,    23.22,    21.51,    19.21
      212.0,      23.13,    28.71,    23.17,    21.47,    19.18
      213.0,      23.09,    28.66,    23.12,    21.44,    19.14
      214.0,      23.05,    28.62,    23.07,    21.41,    19.11
      215.0,      23.02,    28.58,    23.02,    21.38,    19.08
      216.0,      22.98,    28.53,    22.98,    21.34,    19.05
      217.0,      22.94,    28.49,    22.93,    21.31,    19.03
      218.0,      22.90,    28.44,    22.89,    21.28,    19.00
      219.0,      22.86,    28.40,    22.84,    21.25,    18.97
      220.0,      22.83,    28.36,    22.79,    21.22,    18.94
      221.0,      22.79,    28.32,    22.75,    21.19,    18.91
      222.0,      22.76,    28.27,    22.70,    21.16,    18.88
      223.0,      22.72,    28.23,    22.66,    21.13,    18.86
      224.0,      22.68,    28.19,    22.62,    21.10,    18.83
      225.0,      22.65,    28.15,    22.57,    21.07,    18.80
      226.0,      22.61,    28.11,    22.53,    21.04,    18.78
      227.0,      22.58,    28.07,    22.49,    21.01,    18.75
      228.0,      22.54,    28.02,    22.44,    20.98,    18.72
      229.0,      22.51,    27.98,    22.40,    20.95,    18.70
      230.0,      22.47,    27.94,    22.36,    20.92,    18.67
      231.0,      22.44,    27.90,    22.32,    20.89,    18.65
      232.0,      22.41,    27.86,    22.28,    20.86,    18.62
      233.0,      22.37,    27.82,    22.23,    20.83,    18.60
      234.0,      22.34,    27.78,    22.19,    20.80,    18.57
      235.0,      22.31,    27.74,    22.15,    20.78,    18.55
      236.0,      22.27,    27.70,    22.11,    20.75,    18.52
      237.0,      22.24,    27.66,    22.07,    20.72,    18.50
      238.0,      22.21,    27.63,    22.03,    20.69,    18.48
      239.0,      22.17,    27.59,    21.99,    20.66,    18.45
      240.0,      22.14,    27.55,    21.95,    20.63,    18.43
      241.0,      22.11,    27.51,    21.91,    20.61,    18.41
      242.0,      22.08,    27.47,    21.87,    20.58,    18.38
      243.0,      22.04,    27.43,    21.83,    20.55,    18.36
      244.0,      22.01,    27.39,    21.79,    20.52,    18.34
      245.0,      21.98,    27.36,    21.76,    20.50,    18.32
      246.0,      21.95,    27.32,    21.72,    20.47,    18.29
      247.0,      21.92,    27.28,    21.68,    20.44,    18.27
      248.0,      21.89,    27.24,    21.64,    20.42,    18.25
      249.0,      21.86,    27.20,    21.60,    20.39,    18.23
      250.0,      21.82,    27.17,    21.56,    20.36,    18.20
      251.0,      21.79,    27.13,    21.53,    20.33,    18.18
      252.0,      21.76,    27.09,    21.49,    20.31,    18.16
      253.0,      21.73,    27.05,    21.45,    20.28,    18.14
      254.0,      21.70,    27.02,    21.41,    20.25,    18.12
      255.0,      21.67,    26.98,    21.38,    20.23,    18.10
      256.0,      21.64,    26.94,    21.34,    20.20,    18.08
      257.0,      21.61,    26.91,    21.30,    20.18,    18.05
      258.0,      21.58,    26.87,    21.27,    20.15,    18.03
      259.0,      21.55,    26.83,    21.23,    20.12,    18.01
      260.0,      21.52,    26.80,    21.19,    20.10,    17.99
      261.0,      21.49,    26.76,    21.16,    20.07,    17.97
      262.0,      21.46,    26.72,    21.12,    20.04,    17.95
      263.0,      21.43,    26.69,    21.08,    20.02,    17.93
      264.0,      21.40,    26.65,    21.05,    19.99,    17.91
      265.0,      21.37,    26.61,    21.01,    19.97,    17.89
      266.0,      21.34,    26.58,    20.97,    19.94,    17.87
      267.0,      21.31,    26.54,    20.94,    19.92,    17.85
      268.0,      21.28,    26.51,    20.90,    19.89,    17.83
      269.0,      21.25,    26.47,    20.87,    19.86,    17.81
      270.0,      21.22,    26.43,    20.83,    19.84,    17.79
      271.0,      21.19,    26.40,    20.80,    19.81,    17.77
      272.0,      21.17,    26.36,    20.76,    19.79,    17.75
      273.0,      21.14,    26.33,    20.73,    19.76,    17.73
      274.0,      21.11,    26.29,    20.69,    19.74,    17.71
      275.0,      21.08,    26.26,    20.66,    19.71,    17.69
      276.0,      21.05,    26.22,    20.62,    19.69,    17.67
      277.0,      21.02,    26.19,    20.59,    19.66,    17.65
      278.0,      20.99,    26.15,    20.55,    19.64,    17.64
      279.0,      20.96,    26.11,    20.52,    19.61,    17.62
      280.0,      20.94,    26.08,    20.48,    19.59,    17.60
      281.0,      20.91,    26.04,    20.45,    19.56,    17.58
      282.0,      20.88,    26.01,    20.41,    19.54,    17.56
      283.0,      20.85,    25.97,    20.38,    19.51,    17.54
      284.0,      20.82,    25.94,    20.34,    19.49,    17.52
      285.0,      20.80,    25.90,    20.31,    19.46,    17.50
      286.0,      20.77,    25.87,    20.28,    19.44,    17.48
      287.0,      20.74,    25.84,    20.24,    19.41,    17.47
      288.0,      20.71,    25.80,    20.21,    19.39,    17.45
      289.0,      20.68,    25.77,    20.17,    19.36,    17.43
      290.0,      20.66,    25.73,    20.14,    19.34,    17.41
      291.0,      20.63,    25.70,    20.11,    19.32,    17.39
      292.0,      20.60,    25.66,    20.07,    19.29,    17.37
      293.0,      20.57,    25.63,    20.04,    19.27,    17.35
      294.0,      20.54,    25.59,    20.01,    19.24,    17.34
      295.0,      20.52,    25.56,    19.97,    19.22,    17.32
      296.0,      20.49,    25.53,    19.94,    19.19,    17.30
      297.0,      20.46,    25.49,    19.91,    19.17,    17.28
      298.0,      20.43,    25.46,    19.87,    19.15,    17.26
      299.0,      20.41,    25.42,    19.84,    19.12,    17.25
      300.0,      20.38,    25.39,    19.81,    19.10,    17.23
      301.0,      20.35,    25.36,    19.77,    19.07,    17.21
      302.0,      20.33,    25.32,    19.74,    19.05,    17.19
      303.0,      20.30,    25.29,    19.71,    19.02,    17.17
      304.0,      20.27,    25.25,    19.67,    19.00,    17.16
      305.0,      20.24,    25.22,    19.64,    18.98,    17.14
      306.0,      20.22,    25.19,    19.61,    18.95,    17.12
      307.0,      20.19,    25.15,    19.58,    18.93,    17.10
      308.0,      20.16,    25.12,    19.54,    18.91,    17.08
      309.0,      20.14,    25.09,    19.51,    18.88,    17.07
      310.0,      20.11,    25.05,    19.48,    18.86,    17.05
