Radius (km), Mean (m/s), NE (m/s), SE (m/s), SW (m/s), NW (m/s)
        0.0,       0.00,     0.00,     0.00,     0.00,     0.00
        1.0,       1.16,     1.05,     1.28,     1.28,     1.05
        2.0,       2.25,     2.09,     2.40,     2.40,     2.09
        3.0,       3.30,     3.13,     3.47,     3.47,     3.13
        4.0,       4.34,     4.17,     4.51,     4.51,     4.17
        5.0,       5.37,     5.21,     5.52,     5.52,     5.21
        6.0,       6.38,     6.25,     6.52,     6.52,     6.25
        7.0,       7.39,     7.29,     7.50,     7.50,     7.29
        8.0,       8.40,     8.32,     8.47,     8.47,     8.32
        9.0,       9.39,     9.36,     9.43,     9.43,     9.36
       10.0,      10.39,    10.39,    10.38,    10.38,    10.39
       11.0,      11.37,    11.43,    11.32,    11.32,    11.43
       12.0,      12.36,    12.46,    12.25,    12.25,    12.46
       13.0,      13.34,    13.50,    13.18,    13.18,    13.50
       14.0,      14.31,    14.53,    14.09,    14.09,    14.53
       15.0,      15.29,    15.56,    15.01,    15.01,    15.56
       16.0,      16.26,    16.60,    15.92,    15.92,    16.60
       17.0,      17.22,    17.63,    16.82,    16.82,    17.63
       18.0,      18.19,    18.66,    17.72,    17.72,    18.66
       19.0,      19.15,    19.69,    18.61,    18.61,    19.69
       20.0,      20.11,    20.73,    19.50,    19.50,    20.73
       21.0,      21.07,    21.76,    20.38,    20.38,    21.76
       22.0,      22.03,    22.79,    21.27,    21.27,    22.79
       23.0,      22.98,    23.82,    22.14,    22.14,    23.82
       24.0,      23.94,    24.85,    23.02,    23.02,    24.85
       25.0,      24.89,    25.88,    23.89,    23.89,    25.88
       26.0,      25.84,    26.91,    24.76,    24.76,    26.91
       27.0,      26.78,    27.95,    25.62,    25.62,    27.95
       28.0,      27.73,    28.98,    26.48,    26.48,    28.98
       29.0,      28.68,    30.01,    27.34,    27.34,    30.01
       30.0,      29.62,    31.04,    28.20,    28.20,    31.04
       31.0,      30.58,    32.10,    29.07,    29.06,    32.08
       32.0,      31.57,    33.22,    29.97,    29.93,    33.16
       33.0,      32.65,    34.47,    30.96,    30.85,    34.33
       34.0,      33.86,    35.90,    32.07,    31.85,    35.61
       35.0,      35.20,    37.50,    33.32,    32.95,    37.03
       36.0,      36.67,    39.27,    34.69,    34.15,    38.57
       37.0,      38.23,    41.13,    36.15,    35.44,    40.20
       38.0,      39.81,    42.99,    37.63,    36.77,    41.84
       39.0,      41.32,    44.73,    39.04,    38.07,    43.43
       40.0,      42.67,    46.25,    40.29,    39.27,    44.86
       41.0,      43.79,    47.46,    41.30,    40.31,    46.08
       42.0,      44.62,    48.29,    42.03,    41.13,    47.01
       43.0,      45.13,    48.73,    42.44,    41.69,    47.64
       44.0,      45.33,    48.79,    42.55,    42.00,    47.98
       45.0,      45.25,    48.52,    42.38,    42.07,    48.04
       46.0,      44.96,    48.00,    42.00,    41.93,    47.89
       47.0,      44.51,    47.32,    41.47,    41.64,    47.59
       48.0,      43.97,    46.55,    40.86,    41.26,    47.19
       49.0,      43.40,    45.76,    40.23,    40.84,    46.76
       50.0,      42.84,    45.00,    39.60,    40.41,    46.34
       51.0,      42.30,    44.26,    39.01,    40.00,    45.92
       52.0,      41.79,    43.57,    38.44,    39.61,    45.53
       53.0,      41.29,    42.90,    37.89,    39.24,    45.14
       54.0,      40.81,    42.25,    37.37,    38.87,    44.76
       55.0,      40.35,    41.62,    36.85,    38.52,    44.39
       56.0,      39.89,    41.01,    36.35,    38.17,    44.02
       57.0,      39.45,    40.43,    35.87,    37.83,    43.66
       58.0,      39.01,    39.85,    35.40,    37.49,    43.30
       59.0,      38.59,    39.30,    34.94,    37.17,    42.94
       60.0,      38.18,    38.76,    34.50,    36.84,    42.60
       61.0,      37.77,    38.24,    34.07,    36.53,    42.25
       62.0,      37.38,    37.74,    33.65,    36.22,    41.91
       63.0,      36.99,    37.25,    33.24,    35.91,    41.57
       64.0,      36.62,    36.78,    32.84,    35.61,    41.24
       65.0,      36.25,    36.32,    32.46,    35.32,    40.92
       66.0,      35.90,    35.87,    32.09,    35.03,    40.59
       67.0,      35.55,    35.44,    31.72,    34.75,    40.27
       68.0,      35.21,    35.02,    31.37,    34.48,    39.96
       69.0,      34.87,    34.62,    31.03,    34.20,    39.65
       70.0,      34.55,    34.22,    30.69,    33.94,    39.34
       71.0,      34.23,    33.84,    30.37,    33.68,    39.04
       72.0,      33.92,    33.47,    30.05,    33.42,    38.74
       73.0,      33.62,    33.11,    29.74,    33.17,    38.45
       74.0,      33.32,    32.77,    29.45,    32.92,    38.16
       75.0,      33.03,    32.43,    29.16,    32.68,    37.87
       76.0,      32.75,    32.10,    28.87,    32.44,    37.59
       77.0,      32.47,    31.78,    28.60,    32.21,    37.31
       78.0,      32.20,    31.48,    28.33,    31.98,    37.03
       79.0,      31.94,    31.18,    28.07,    31.75,    36.76
       80.0,      31.68,    30.89,    27.82,    31.53,    36.49
       81.0,      31.43,    30.61,    27.58,    31.31,    36.23
       82.0,      31.18,    30.33,    27.34,    31.10,    35.97
       83.0,      30.94,    30.07,    27.10,    30.89,    35.71
       84.0,      30.71,    29.81,    26.88,    30.68,    35.45
       85.0,      30.48,    29.56,    26.66,    30.48,    35.20
       86.0,      30.25,    29.32,    26.44,    30.28,    34.95
       87.0,      30.03,    29.08,    26.24,    30.09,    34.71
       88.0,      29.81,    28.86,    26.03,    29.90,    34.47
       89.0,      29.60,    28.63,    25.84,    29.71,    34.23
       90.0,      29.39,    28.42,    25.64,    29.52,    33.99
       91.0,      29.19,    28.21,    25.46,    29.34,    33.76
       92.0,      28.99,    28.01,    25.27,    29.16,    33.53
       93.0,      28.80,    27.81,    25.10,    28.99,    33.30
       94.0,      28.61,    27.62,    24.92,    28.81,    33.08
       95.0,      28.42,    27.43,    24.76,    28.64,    32.86
       96.0,      28.24,    27.25,    24.59,    28.48,    32.64
       97.0,      28.06,    27.07,    24.43,    28.31,    32.42
       98.0,      27.89,    26.90,    24.28,    28.15,    32.21
       99.0,      27.71,    26.74,    24.13,    27.99,    32.00
      100.0,      27.55,    26.58,    23.98,    27.84,    31.80
      101.0,      27.38,    26.42,    23.83,    27.68,    31.59
      102.0,      27.22,    26.27,    23.69,    27.53,    31.39
      103.0,      27.06,    26.12,    23.56,    27.39,    31.19
      104.0,      26.91,    25.97,    23.42,    27.24,    30.99
      105.0,      26.76,    25.83,    23.29,    27.10,    30.80
      106.0,      26.61,    25.70,    23.17,    26.96,    30.61
      107.0,      26.46,    25.56,    23.04,    26.82,    30.42
      108.0,      26.32,    25.44,    22.92,    26.68,    30.23
      109.0,      26.18,    25.31,    22.81,    26.55,    30.04
      110.0,      26.04,    25.19,    22.69,    26.41,    29.86
      111.0,      25.90,    25.07,    22.58,    26.28,    29.68
      112.0,      25.77,    24.95,    22.47,    26.16,    29.50
      113.0,      25.64,    24.84,    22.36,    26.03,    29.33
      114.0,      25.51,    24.73,    22.26,    25.91,    29.15
      115.0,      25.39,    24.62,    22.16,    25.78,    28.98
      116.0,      25.26,    24.52,    22.06,    25.66,    28.81
      117.0,      25.14,    24.42,    21.96,    25.54,    28.65
      118.0,      25.02,    24.32,    21.87,    25.43,    28.48
      119.0,      24.91,    24.22,    21.78,    25.31,    28.32
      120.0,      24.79,    24.13,    21.69,    25.20,    28.16
      121.0,      24.68,    24.03,    21.60,    25.09,    28.00
      122.0,      24.57,    23.94,    21.51,    24.98,    27.84
      123.0,      24.46,    23.86,    21.43,    24.87,    27.69
      124.0,      24.35,    23.77,    21.35,    24.76,    27.53
      125.0,      24.25,    23.69,    21.27,    24.66,    27.38
      126.0,      24.15,    23.61,    21.19,    24.56,    27.23
      127.0,      24.04,    23.53,    21.11,    24.45,    27.09
      128.0,      23.94,    23.45,    21.03,    24.35,    26.94
      129.0,      23.85,    23.37,    20.96,    24.25,    26.80
      130.0,      23.75,    23.30,    20.89,    24.16,    26.66
      131.0,      23.66,    23.23,    20.82,    24.06,    26.51
      132.0,      23.56,    23.16,    20.75,    23.97,    26.38
      133.0,      23.47,    23.09,    20.68,    23.87,    26.24
      134.0,      23.38,    23.02,    20.62,    23.78,    26.10
      135.0,      23.29,    22.96,    20.55,    23.69,    25.97
      136.0,      23.20,    22.89,    20.49,    23.60,    25.84
      137.0,      23.12,    22.83,    20.42,    23.51,    25.71
      138.0,      23.03,    22.77,    20.36,    23.42,    25.58
      139.0,      22.95,    22.71,    20.30,    23.34,    25.45
      140.0,      22.87,    22.65,    20.25,    23.25,    25.33
      141.0,      22.79,    22.59,    20.19,    23.17,    25.20
      142.0,      22.71,    22.53,    20.13,    23.08,    25.08
      143.0,      22.63,    22.48,    20.08,    23.00,    24.96
      144.0,      22.55,    22.42,    20.02,    22.92,    24.84
      145.0,      22.47,    22.37,    19.97,    22.84,    24.72
      146.0,      22.40,    22.32,    19.92,    22.76,    24.60
      147.0,      22.33,    22.27,    19.87,    22.68,    24.49
      148.0,      22.25,    22.21,    19.81,    22.61,    24.37
      149.0,      22.18,    22.17,    19.77,    22.53,    24.26
      150.0,      22.11,    22.12,    19.72,    22.46,    24.15
      151.0,      22.04,    22.07,    19.67,    22.38,    24.04
      152.0,      21.97,    22.02,    19.62,    22.31,    23.93
      153.0,      21.90,    21.98,    19.58,    22.24,    23.82
      154.0,      21.84,    21.93,    19.53,    22.16,    23.72
      155.0,      21.77,    21.89,    19.49,    22.09,    23.61
      156.0,      21.70,    21.84,    19.44,    22.02,    23.51
      157.0,      21.64,    21.80,    19.40,    21.96,    23.41
      158.0,      21.58,    21.76,    19.36,    21.89,    23.30
      159.0,      21.51,    21.72,    19.31,    21.82,    23.20
      160.0,      21.45,    21.68,    19.27,    21.75,    23.10
      161.0,      21.39,    21.64,    19.23,    21.69,    23.01
      162.0,      21.33,    21.60,    19.19,    21.62,    22.91
      163.0,      21.27,    21.56,    19.15,    21.56,    22.81
      164.0,      21.21,    21.52,    19.11,    21.49,    22.72
      165.0,      21.15,    21.48,    19.08,    21.43,    22.63
      166.0,      21.10,    21.45,    19.04,    21.37,    22.53
      167.0,      21.04,    21.41,    19.00,    21.31,    22.44
      168.0,      20.98,    21.37,    18.97,    21.24,    22.35
      169.0,      20.93,    21.34,    18.93,    21.18,    22.26
      170.0,      20.87,    21.30,    18.89,    21.12,    22.18
      171.0,      20.82,    21.27,    18.86,    21.06,    22.09
      172.0,      20.77,    21.23,    18.82,    21.00,    22.00
      173.0,      20.71,    21.20,    18.79,    20.95,    21.92
      174.0,      20.66,    21.17,    18.76,    20.89,    21.83
      175.0,      20.61,    21.14,    18.72,    20.83,    21.75
      176.0,      20.56,    21.10,    18.69,    20.78,    21.67
      177.0,      20.51,    21.07,    18.66,    20.72,    21.59
      178.0,      20.46,    21.04,    18.62,    20.66,    21.51
      179.0,      20.41,    21.01,    18.59,    20.61,    21.43
      180.0,      20.36,    20.98,    18.56,    20.55,    21.35
      181.0,      20.31,    20.95,    18.53,    20.50,    21.27
      182.0,      20.26,    20.92,    18.50,    20.45,    21.19
      183.0,      20.22,    20.89,    18.47,    20.39,    21.12
      184.0,      20.17,    20.86,    18.44,    20.34,    21.04
      185.0,      20.12,    20.83,    18.41,    20.29,    20.97
      186.0,      20.08,    20.80,    18.38,    20.24,    20.89
      187.0,      20.03,    20.77,    18.35,    20.19,    20.82
      188.0,      19.99,    20.74,    18.32,    20.14,    20.75
      189.0,      19.94,    20.71,    18.29,    20.09,    20.68
      190.0,      19.90,    20.69,    18.26,    20.04,    20.61
      191.0,      19.85,    20.66,    18.24,    19.99,    20.54
      192.0,      19.81,    20.63,    18.21,    19.94,    20.47
      193.0,      19.77,    20.60,    18.18,    19.89,    20.40
      194.0,      19.73,    20.58,    18.15,    19.84,    20.33
      195.0,      19.68,    20.55,    18.13,    19.79,    20.26
      196.0,      19.64,    20.52,    18.10,    19.74,    20.20
      197.0,      19.60,    20.50,    18.07,    19.70,    20.13
      198.0,      19.56,    20.47,    18.05,    19.65,    20.07
      199.0,      19.52,    20.45,    18.02,    19.60,    20.00
      200.0,      19.48,    20.42,    17.99,    19.56,    19.94
      201.0,      19.44,    20.40,    17.97,    19.51,    19.88
      202.0,      19.40,    20.37,    17.94,    19.47,    19.82
      203.0,      19.36,    20.35,    17.92,    19.42,    19.75
      204.0,      19.32,    20.32,    17.89,    19.38,    19.69
      205.0,      19.28,    20.30,    17.87,    19.33,    19.63
      206.0,      19.24,    20.27,    17.84,    19.29,    19.57
      207.0,      19.21,    20.25,    17.82,    19.24,    19.51
      208.0,      19.17,    20.22,    17.79,    19.20,    19.46
      209.0,      19.13,    20.20,    17.77,    19.16,    19.40
      210.0,      19.09,    20.17,    17.74,    19.11,    19.34
      211.0,      19.06,    20.15,    17.72,    19.07,    19.29
      212.0,      19.02,    20.13,    17.70,    19.03,    19.23
      213.0,      18.98,    20.10,    17.67,    18.99,    19.17
      214.0,      18.95,    20.08,    17.65,    18.94,    19.12
      215.0,      18.91,    20.06,    17.63,    18.90,    19.06
      216.0,      18.88,    20.03,    17.60,    18.86,    19.01
      217.0,      18.84,    20.01,    17.58,    18.82,    18.96
      218.0,      18.81,    19.99,    17.56,    18.78,    18.91
      219.0,      18.77,    19.97,    17.53,    18.74,    18.85
      220.0,      18.74,    19.94,    17.51,    18.70,    18.80
      221.0,      18.70,    19.92,    17.49,    18.66,    18.75
      222.0,      18.67,    19.90,    17.47,    18.62,    18.70
      223.0,      18.64,    19.88,    17.44,    18.58,    18.65
      224.0,      18.60,    19.85,    17.42,    18.54,    18.60
      225.0,      18.57,    19.83,    17.40,    18.50,    18.55
      226.0,      18.54,    19.81,    17.38,    18.46,    18.50
      227.0,      18.50,    19.79,    17.36,    18.42,    18.45
      228.0,      18.47,    19.77,    17.33,    18.38,    18.41
      229.0,      18.44,    19.74,    17.31,    18.34,    18.36
      230.0,      18.41,    19.72,    17.29,    18.31,    18.31
      231.0,      18.38,    19.70,    17.27,    18.27,    18.27
      232.0,      18.34,    19.68,    17.25,    18.23,    18.22
      233.0,      18.31,    19.66,    17.23,    18.19,    18.17
      234.0,      18.28,    19.64,    17.20,    18.15,    18.13
      235.0,      18.25,    19.62,    17.18,    18.12,    18.08
      236.0,      18.22,    19.59,    17.16,    18.08,    18.04
      237.0,      18.19,    19.57,    17.14,    18.04,    18.00
      238.0,      18.16,    19.55,    17.12,    18.01,    17.95
      239.0,      18.13,    19.53,    17.10,    17.97,    17.91
      240.0,      18.10,    19.51,    17.08,    17.93,    17.87
      241.0,      18.07,    19.49,    17.06,    17.90,    17.82
      242.0,      18.04,    19.47,    17.04,    17.86,    17.78
      243.0,      18.01,    19.45,    17.02,    17.83,    17.74
      244.0,      17.98,    19.43,    16.99,    17.79,    17.70
      245.0,      17.95,    19.41,    16.97,    17.75,    17.66
      246.0,      17.92,    19.39,    16.95,    17.72,    17.62
      247.0,      17.89,    19.37,    16.93,    17.68,    17.58
      248.0,      17.86,    19.34,    16.91,    17.65,    17.54
      249.0,      17.83,    19.32,    16.89,    17.61,    17.50
      250.0,      17.80,    19.30,    16.87,    17.58,    17.46
      251.0,      17.78,    19.28,    16.85,    17.54,    17.42
      252.0,      17.75,    19.26,    16.83,    17.51,    17.38
      253.0,      17.72,    19.24,    16.81,    17.48,    17.34
      254.0,      17.69,    19.22,    16.79,    17.44,    17.31
      255.0,      17.66,    19.20,    16.77,    17.41,    17.27
      256.0,      17.64,    19.18,    16.75,    17.37,    17.23
      257.0,      17.61,    19.16,    16.73,    17.34,    17.20
      258.0,      17.58,    19.14,    16.71,    17.31,    17.16
      259.0,      17.55,    19.12,    16.69,    17.27,    17.12
      260.0,      17.53,    19.10,    16.67,    17.24,    17.09
      261.0,      17.50,    19.08,    16.66,    17.21,    17.05
      262.0,      17.47,    19.06,    16.64,    17.17,    17.02
      263.0,      17.45,    19.04,    16.62,    17.14,    16.98
      264.0,      17.42,    19.02,    16.60,    17.11,    16.95
      265.0,      17.39,    19.01,    16.58,    17.07,    16.91
      266.0,      17.37,    18.99,    16.56,    17.04,    16.88
      267.0,      17.34,    18.97,    16.54,    17.01,    16.84
      268.0,      17.31,    18.95,    16.52,    16.98,    16.81
      269.0,      17.29,    18.93,    16.50,    16.94,    16.78
      270.0,      17.26,    18.91,    16.48,    16.91,    16.74
      271.0,      17.24,    18.89,    16.46,    16.88,    16.71
      272.0,      17.21,    18.87,    16.44,    16.85,    16.68
      273.0,      17.18,    18.85,    16.42,    16.82,    16.65
      274.0,      17.16,    18.83,    16.41,    16.78,    16.61
      275.0,      17.13,    18.81,    16.39,    16.75,    16.58
      276.0,      17.11,    18.79,    16.37,    16.72,    16.55
      277.0,      17.08,    18.77,    16.35,    16.69,    16.52
      278.0,      17.06,    18.75,    16.33,    16.66,    16.49
      279.0,      17.03,    18.73,    16.31,    16.63,    16.46
      280.0,      17.01,    18.72,    16.29,    16.59,    16.43
      281.0,      16.98,    18.70,    16.27,    16.56,    16.40
      282.0,      16.96,    18.68,    16.25,    16.53,    16.37
      283.0,      16.93,    18.66,    16.24,    16.50,    16.34
      284.0,      16.91,    18.64,    16.22,    16.47,    16.31
      285.0,      16.88,    18.62,    16.20,    16.44,    16.28
      286.0,      16.86,    18.60,    16.18,    16.41,    16.25
      287.0,      16.84,    18.58,    16.16,    16.38,    16.22
      288.0,      16.81,    18.56,    16.14,    16.35,    16.19
      289.0,      16.79,    18.54,    16.13,    16.32,    16.16
      290.0,      16.76,    18.53,    16.11,    16.29,    16.13
      291.0,      16.74,    18.51,    16.09,    16.26,    16.10
      292.0,      16.72,    18.49,    16.07,    16.23,    16.08
      293.0,      16.69,    18.47,    16.05,    16.20,    16.05
      294.0,      16.67,    18.45,    16.03,    16.17,    16.02
      295.0,      16.64,    18.43,    16.02,    16.14,    15.99
      296.0,      16.62,    18.41,    16.00,    16.11,    15.97
      297.0,      16.60,    18.39,    15.98,    16.08,    15.94
      298.0,      16.57,    18.38,    15.96,    16.05,    15.91
      299.0,      16.55,    18.36,    15.94,    16.02,    15.88
      300.0,      16.53,    18.34,    15.92,    15.99,    15.86
      301.0,      16.51,    18.32,    15.91,    15.96,    15.83
      302.0,      16.48,    18.30,    15.89,    15.93,    15.81
      303.0,      16.46,    18.28,    15.87,    15.90,    15.78
      304.0,      16.44,    18.27,    15.85,    15.87,    15.75
      305.0,      16.41,    18.25,    15.83,    15.85,    15.73
      306.0,      16.39,    18.23,    15.82,    15.82,    15.70
      307.0,      16.37,    18.21,    15.80,    15.79,    15.68
      308.0,      16.35,    18.19,    15.78,    15.76,    15.65
      309.0,      16.32,    18.17,    15.76,    15.73,    15.63
      310.0,      16.30,    18.16,    15.75,    15.70,    15.60
