Radius (km), Mean (m/s), NE (m/s), SE (m/s), SW (m/s), NW (m/s)
        0.0,       0.00,     0.00,     0.00,     0.00,     0.00
        1.0,       0.94,     0.81,     1.07,     1.07,     0.81
        2.0,       1.92,     1.72,     2.11,     2.11,     1.72
        3.0,       2.91,     2.68,     3.13,     3.13,     2.68
        4.0,       3.91,     3.67,     4.14,     4.14,     3.67
        5.0,       4.92,     4.69,     5.15,     5.15,     4.69
        6.0,       5.93,     5.72,     6.15,     6.15,     5.72
        7.0,       6.96,     6.76,     7.15,     7.15,     6.76
        8.0,       7.98,     7.83,     8.14,     8.14,     7.83
        9.0,       9.01,     8.90,     9.13,     9.13,     8.90
       10.0,      10.05,     9.98,    10.12,    10.12,     9.98
       11.0,      11.09,    11.08,    11.10,    11.10,    11.08
       12.0,      12.13,    12.18,    12.08,    12.08,    12.18
       13.0,      13.18,    13.29,    13.07,    13.07,    13.29
       14.0,      14.23,    14.41,    14.04,    14.04,    14.41
       15.0,      15.28,    15.54,    15.02,    15.02,    15.54
       16.0,      16.33,    16.67,    16.00,    16.00,    16.67
       17.0,      17.39,    17.81,    16.97,    16.97,    17.81
       18.0,      18.45,    18.96,    17.94,    17.94,    18.96
       19.0,      19.51,    20.11,    18.91,    18.91,    20.11
       20.0,      20.57,    21.27,    19.88,    19.88,    21.27
       21.0,      21.64,    22.43,    20.85,    20.85,    22.43
       22.0,      22.71,    23.60,    21.82,    21.82,    23.60
       23.0,      23.78,    24.77,    22.78,    22.78,    24.77
       24.0,      24.85,    25.95,    23.75,    23.75,    25.95
       25.0,      25.92,    27.13,    24.71,    24.71,    27.13
       26.0,      27.00,    28.32,    25.68,    25.68,    28.32
       27.0,      28.07,    29.51,    26.64,    26.64,    29.51
       28.0,      29.15,    30.70,    27.60,    27.60,    30.70
       29.0,      30.23,    31.90,    28.56,    28.56,    31.90
       30.0,      31.31,    33.10,    29.52,    29.52,    33.10
       31.0,      32.40,    34.31,    30.49,    30.48,    34.33
       32.0,      33.53,    35.55,    31.51,    31.45,    35.63
       33.0,      34.76,    36.86,    32.63,    32.47,    37.06
       34.0,      36.13,    38.31,    33.92,    33.60,    38.71
       35.0,      37.70,    39.93,    35.39,    34.89,    40.60
       36.0,      39.46,    41.73,    37.05,    36.35,    42.70
       37.0,      41.36,    43.67,    38.84,    37.98,    44.95
       38.0,      43.32,    45.69,    40.66,    39.70,    47.24
       39.0,      45.23,    47.69,    42.40,    41.41,    49.41
       40.0,      46.95,    49.53,    43.93,    43.01,    51.33
       41.0,      48.38,    51.12,    45.15,    44.36,    52.87
       42.0,      49.41,    52.36,    45.98,    45.37,    53.94
       43.0,      50.01,    53.19,    46.39,    45.97,    54.49
       44.0,      50.16,    53.60,    46.37,    46.14,    54.54
       45.0,      49.91,    53.61,    45.99,    45.89,    54.16
       46.0,      49.33,    53.30,    45.31,    45.29,    53.42
       47.0,      48.51,    52.73,    44.42,    44.43,    52.45
       48.0,      47.55,    52.02,    43.43,    43.39,    51.35
       49.0,      46.53,    51.23,    42.41,    42.28,    50.21
       50.0,      45.52,    50.44,    41.40,    41.16,    49.10
       51.0,      44.56,    49.68,    40.45,    40.09,    48.04
       52.0,      43.66,    48.96,    39.55,    39.08,    47.04
       53.0,      42.80,    48.29,    38.70,    38.13,    46.08
       54.0,      41.97,    47.63,    37.87,    37.23,    45.15
       55.0,      41.17,    47.00,    37.08,    36.36,    44.26
       56.0,      40.40,    46.38,    36.32,    35.52,    43.40
       57.0,      39.66,    45.77,    35.58,    34.72,    42.56
       58.0,      38.94,    45.19,    34.87,    33.94,    41.75
       59.0,      38.24,    44.62,    34.19,    33.18,    40.97
       60.0,      37.57,    44.06,    33.53,    32.46,    40.22
       61.0,      36.91,    43.52,    32.89,    31.76,    39.49
       62.0,      36.28,    42.99,    32.28,    31.08,    38.78
       63.0,      35.67,    42.48,    31.69,    30.43,    38.10
       64.0,      35.09,    41.98,    31.12,    29.80,    37.44
       65.0,      34.51,    41.49,    30.57,    29.19,    36.80
       66.0,      33.96,    41.01,    30.04,    28.61,    36.19
       67.0,      33.43,    40.55,    29.53,    28.04,    35.59
       68.0,      32.91,    40.10,    29.04,    27.50,    35.01
       69.0,      32.41,    39.66,    28.57,    26.97,    34.45
       70.0,      31.93,    39.24,    28.11,    26.46,    33.92
       71.0,      31.46,    38.82,    27.67,    25.97,    33.39
       72.0,      31.01,    38.41,    27.24,    25.50,    32.89
       73.0,      30.57,    38.02,    26.83,    25.04,    32.40
       74.0,      30.15,    37.63,    26.43,    24.60,    31.93
       75.0,      29.74,    37.25,    26.05,    24.17,    31.47
       76.0,      29.34,    36.89,    25.68,    23.76,    31.03
       77.0,      28.95,    36.53,    25.33,    23.36,    30.60
       78.0,      28.58,    36.18,    24.98,    22.97,    30.19
       79.0,      28.22,    35.84,    24.65,    22.60,    29.79
       80.0,      27.87,    35.51,    24.33,    22.25,    29.40
       81.0,      27.53,    35.19,    24.03,    21.90,    29.02
       82.0,      27.21,    34.87,    23.73,    21.57,    28.66
       83.0,      26.89,    34.56,    23.44,    21.24,    28.31
       84.0,      26.58,    34.26,    23.16,    20.93,    27.97
       85.0,      26.28,    33.97,    22.90,    20.63,    27.64
       86.0,      26.00,    33.68,    22.64,    20.34,    27.32
       87.0,      25.72,    33.40,    22.39,    20.06,    27.02
       88.0,      25.45,    33.13,    22.15,    19.79,    26.72
       89.0,      25.18,    32.86,    21.92,    19.52,    26.43
       90.0,      24.93,    32.60,    21.69,    19.27,    26.15
       91.0,      24.68,    32.35,    21.48,    19.02,    25.88
       92.0,      24.44,    32.10,    21.27,    18.79,    25.62
       93.0,      24.21,    31.86,    21.07,    18.56,    25.36
       94.0,      23.99,    31.63,    20.87,    18.34,    25.12
       95.0,      23.77,    31.39,    20.68,    18.12,    24.88
       96.0,      23.56,    31.17,    20.50,    17.92,    24.65
       97.0,      23.35,    30.95,    20.32,    17.71,    24.42
       98.0,      23.15,    30.73,    20.15,    17.52,    24.21
       99.0,      22.96,    30.52,    19.99,    17.33,    24.00
      100.0,      22.77,    30.32,    19.83,    17.15,    23.80
      101.0,      22.59,    30.12,    19.68,    16.98,    23.60
      102.0,      22.42,    29.92,    19.53,    16.81,    23.41
      103.0,      22.24,    29.73,    19.38,    16.64,    23.22
      104.0,      22.08,    29.54,    19.25,    16.49,    23.04
      105.0,      21.92,    29.35,    19.11,    16.33,    22.87
      106.0,      21.76,    29.17,    18.98,    16.18,    22.70
      107.0,      21.61,    29.00,    18.86,    16.04,    22.54
      108.0,      21.46,    28.83,    18.73,    15.90,    22.38
      109.0,      21.32,    28.66,    18.62,    15.77,    22.23
      110.0,      21.18,    28.49,    18.50,    15.63,    22.08
      111.0,      21.04,    28.33,    18.39,    15.51,    21.93
      112.0,      20.91,    28.17,    18.28,    15.39,    21.79
      113.0,      20.78,    28.02,    18.18,    15.27,    21.66
      114.0,      20.66,    27.86,    18.08,    15.15,    21.52
      115.0,      20.53,    27.72,    17.98,    15.04,    21.40
      116.0,      20.42,    27.57,    17.89,    14.93,    21.27
      117.0,      20.30,    27.43,    17.80,    14.83,    21.15
      118.0,      20.19,    27.29,    17.71,    14.73,    21.03
      119.0,      20.08,    27.15,    17.62,    14.63,    20.92
      120.0,      19.97,    27.01,    17.54,    14.53,    20.81
      121.0,      19.87,    26.88,    17.46,    14.44,    20.70
      122.0,      19.77,    26.75,    17.38,    14.35,    20.60
      123.0,      19.67,    26.62,    17.31,    14.26,    20.49
      124.0,      19.58,    26.50,    17.23,    14.18,    20.40
      125.0,      19.48,    26.38,    17.16,    14.09,    20.30
      126.0,      19.39,    26.26,    17.09,    14.01,    20.21
      127.0,      19.30,    26.14,    17.02,    13.94,    20.12
      128.0,      19.22,    26.02,    16.96,    13.86,    20.03
      129.0,      19.13,    25.91,    16.90,    13.79,    19.94
      130.0,      19.05,    25.80,    16.83,    13.72,    19.86
      131.0,      18.97,    25.69,    16.77,    13.65,    19.78
      132.0,      18.89,    25.58,    16.71,    13.58,    19.70
      133.0,      18.82,    25.47,    16.66,    13.52,    19.62
      134.0,      18.74,    25.37,    16.60,    13.45,    19.55
      135.0,      18.67,    25.27,    16.55,    13.39,    19.47
      136.0,      18.60,    25.17,    16.50,    13.33,    19.40
      137.0,      18.53,    25.07,    16.45,    13.27,    19.33
      138.0,      18.46,    24.97,    16.40,    13.21,    19.27
      139.0,      18.39,    24.87,    16.35,    13.16,    19.20
      140.0,      18.33,    24.78,    16.30,    13.11,    19.14
      141.0,      18.27,    24.69,    16.25,    13.05,    19.07
      142.0,      18.20,    24.59,    16.21,    13.00,    19.01
      143.0,      18.14,    24.50,    16.16,    12.95,    18.95
      144.0,      18.08,    24.42,    16.12,    12.90,    18.89
      145.0,      18.03,    24.33,    16.08,    12.85,    18.84
      146.0,      17.97,    24.24,    16.04,    12.81,    18.78
      147.0,      17.91,    24.16,    16.00,    12.76,    18.73
      148.0,      17.86,    24.07,    15.96,    12.72,    18.67
      149.0,      17.80,    23.99,    15.92,    12.67,    18.62
      150.0,      17.75,    23.91,    15.89,    12.63,    18.57
      151.0,      17.70,    23.83,    15.85,    12.59,    18.52
      152.0,      17.65,    23.75,    15.81,    12.55,    18.48
      153.0,      17.60,    23.67,    15.78,    12.51,    18.43
      154.0,      17.55,    23.60,    15.75,    12.47,    18.38
      155.0,      17.50,    23.52,    15.71,    12.44,    18.34
      156.0,      17.45,    23.44,    15.68,    12.40,    18.29
      157.0,      17.41,    23.37,    15.65,    12.36,    18.25
      158.0,      17.36,    23.30,    15.62,    12.33,    18.21
      159.0,      17.32,    23.23,    15.59,    12.29,    18.17
      160.0,      17.27,    23.15,    15.56,    12.26,    18.12
      161.0,      17.23,    23.08,    15.53,    12.23,    18.08
      162.0,      17.19,    23.01,    15.50,    12.19,    18.05
      163.0,      17.15,    22.95,    15.47,    12.16,    18.01
      164.0,      17.10,    22.88,    15.44,    12.13,    17.97
      165.0,      17.06,    22.81,    15.41,    12.10,    17.93
      166.0,      17.02,    22.74,    15.39,    12.07,    17.90
      167.0,      16.98,    22.68,    15.36,    12.04,    17.86
      168.0,      16.95,    22.61,    15.33,    12.01,    17.83
      169.0,      16.91,    22.55,    15.31,    11.98,    17.79
      170.0,      16.87,    22.49,    15.28,    11.95,    17.76
      171.0,      16.83,    22.42,    15.26,    11.93,    17.72
      172.0,      16.80,    22.36,    15.23,    11.90,    17.69
      173.0,      16.76,    22.30,    15.21,    11.87,    17.66
      174.0,      16.72,    22.24,    15.18,    11.84,    17.63
      175.0,      16.69,    22.18,    15.16,    11.82,    17.60
      176.0,      16.65,    22.12,    15.14,    11.79,    17.57
      177.0,      16.62,    22.06,    15.12,    11.77,    17.54
      178.0,      16.59,    22.00,    15.09,    11.74,    17.51
      179.0,      16.55,    21.94,    15.07,    11.72,    17.48
      180.0,      16.52,    21.89,    15.05,    11.70,    17.45
      181.0,      16.49,    21.83,    15.03,    11.67,    17.42
      182.0,      16.45,    21.77,    15.01,    11.65,    17.39
      183.0,      16.42,    21.72,    14.98,    11.63,    17.37
      184.0,      16.39,    21.66,    14.96,    11.60,    17.34
      185.0,      16.36,    21.60,    14.94,    11.58,    17.31
      186.0,      16.33,    21.55,    14.92,    11.56,    17.28
      187.0,      16.30,    21.50,    14.90,    11.54,    17.26
      188.0,      16.27,    21.44,    14.88,    11.51,    17.23
      189.0,      16.24,    21.39,    14.86,    11.49,    17.21
      190.0,      16.21,    21.34,    14.84,    11.47,    17.18
      191.0,      16.18,    21.28,    14.82,    11.45,    17.16
      192.0,      16.15,    21.23,    14.80,    11.43,    17.13
      193.0,      16.12,    21.18,    14.79,    11.41,    17.11
      194.0,      16.09,    21.13,    14.77,    11.39,    17.08
      195.0,      16.06,    21.08,    14.75,    11.37,    17.06
      196.0,      16.04,    21.03,    14.73,    11.35,    17.04
      197.0,      16.01,    20.98,    14.71,    11.33,    17.01
      198.0,      15.98,    20.93,    14.69,    11.31,    16.99
      199.0,      15.95,    20.88,    14.67,    11.29,    16.97
      200.0,      15.93,    20.83,    14.66,    11.27,    16.95
      201.0,      15.90,    20.78,    14.64,    11.25,    16.92
      202.0,      15.87,    20.73,    14.62,    11.24,    16.90
      203.0,      15.85,    20.68,    14.60,    11.22,    16.88
      204.0,      15.82,    20.63,    14.59,    11.20,    16.86
      205.0,      15.79,    20.59,    14.57,    11.18,    16.84
      206.0,      15.77,    20.54,    14.55,    11.16,    16.81
      207.0,      15.74,    20.49,    14.54,    11.14,    16.79
      208.0,      15.72,    20.44,    14.52,    11.13,    16.77
      209.0,      15.69,    20.40,    14.50,    11.11,    16.75
      210.0,      15.66,    20.35,    14.48,    11.09,    16.73
      211.0,      15.64,    20.31,    14.47,    11.07,    16.71
      212.0,      15.61,    20.26,    14.45,    11.06,    16.69
      213.0,      15.59,    20.21,    14.44,    11.04,    16.67
      214.0,      15.56,    20.17,    14.42,    11.02,    16.65
      215.0,      15.54,    20.12,    14.40,    11.01,    16.63
      216.0,      15.52,    20.08,    14.39,    10.99,    16.61
      217.0,      15.49,    20.03,    14.37,    10.97,    16.59
      218.0,      15.47,    19.99,    14.35,    10.95,    16.57
      219.0,      15.44,    19.95,    14.34,    10.94,    16.55
      220.0,      15.42,    19.90,    14.32,    10.92,    16.53
      221.0,      15.40,    19.86,    14.31,    10.91,    16.51
      222.0,      15.37,    19.81,    14.29,    10.89,    16.49
      223.0,      15.35,    19.77,    14.28,    10.87,    16.47
      224.0,      15.32,    19.73,    14.26,    10.86,    16.45
      225.0,      15.30,    19.69,    14.24,    10.84,    16.43
      226.0,      15.28,    19.64,    14.23,    10.83,    16.42
      227.0,      15.25,    19.60,    14.21,    10.81,    16.40
      228.0,      15.23,    19.56,    14.20,    10.79,    16.38
      229.0,      15.21,    19.52,    14.18,    10.78,    16.36
      230.0,      15.19,    19.47,    14.17,    10.76,    16.34
      231.0,      15.16,    19.43,    14.15,    10.75,    16.32
      232.0,      15.14,    19.39,    14.14,    10.73,    16.31
      233.0,      15.12,    19.35,    14.12,    10.72,    16.29
      234.0,      15.10,    19.31,    14.11,    10.70,    16.27
      235.0,      15.07,    19.27,    14.09,    10.69,    16.25
      236.0,      15.05,    19.22,    14.08,    10.67,    16.23
      237.0,      15.03,    19.18,    14.06,    10.65,    16.22
      238.0,      15.01,    19.14,    14.05,    10.64,    16.20
      239.0,      14.99,    19.10,    14.03,    10.62,    16.18
      240.0,      14.96,    19.06,    14.02,    10.61,    16.16
      241.0,      14.94,    19.02,    14.00,    10.59,    16.15
      242.0,      14.92,    18.98,    13.99,    10.58,    16.13
      243.0,      14.90,    18.94,    13.97,    10.56,    16.11
      244.0,      14.88,    18.90,    13.96,    10.55,    16.09
      245.0,      14.85,    18.86,    13.94,    10.54,    16.08
      246.0,      14.83,    18.82,    13.93,    10.52,    16.06
      247.0,      14.81,    18.78,    13.92,    10.51,    16.04
      248.0,      14.79,    18.74,    13.90,    10.49,    16.02
      249.0,      14.77,    18.71,    13.89,    10.48,    16.01
      250.0,      14.75,    18.67,    13.87,    10.46,    15.99
      251.0,      14.73,    18.63,    13.86,    10.45,    15.97
      252.0,      14.71,    18.59,    13.84,    10.43,    15.96
      253.0,      14.68,    18.55,    13.83,    10.42,    15.94
      254.0,      14.66,    18.51,    13.82,    10.40,    15.92
      255.0,      14.64,    18.47,    13.80,    10.39,    15.91
      256.0,      14.62,    18.44,    13.79,    10.38,    15.89
      257.0,      14.60,    18.40,    13.77,    10.36,    15.87
      258.0,      14.58,    18.36,    13.76,    10.35,    15.86
      259.0,      14.56,    18.32,    13.74,    10.33,    15.84
      260.0,      14.54,    18.28,    13.73,    10.32,    15.82
      261.0,      14.52,    18.25,    13.72,    10.31,    15.81
      262.0,      14.50,    18.21,    13.70,    10.29,    15.79
      263.0,      14.48,    18.17,    13.69,    10.28,    15.77
      264.0,      14.46,    18.13,    13.67,    10.26,    15.76
      265.0,      14.44,    18.10,    13.66,    10.25,    15.74
      266.0,      14.42,    18.06,    13.65,    10.24,    15.72
      267.0,      14.40,    18.02,    13.63,    10.22,    15.71
      268.0,      14.38,    17.99,    13.62,    10.21,    15.69
      269.0,      14.36,    17.95,    13.61,    10.19,    15.68
      270.0,      14.34,    17.91,    13.59,    10.18,    15.66
      271.0,      14.32,    17.88,    13.58,    10.17,    15.64
      272.0,      14.30,    17.84,    13.56,    10.15,    15.63
      273.0,      14.28,    17.80,    13.55,    10.14,    15.61
      274.0,      14.26,    17.77,    13.54,    10.12,    15.60
      275.0,      14.24,    17.73,    13.52,    10.11,    15.58
      276.0,      14.22,    17.70,    13.51,    10.10,    15.56
      277.0,      14.20,    17.66,    13.49,    10.08,    15.55
      278.0,      14.18,    17.62,    13.48,    10.07,    15.53
      279.0,      14.16,    17.59,    13.47,    10.06,    15.52
      280.0,      14.14,    17.55,    13.45,    10.04,    15.50
      281.0,      14.12,    17.52,    13.44,    10.03,    15.48
      282.0,      14.10,    17.48,    13.43,    10.02,    15.47
      283.0,      14.08,    17.45,    13.41,    10.00,    15.45
      284.0,      14.06,    17.41,    13.40,     9.99,    15.44
      285.0,      14.04,    17.37,    13.39,     9.98,    15.42
      286.0,      14.02,    17.34,    13.37,     9.96,    15.40
      287.0,      14.00,    17.30,    13.36,     9.95,    15.39
      288.0,      13.98,    17.27,    13.35,     9.94,    15.37
      289.0,      13.96,    17.23,    13.33,     9.92,    15.36
      290.0,      13.94,    17.20,    13.32,     9.91,    15.34
      291.0,      13.92,    17.17,    13.31,     9.90,    15.33
      292.0,      13.90,    17.13,    13.29,     9.88,    15.31
      293.0,      13.89,    17.10,    13.28,     9.87,    15.30
      294.0,      13.87,    17.06,    13.27,     9.86,    15.28
      295.0,      13.85,    17.03,    13.25,     9.84,    15.26
      296.0,      13.83,    16.99,    13.24,     9.83,    15.25
      297.0,      13.81,    16.96,    13.23,     9.82,    15.23
      298.0,      13.79,    16.92,    13.21,     9.80,    15.22
      299.0,      13.77,    16.89,    13.20,     9.79,    15.20
      300.0,      13.75,    16.86,    13.19,     9.78,    15.19
      301.0,      13.73,    16.82,    13.17,     9.77,    15.17
      302.0,      13.71,    16.79,    13.16,     9.75,    15.16
      303.0,      13.70,    16.76,    13.15,     9.74,    15.14
      304.0,      13.68,    16.72,    13.13,     9.73,    15.13
      305.0,      13.66,    16.69,    13.12,     9.71,    15.11
      306.0,      13.64,    16.65,    13.11,     9.70,    15.10
      307.0,      13.62,    16.62,    13.09,     9.69,    15.08
      308.0,      13.60,    16.59,    13.08,     9.67,    15.07
      309.0,      13.58,    16.55,    13.07,     9.66,    15.05
      310.0,      13.56,    16.52,    13.05,     9.65,    15.04
