Radius (km), Mean (m/s), NE (m/s), SE (m/s), SW (m/s), NW (m/s)
        0.0,       0.00,     0.00,     0.00,     0.00,     0.00
        1.0,       0.85,     0.83,     0.83,     0.97,     0.77
        2.0,       1.49,     1.47,     1.47,     1.64,     1.38
        3.0,       2.06,     2.04,     2.04,     2.24,     1.94
        4.0,       2.60,     2.58,     2.58,     2.78,     2.47
        5.0,       3.11,     3.09,     3.09,     3.30,     2.98
        6.0,       3.61,     3.58,     3.58,     3.79,     3.47
        7.0,       4.08,     4.06,     4.06,     4.26,     3.95
        8.0,       4.55,     4.53,     4.53,     4.71,     4.42
        9.0,       5.00,     4.99,     4.99,     5.15,     4.88
       10.0,       5.45,     5.43,     5.43,     5.58,     5.34
       11.0,       5.88,     5.87,     5.87,     6.00,     5.78
       12.0,       6.31,     6.30,     6.30,     6.41,     6.22
       13.0,       6.73,     6.72,     6.72,     6.82,     6.65
       14.0,       7.14,     7.14,     7.14,     7.21,     7.08
       15.0,       7.55,     7.55,     7.55,     7.60,     7.51
       16.0,       7.96,     7.96,     7.96,     7.98,     7.92
       17.0,       8.36,     8.36,     8.36,     8.36,     8.34
       18.0,       8.75,     8.76,     8.76,     8.73,     8.75
       19.0,       9.14,     9.16,     9.16,     9.09,     9.16
       20.0,       9.53,     9.55,     9.55,     9.45,     9.56
       21.0,       9.91,     9.93,     9.93,     9.81,     9.96
       22.0,      10.29,    10.32,    10.32,    10.16,    10.36
       23.0,      10.66,    10.70,    10.70,    10.51,    10.75
       24.0,      11.04,    11.07,    11.07,    10.86,    11.14
       25.0,      11.41,    11.45,    11.45,    11.20,    11.53
       26.0,      11.77,    11.82,    11.82,    11.54,    11.92
       27.0,      12.14,    12.19,    12.19,    11.88,    12.30
       28.0,      12.50,    12.55,    12.55,    12.21,    12.68
       29.0,      12.86,    12.92,    12.92,    12.54,    13.06
       30.0,      13.22,    13.28,    13.28,    12.87,    13.44
       31.0,      13.57,    13.64,    13.64,    13.19,    13.82
       32.0,      13.92,    14.00,    14.00,    13.51,    14.19
       33.0,      14.27,    14.35,    14.35,    13.83,    14.56
       34.0,      14.62,    14.70,    14.70,    14.15,    14.93
       35.0,      14.97,    15.05,    15.05,    14.46,    15.30
       36.0,      15.31,    15.40,    15.40,    14.78,    15.67
       37.0,      15.66,    15.75,    15.75,    15.09,    16.03
       38.0,      16.00,    16.10,    16.10,    15.40,    16.40
       39.0,      16.34,    16.44,    16.44,    15.70,    16.76
       40.0,      16.67,    16.78,    16.78,    16.01,    17.12
       41.0,      17.01,    17.12,    17.12,    16.31,    17.48
       42.0,      17.34,    17.46,    17.46,    16.61,    17.84
       43.0,      17.68,    17.80,    17.80,    16.91,    18.19
       44.0,      18.01,    18.14,    18.14,    17.21,    18.55
       45.0,      18.34,    18.47,    18.47,    17.51,    18.90
       46.0,      18.67,    18.80,    18.80,    17.80,    19.25
       47.0,      18.99,    19.14,    19.14,    18.10,    19.60
       48.0,      19.32,    19.47,    19.47,    18.39,    19.95
       49.0,      19.64,    19.80,    19.80,    18.68,    20.30
       50.0,      19.97,    20.12,    20.12,    18.97,    20.65
       51.0,      20.29,    20.45,    20.45,    19.26,    21.00
       52.0,      20.61,    20.78,    20.78,    19.54,    21.34
       53.0,      20.93,    21.10,    21.10,    19.83,    21.69
       54.0,      21.25,    21.42,    21.42,    20.11,    22.03
       55.0,      21.56,    21.75,    21.75,    20.39,    22.37
       56.0,      21.88,    22.07,    22.07,    20.67,    22.72
       57.0,      22.20,    22.39,    22.39,    20.95,    23.06
       58.0,      22.51,    22.71,    22.71,    21.23,    23.40
       59.0,      22.82,    23.02,    23.02,    21.51,    23.73
       60.0,      23.14,    23.34,    23.34,    21.79,    24.07
       61.0,      23.45,    23.66,    23.66,    22.06,    24.41
       62.0,      23.76,    23.97,    23.97,    22.34,    24.75
       63.0,      24.07,    24.29,    24.29,    22.61,    25.08
       64.0,      24.37,    24.60,    24.60,    22.88,    25.41
       65.0,      24.68,    24.91,    24.91,    23.15,    25.75
       66.0,      24.99,    25.22,    25.22,    23.42,    26.08
       67.0,      25.29,    25.53,    25.53,    23.69,    26.41
       68.0,      25.60,    25.84,    25.84,    23.96,    26.74
       69.0,      25.90,    26.15,    26.15,    24.23,    27.07
       70.0,      26.20,    26.46,    26.46,    24.49,    27.40
       71.0,      26.51,    26.77,    26.77,    24.76,    27.73
       72.0,      26.81,    27.07,    27.07,    25.02,    28.06
       73.0,      27.11,    27.38,    27.38,    25.29,    28.39
       74.0,      27.41,    27.69,    27.69,    25.55,    28.71
       75.0,      27.71,    27.99,    27.99,    25.81,    29.04
       76.0,      28.01,    28.29,    28.29,    26.07,    29.36
       77.0,      28.30,    28.60,    28.60,    26.33,    29.69
       78.0,      28.60,    28.90,    28.90,    26.59,    30.01
       79.0,      28.90,    29.20,    29.20,    26.85,    30.34
       80.0,      29.19,    29.50,    29.50,    27.11,    30.66
       81.0,      29.49,    29.80,    29.80,    27.37,    30.98
       82.0,      29.78,    30.10,    30.10,    27.62,    31.30
       83.0,      30.07,    30.40,    30.40,    27.88,    31.62
       84.0,      30.37,    30.69,    30.69,    28.13,    31.94
       85.0,      30.66,    30.99,    30.99,    28.39,    32.26
       86.0,      30.95,    31.29,    31.29,    28.64,    32.58
       87.0,      31.24,    31.58,    31.58,    28.89,    32.90
       88.0,      31.53,    31.88,    31.88,    29.14,    33.22
       89.0,      31.82,    32.17,    32.17,    29.40,    33.53
       90.0,      32.11,    32.47,    32.47,    29.65,    33.85
       91.0,      32.39,    32.76,    32.76,    29.90,    34.17
       92.0,      32.68,    33.05,    33.05,    30.15,    34.48
       93.0,      32.97,    33.34,    33.34,    30.39,    34.80
       94.0,      33.26,    33.64,    33.64,    30.64,    35.11
       95.0,      33.54,    33.93,    33.93,    30.89,    35.42
       96.0,      33.83,    34.22,    34.22,    31.14,    35.74
       97.0,      34.11,    34.51,    34.51,    31.38,    36.06
       98.0,      34.41,    34.81,    34.80,    31.63,    36.39
       99.0,      34.72,    35.13,    35.12,    31.90,    36.74
      100.0,      35.07,    35.48,    35.46,    32.18,    37.14
      101.0,      35.44,    35.87,    35.84,    32.48,    37.57
      102.0,      35.85,    36.29,    36.26,    32.82,    38.03
      103.0,      36.28,    36.73,    36.70,    33.16,    38.51
      104.0,      36.71,    37.18,    37.16,    33.51,    38.98
      105.0,      37.11,    37.59,    37.59,    33.85,    39.42
      106.0,      37.48,    37.96,    37.98,    34.16,    39.80
      107.0,      37.77,    38.26,    38.30,    34.42,    40.10
      108.0,      37.98,    38.47,    38.52,    34.62,    40.32
      109.0,      38.10,    38.59,    38.63,    34.75,    40.44
      110.0,      38.13,    38.61,    38.64,    34.80,    40.47
      111.0,      38.08,    38.55,    38.56,    34.80,    40.42
      112.0,      37.97,    38.43,    38.39,    34.75,    40.32
      113.0,      37.82,    38.27,    38.17,    34.65,    40.18
      114.0,      37.64,    38.08,    37.92,    34.54,    40.03
      115.0,      37.46,    37.89,    37.66,    34.42,    39.87
      116.0,      37.28,    37.70,    37.40,    34.30,    39.72
      117.0,      37.11,    37.52,    37.15,    34.19,    39.58
      118.0,      36.95,    37.35,    36.92,    34.08,    39.45
      119.0,      36.79,    37.18,    36.69,    33.98,    39.33
      120.0,      36.64,    37.01,    36.47,    33.88,    39.21
      121.0,      36.49,    36.85,    36.24,    33.78,    39.09
      122.0,      36.34,    36.68,    36.02,    33.68,    38.97
      123.0,      36.19,    36.52,    35.81,    33.58,    38.86
      124.0,      36.04,    36.36,    35.59,    33.48,    38.74
      125.0,      35.90,    36.20,    35.38,    33.38,    38.64
      126.0,      35.76,    36.05,    35.17,    33.28,    38.53
      127.0,      35.62,    35.89,    34.96,    33.18,    38.43
      128.0,      35.48,    35.74,    34.75,    33.09,    38.32
      129.0,      35.34,    35.58,    34.55,    32.99,    38.22
      130.0,      35.20,    35.43,    34.35,    32.90,    38.13
      131.0,      35.07,    35.28,    34.15,    32.80,    38.03
      132.0,      34.93,    35.13,    33.95,    32.71,    37.94
      133.0,      34.80,    34.99,    33.76,    32.61,    37.85
      134.0,      34.67,    34.84,    33.56,    32.52,    37.76
      135.0,      34.54,    34.70,    33.37,    32.43,    37.67
      136.0,      34.41,    34.55,    33.18,    32.34,    37.58
      137.0,      34.29,    34.41,    33.00,    32.24,    37.50
      138.0,      34.16,    34.27,    32.81,    32.15,    37.42
      139.0,      34.04,    34.13,    32.63,    32.06,    37.34
      140.0,      33.92,    33.99,    32.44,    31.97,    37.26
      141.0,      33.79,    33.85,    32.26,    31.88,    37.18
      142.0,      33.67,    33.72,    32.09,    31.80,    37.10
      143.0,      33.56,    33.58,    31.91,    31.71,    37.02
      144.0,      33.44,    33.45,    31.74,    31.62,    36.95
      145.0,      33.32,    33.32,    31.56,    31.53,    36.88
      146.0,      33.21,    33.18,    31.39,    31.44,    36.80
      147.0,      33.09,    33.05,    31.22,    31.36,    36.73
      148.0,      32.98,    32.92,    31.06,    31.27,    36.66
      149.0,      32.87,    32.80,    30.89,    31.19,    36.59
      150.0,      32.76,    32.67,    30.73,    31.10,    36.52
      151.0,      32.65,    32.54,    30.57,    31.02,    36.46
      152.0,      32.54,    32.42,    30.40,    30.93,    36.39
      153.0,      32.43,    32.30,    30.25,    30.85,    36.33
      154.0,      32.32,    32.17,    30.09,    30.77,    36.26
      155.0,      32.22,    32.05,    29.93,    30.68,    36.20
      156.0,      32.11,    31.93,    29.78,    30.60,    36.13
      157.0,      32.01,    31.81,    29.63,    30.52,    36.07
      158.0,      31.90,    31.69,    29.48,    30.44,    36.01
      159.0,      31.80,    31.58,    29.33,    30.36,    35.95
      160.0,      31.70,    31.46,    29.18,    30.28,    35.89
      161.0,      31.60,    31.35,    29.03,    30.20,    35.83
      162.0,      31.50,    31.23,    28.89,    30.12,    35.77
      163.0,      31.40,    31.12,    28.74,    30.04,    35.71
      164.0,      31.31,    31.01,    28.60,    29.96,    35.65
      165.0,      31.21,    30.89,    28.46,    29.88,    35.60
      166.0,      31.11,    30.78,    28.32,    29.80,    35.54
      167.0,      31.02,    30.67,    28.18,    29.73,    35.48
      168.0,      30.92,    30.57,    28.05,    29.65,    35.43
      169.0,      30.83,    30.46,    27.91,    29.57,    35.37
      170.0,      30.74,    30.35,    27.78,    29.50,    35.32
      171.0,      30.64,    30.25,    27.65,    29.42,    35.26
      172.0,      30.55,    30.14,    27.52,    29.34,    35.21
      173.0,      30.46,    30.04,    27.39,    29.27,    35.16
      174.0,      30.37,    29.93,    27.26,    29.20,    35.10
      175.0,      30.28,    29.83,    27.13,    29.12,    35.05
      176.0,      30.20,    29.73,    27.00,    29.05,    35.00
      177.0,      30.11,    29.63,    26.88,    28.97,    34.95
      178.0,      30.02,    29.53,    26.76,    28.90,    34.90
      179.0,      29.94,    29.43,    26.63,    28.83,    34.85
      180.0,      29.85,    29.33,    26.51,    28.76,    34.80
      181.0,      29.76,    29.24,    26.39,    28.68,    34.74
      182.0,      29.68,    29.14,    26.28,    28.61,    34.69
      183.0,      29.60,    29.04,    26.16,    28.54,    34.64
      184.0,      29.51,    28.95,    26.04,    28.47,    34.60
      185.0,      29.43,    28.85,    25.93,    28.40,    34.55
      186.0,      29.35,    28.76,    25.81,    28.33,    34.50
      187.0,      29.27,    28.67,    25.70,    28.26,    34.45
      188.0,      29.19,    28.58,    25.59,    28.19,    34.40
      189.0,      29.11,    28.49,    25.48,    28.12,    34.35
      190.0,      29.03,    28.40,    25.37,    28.05,    34.30
      191.0,      28.95,    28.31,    25.26,    27.99,    34.26
      192.0,      28.87,    28.22,    25.15,    27.92,    34.21
      193.0,      28.80,    28.13,    25.05,    27.85,    34.16
      194.0,      28.72,    28.04,    24.94,    27.78,    34.11
      195.0,      28.64,    27.96,    24.84,    27.72,    34.07
      196.0,      28.57,    27.87,    24.73,    27.65,    34.02
      197.0,      28.49,    27.78,    24.63,    27.58,    33.97
      198.0,      28.42,    27.70,    24.53,    27.52,    33.93
      199.0,      28.34,    27.62,    24.43,    27.45,    33.88
      200.0,      28.27,    27.53,    24.33,    27.39,    33.84
      201.0,      28.20,    27.45,    24.23,    27.32,    33.79
      202.0,      28.13,    27.37,    24.13,    27.26,    33.75
      203.0,      28.05,    27.29,    24.04,    27.19,    33.70
      204.0,      27.98,    27.21,    23.94,    27.13,    33.65
      205.0,      27.91,    27.13,    23.85,    27.07,    33.61
      206.0,      27.84,    27.05,    23.75,    27.00,    33.56
      207.0,      27.77,    26.97,    23.66,    26.94,    33.52
      208.0,      27.70,    26.89,    23.57,    26.88,    33.48
      209.0,      27.63,    26.81,    23.48,    26.81,    33.43
      210.0,      27.57,    26.74,    23.39,    26.75,    33.39
      211.0,      27.50,    26.66,    23.30,    26.69,    33.34
      212.0,      27.43,    26.58,    23.21,    26.63,    33.30
      213.0,      27.36,    26.51,    23.12,    26.57,    33.25
      214.0,      27.30,    26.43,    23.03,    26.51,    33.21
      215.0,      27.23,    26.36,    22.95,    26.45,    33.17
      216.0,      27.16,    26.29,    22.86,    26.39,    33.12
      217.0,      27.10,    26.21,    22.78,    26.33,    33.08
      218.0,      27.03,    26.14,    22.69,    26.27,    33.04
      219.0,      26.97,    26.07,    22.61,    26.21,    32.99
      220.0,      26.91,    26.00,    22.53,    26.15,    32.95
      221.0,      26.84,    25.93,    22.45,    26.09,    32.91
      222.0,      26.78,    25.86,    22.37,    26.03,    32.86
      223.0,      26.72,    25.79,    22.29,    25.97,    32.82
      224.0,      26.65,    25.72,    22.21,    25.91,    32.78
      225.0,      26.59,    25.65,    22.13,    25.86,    32.74
      226.0,      26.53,    25.58,    22.05,    25.80,    32.69
      227.0,      26.47,    25.51,    21.97,    25.74,    32.65
      228.0,      26.41,    25.45,    21.90,    25.69,    32.61
      229.0,      26.35,    25.38,    21.82,    25.63,    32.57
      230.0,      26.29,    25.32,    21.75,    25.57,    32.52
      231.0,      26.23,    25.25,    21.67,    25.52,    32.48
      232.0,      26.17,    25.18,    21.60,    25.46,    32.44
      233.0,      26.11,    25.12,    21.52,    25.40,    32.40
      234.0,      26.05,    25.06,    21.45,    25.35,    32.36
      235.0,      26.00,    24.99,    21.38,    25.29,    32.32
      236.0,      25.94,    24.93,    21.31,    25.24,    32.27
      237.0,      25.88,    24.87,    21.24,    25.18,    32.23
      238.0,      25.82,    24.80,    21.17,    25.13,    32.19
      239.0,      25.77,    24.74,    21.10,    25.08,    32.15
      240.0,      25.71,    24.68,    21.03,    25.02,    32.11
      241.0,      25.65,    24.62,    20.96,    24.97,    32.07
      242.0,      25.60,    24.56,    20.90,    24.91,    32.03
      243.0,      25.54,    24.50,    20.83,    24.86,    31.98
      244.0,      25.49,    24.44,    20.76,    24.81,    31.94
      245.0,      25.43,    24.38,    20.70,    24.76,    31.90
      246.0,      25.38,    24.32,    20.63,    24.70,    31.86
      247.0,      25.33,    24.26,    20.57,    24.65,    31.82
      248.0,      25.27,    24.21,    20.51,    24.60,    31.78
      249.0,      25.22,    24.15,    20.44,    24.55,    31.74
      250.0,      25.17,    24.09,    20.38,    24.50,    31.70
      251.0,      25.11,    24.04,    20.32,    24.44,    31.66
      252.0,      25.06,    23.98,    20.26,    24.39,    31.62
      253.0,      25.01,    23.92,    20.19,    24.34,    31.58
      254.0,      24.96,    23.87,    20.13,    24.29,    31.54
      255.0,      24.91,    23.81,    20.07,    24.24,    31.50
      256.0,      24.85,    23.76,    20.01,    24.19,    31.46
      257.0,      24.80,    23.70,    19.95,    24.14,    31.42
      258.0,      24.75,    23.65,    19.90,    24.09,    31.38
      259.0,      24.70,    23.60,    19.84,    24.04,    31.34
      260.0,      24.65,    23.54,    19.78,    23.99,    31.30
      261.0,      24.60,    23.49,    19.72,    23.94,    31.26
      262.0,      24.55,    23.44,    19.67,    23.89,    31.22
      263.0,      24.50,    23.39,    19.61,    23.84,    31.18
      264.0,      24.46,    23.33,    19.56,    23.80,    31.14
      265.0,      24.41,    23.28,    19.50,    23.75,    31.10
      266.0,      24.36,    23.23,    19.45,    23.70,    31.06
      267.0,      24.31,    23.18,    19.39,    23.65,    31.02
      268.0,      24.26,    23.13,    19.34,    23.60,    30.98
      269.0,      24.21,    23.08,    19.28,    23.56,    30.94
      270.0,      24.17,    23.03,    19.23,    23.51,    30.90
      271.0,      24.12,    22.98,    19.18,    23.46,    30.86
      272.0,      24.07,    22.93,    19.13,    23.41,    30.82
      273.0,      24.03,    22.88,    19.07,    23.37,    30.78
      274.0,      23.98,    22.83,    19.02,    23.32,    30.74
      275.0,      23.93,    22.79,    18.97,    23.27,    30.70
      276.0,      23.89,    22.74,    18.92,    23.23,    30.66
      277.0,      23.84,    22.69,    18.87,    23.18,    30.63
      278.0,      23.80,    22.64,    18.82,    23.14,    30.59
      279.0,      23.75,    22.60,    18.77,    23.09,    30.55
      280.0,      23.71,    22.55,    18.73,    23.05,    30.51
      281.0,      23.66,    22.50,    18.68,    23.00,    30.47
      282.0,      23.62,    22.46,    18.63,    22.95,    30.43
      283.0,      23.57,    22.41,    18.58,    22.91,    30.39
      284.0,      23.53,    22.37,    18.53,    22.87,    30.35
      285.0,      23.49,    22.32,    18.49,    22.82,    30.32
      286.0,      23.44,    22.28,    18.44,    22.78,    30.28
      287.0,      23.40,    22.23,    18.39,    22.73,    30.24
      288.0,      23.36,    22.19,    18.35,    22.69,    30.20
      289.0,      23.31,    22.14,    18.30,    22.64,    30.16
      290.0,      23.27,    22.10,    18.26,    22.60,    30.12
      291.0,      23.23,    22.06,    18.21,    22.56,    30.09
      292.0,      23.19,    22.01,    18.17,    22.51,    30.05
      293.0,      23.14,    21.97,    18.13,    22.47,    30.01
      294.0,      23.10,    21.93,    18.08,    22.43,    29.97
      295.0,      23.06,    21.88,    18.04,    22.38,    29.93
      296.0,      23.02,    21.84,    18.00,    22.34,    29.90
      297.0,      22.98,    21.80,    17.95,    22.30,    29.86
      298.0,      22.94,    21.76,    17.91,    22.26,    29.82
      299.0,      22.90,    21.72,    17.87,    22.21,    29.78
      300.0,      22.85,    21.68,    17.83,    22.17,    29.74
      301.0,      22.81,    21.64,    17.78,    22.13,    29.71
      302.0,      22.77,    21.59,    17.74,    22.09,    29.67
      303.0,      22.73,    21.55,    17.70,    22.05,    29.63
      304.0,      22.69,    21.51,    17.66,    22.01,    29.59
      305.0,      22.65,    21.47,    17.62,    21.96,    29.56
      306.0,      22.61,    21.43,    17.58,    21.92,    29.52
      307.0,      22.58,    21.39,    17.54,    21.88,    29.48
      308.0,      22.54,    21.36,    17.50,    21.84,    29.44
      309.0,      22.50,    21.32,    17.46,    21.80,    29.41
      310.0,      22.46,    21.28,    17.43,    21.76,    29.37
