Radius (km), Mean (m/s), NE (m/s), SE (m/s), SW (m/s), NW (m/s)
        0.0,       0.00,     0.00,     0.00,     0.00,     0.00
        1.0,       1.26,     1.13,     1.21,     1.48,     1.21
        2.0,       2.27,     2.10,     2.21,     2.53,     2.21
        3.0,       3.20,     3.03,     3.15,     3.46,     3.15
        4.0,       4.08,     3.92,     4.04,     4.32,     4.04
        5.0,       4.93,     4.79,     4.90,     5.13,     4.90
        6.0,       5.76,     5.65,     5.74,     5.91,     5.74
        7.0,       6.56,     6.48,     6.56,     6.65,     6.56
        8.0,       7.35,     7.31,     7.37,     7.38,     7.37
        9.0,       8.13,     8.13,     8.16,     8.08,     8.16
       10.0,       8.89,     8.94,     8.94,     8.76,     8.94
       11.0,       9.64,     9.74,     9.71,     9.43,     9.71
       12.0,      10.39,    10.53,    10.47,    10.08,    10.47
       13.0,      11.12,    11.31,    11.22,    10.72,    11.22
       14.0,      11.84,    12.09,    11.97,    11.35,    11.97
       15.0,      12.56,    12.87,    12.70,    11.97,    12.70
       16.0,      13.27,    13.64,    13.44,    12.58,    13.44
       17.0,      13.98,    14.40,    14.16,    13.19,    14.16
       18.0,      14.67,    15.16,    14.88,    13.78,    14.88
       19.0,      15.37,    15.91,    15.60,    14.37,    15.60
       20.0,      16.05,    16.66,    16.30,    14.95,    16.30
       21.0,      16.74,    17.41,    17.01,    15.52,    17.01
       22.0,      17.41,    18.16,    17.71,    16.08,    17.71
       23.0,      18.09,    18.90,    18.41,    16.65,    18.41
       24.0,      18.76,    19.63,    19.10,    17.20,    19.10
       25.0,      19.42,    20.37,    19.79,    17.75,    19.79
       26.0,      20.08,    21.10,    20.47,    18.30,    20.47
       27.0,      20.74,    21.83,    21.15,    18.84,    21.15
       28.0,      21.40,    22.55,    21.83,    19.37,    21.83
       29.0,      22.05,    23.27,    22.50,    19.90,    22.50
       30.0,      22.69,    24.00,    23.18,    20.43,    23.18
       31.0,      23.34,    24.71,    23.84,    20.95,    23.84
       32.0,      23.98,    25.43,    24.51,    21.47,    24.51
       33.0,      24.62,    26.14,    25.17,    21.99,    25.17
       34.0,      25.25,    26.85,    25.83,    22.50,    25.83
       35.0,      25.89,    27.56,    26.49,    23.01,    26.49
       36.0,      26.52,    28.27,    27.15,    23.51,    27.15
       37.0,      27.15,    28.97,    27.80,    24.01,    27.80
       38.0,      27.77,    29.68,    28.45,    24.51,    28.45
       39.0,      28.40,    30.38,    29.10,    25.01,    29.10
       40.0,      29.02,    31.08,    29.75,    25.50,    29.74
       41.0,      29.65,    31.78,    30.42,    25.99,    30.39
       42.0,      30.30,    32.49,    31.16,    26.51,    31.04
       43.0,      31.00,    33.23,    32.01,    27.06,    31.71
       44.0,      31.78,    34.03,    32.98,    27.67,    32.42
       45.0,      32.64,    34.92,    34.08,    28.36,    33.19
       46.0,      33.57,    35.88,    35.28,    29.12,    34.01
       47.0,      34.56,    36.90,    36.51,    29.93,    34.89
       48.0,      35.54,    37.95,    37.70,    30.74,    35.78
       49.0,      36.48,    38.97,    38.77,    31.51,    36.67
       50.0,      37.30,    39.91,    39.63,    32.17,    37.49
       51.0,      37.96,    40.70,    40.23,    32.70,    38.21
       52.0,      38.42,    41.30,    40.55,    33.05,    38.79
       53.0,      38.67,    41.69,    40.57,    33.21,    39.21
       54.0,      38.71,    41.87,    40.33,    33.19,    39.46
       55.0,      38.57,    41.85,    39.88,    33.01,    39.56
       56.0,      38.29,    41.66,    39.27,    32.70,    39.52
       57.0,      37.91,    41.36,    38.58,    32.32,    39.38
       58.0,      37.48,    40.99,    37.86,    31.89,    39.18
       59.0,      37.04,    40.60,    37.16,    31.45,    38.95
       60.0,      36.61,    40.21,    36.48,    31.03,    38.71
       61.0,      36.20,    39.84,    35.84,    30.63,    38.49
       62.0,      35.82,    39.50,    35.24,    30.25,    38.28
       63.0,      35.45,    39.18,    34.66,    29.90,    38.08
       64.0,      35.10,    38.87,    34.10,    29.56,    37.89
       65.0,      34.77,    38.57,    33.57,    29.23,    37.70
       66.0,      34.44,    38.28,    33.05,    28.91,    37.51
       67.0,      34.12,    38.00,    32.56,    28.60,    37.32
       68.0,      33.81,    37.72,    32.08,    28.30,    37.14
       69.0,      33.51,    37.45,    31.62,    28.02,    36.95
       70.0,      33.22,    37.19,    31.18,    27.74,    36.77
       71.0,      32.94,    36.94,    30.75,    27.47,    36.59
       72.0,      32.66,    36.69,    30.34,    27.21,    36.41
       73.0,      32.40,    36.45,    29.95,    26.96,    36.23
       74.0,      32.14,    36.21,    29.57,    26.72,    36.05
       75.0,      31.88,    35.98,    29.20,    26.48,    35.87
       76.0,      31.64,    35.75,    28.85,    26.26,    35.70
       77.0,      31.40,    35.53,    28.51,    26.04,    35.53
       78.0,      31.17,    35.32,    28.18,    25.83,    35.35
       79.0,      30.94,    35.11,    27.87,    25.62,    35.18
       80.0,      30.72,    34.90,    27.56,    25.42,    35.01
       81.0,      30.51,    34.70,    27.27,    25.23,    34.84
       82.0,      30.30,    34.51,    26.99,    25.04,    34.68
       83.0,      30.10,    34.31,    26.72,    24.86,    34.51
       84.0,      29.90,    34.12,    26.46,    24.68,    34.34
       85.0,      29.71,    33.94,    26.21,    24.51,    34.18
       86.0,      29.52,    33.76,    25.96,    24.35,    34.02
       87.0,      29.34,    33.58,    25.73,    24.19,    33.86
       88.0,      29.16,    33.41,    25.50,    24.03,    33.70
       89.0,      28.99,    33.24,    25.29,    23.88,    33.54
       90.0,      28.82,    33.07,    25.08,    23.74,    33.38
       91.0,      28.65,    32.91,    24.87,    23.59,    33.22
       92.0,      28.49,    32.75,    24.68,    23.46,    33.06
       93.0,      28.33,    32.59,    24.49,    23.32,    32.91
       94.0,      28.17,    32.43,    24.31,    23.19,    32.76
       95.0,      28.02,    32.28,    24.13,    23.07,    32.60
       96.0,      27.87,    32.13,    23.96,    22.94,    32.45
       97.0,      27.73,    31.98,    23.80,    22.82,    32.30
       98.0,      27.59,    31.84,    23.64,    22.71,    32.15
       99.0,      27.45,    31.70,    23.49,    22.59,    32.00
      100.0,      27.31,    31.56,    23.34,    22.48,    31.86
      101.0,      27.18,    31.42,    23.20,    22.38,    31.71
      102.0,      27.05,    31.28,    23.06,    22.27,    31.56
      103.0,      26.92,    31.15,    22.93,    22.17,    31.42
      104.0,      26.79,    31.02,    22.80,    22.07,    31.28
      105.0,      26.67,    30.89,    22.68,    21.97,    31.13
      106.0,      26.55,    30.76,    22.56,    21.88,    30.99
      107.0,      26.43,    30.63,    22.44,    21.79,    30.85
      108.0,      26.31,    30.51,    22.33,    21.70,    30.71
      109.0,      26.20,    30.38,    22.22,    21.61,    30.57
      110.0,      26.09,    30.26,    22.12,    21.53,    30.44
      111.0,      25.98,    30.14,    22.02,    21.44,    30.30
      112.0,      25.87,    30.02,    21.92,    21.36,    30.16
      113.0,      25.76,    29.91,    21.82,    21.28,    30.03
      114.0,      25.65,    29.79,    21.73,    21.20,    29.90
      115.0,      25.55,    29.68,    21.64,    21.13,    29.76
      116.0,      25.45,    29.56,    21.55,    21.05,    29.63
      117.0,      25.35,    29.45,    21.47,    20.98,    29.50
      118.0,      25.25,    29.34,    21.39,    20.91,    29.37
      119.0,      25.15,    29.23,    21.31,    20.84,    29.24
      120.0,      25.06,    29.12,    21.23,    20.77,    29.11
      121.0,      24.96,    29.02,    21.16,    20.70,    28.98
      122.0,      24.87,    28.91,    21.08,    20.64,    28.86
      123.0,      24.78,    28.81,    21.01,    20.57,    28.73
      124.0,      24.69,    28.70,    20.94,    20.51,    28.61
      125.0,      24.60,    28.60,    20.88,    20.45,    28.48
      126.0,      24.51,    28.50,    20.81,    20.39,    28.36
      127.0,      24.43,    28.40,    20.75,    20.33,    28.23
      128.0,      24.34,    28.30,    20.69,    20.27,    28.11
      129.0,      24.26,    28.20,    20.63,    20.21,    27.99
      130.0,      24.17,    28.10,    20.57,    20.15,    27.87
      131.0,      24.09,    28.00,    20.52,    20.10,    27.75
      132.0,      24.01,    27.90,    20.46,    20.04,    27.63
      133.0,      23.93,    27.81,    20.41,    19.99,    27.51
      134.0,      23.85,    27.71,    20.36,    19.93,    27.40
      135.0,      23.77,    27.62,    20.30,    19.88,    27.28
      136.0,      23.69,    27.52,    20.26,    19.83,    27.16
      137.0,      23.62,    27.43,    20.21,    19.78,    27.05
      138.0,      23.54,    27.34,    20.16,    19.73,    26.93
      139.0,      23.46,    27.25,    20.11,    19.68,    26.82
      140.0,      23.39,    27.15,    20.07,    19.63,    26.71
      141.0,      23.32,    27.06,    20.02,    19.58,    26.59
      142.0,      23.24,    26.97,    19.98,    19.53,    26.48
      143.0,      23.17,    26.89,    19.94,    19.48,    26.37
      144.0,      23.10,    26.80,    19.90,    19.44,    26.26
      145.0,      23.03,    26.71,    19.86,    19.39,    26.15
      146.0,      22.96,    26.62,    19.82,    19.35,    26.04
      147.0,      22.89,    26.53,    19.78,    19.30,    25.94
      148.0,      22.82,    26.45,    19.74,    19.26,    25.83
      149.0,      22.75,    26.36,    19.70,    19.21,    25.72
      150.0,      22.68,    26.28,    19.67,    19.17,    25.61
      151.0,      22.62,    26.19,    19.63,    19.13,    25.51
      152.0,      22.55,    26.11,    19.60,    19.09,    25.40
      153.0,      22.48,    26.02,    19.56,    19.04,    25.30
      154.0,      22.42,    25.94,    19.53,    19.00,    25.20
      155.0,      22.35,    25.86,    19.50,    18.96,    25.09
      156.0,      22.29,    25.77,    19.46,    18.92,    24.99
      157.0,      22.22,    25.69,    19.43,    18.88,    24.89
      158.0,      22.16,    25.61,    19.40,    18.84,    24.79
      159.0,      22.10,    25.53,    19.37,    18.80,    24.69
      160.0,      22.03,    25.45,    19.34,    18.76,    24.59
      161.0,      21.97,    25.37,    19.31,    18.72,    24.49
      162.0,      21.91,    25.29,    19.28,    18.68,    24.39
      163.0,      21.85,    25.21,    19.25,    18.64,    24.29
      164.0,      21.79,    25.13,    19.22,    18.61,    24.19
      165.0,      21.73,    25.05,    19.19,    18.57,    24.10
      166.0,      21.67,    24.97,    19.16,    18.53,    24.00
      167.0,      21.61,    24.89,    19.14,    18.49,    23.90
      168.0,      21.55,    24.81,    19.11,    18.46,    23.81
      169.0,      21.49,    24.74,    19.08,    18.42,    23.71
      170.0,      21.43,    24.66,    19.05,    18.38,    23.62
      171.0,      21.37,    24.58,    19.03,    18.35,    23.53
      172.0,      21.31,    24.50,    19.00,    18.31,    23.43
      173.0,      21.26,    24.43,    18.98,    18.27,    23.34
      174.0,      21.20,    24.35,    18.95,    18.24,    23.25
      175.0,      21.14,    24.28,    18.93,    18.20,    23.16
      176.0,      21.08,    24.20,    18.90,    18.17,    23.07
      177.0,      21.03,    24.13,    18.88,    18.13,    22.98
      178.0,      20.97,    24.05,    18.85,    18.10,    22.89
      179.0,      20.92,    23.98,    18.83,    18.06,    22.80
      180.0,      20.86,    23.90,    18.80,    18.03,    22.71
      181.0,      20.81,    23.83,    18.78,    18.00,    22.62
      182.0,      20.75,    23.76,    18.76,    17.96,    22.53
      183.0,      20.70,    23.68,    18.73,    17.93,    22.44
      184.0,      20.64,    23.61,    18.71,    17.89,    22.36
      185.0,      20.59,    23.54,    18.69,    17.86,    22.27
      186.0,      20.54,    23.47,    18.67,    17.83,    22.18
      187.0,      20.48,    23.39,    18.64,    17.79,    22.10
      188.0,      20.43,    23.32,    18.62,    17.76,    22.01
      189.0,      20.38,    23.25,    18.60,    17.73,    21.93
      190.0,      20.32,    23.18,    18.58,    17.70,    21.84
      191.0,      20.27,    23.11,    18.56,    17.66,    21.76
      192.0,      20.22,    23.04,    18.53,    17.63,    21.68
      193.0,      20.17,    22.97,    18.51,    17.60,    21.59
      194.0,      20.12,    22.90,    18.49,    17.57,    21.51
      195.0,      20.06,    22.83,    18.47,    17.53,    21.43
      196.0,      20.01,    22.76,    18.45,    17.50,    21.35
      197.0,      19.96,    22.69,    18.43,    17.47,    21.27
      198.0,      19.91,    22.62,    18.41,    17.44,    21.19
      199.0,      19.86,    22.55,    18.39,    17.41,    21.11
      200.0,      19.81,    22.48,    18.37,    17.37,    21.03
      201.0,      19.76,    22.41,    18.34,    17.34,    20.95
      202.0,      19.71,    22.34,    18.32,    17.31,    20.87
      203.0,      19.66,    22.28,    18.30,    17.28,    20.79
      204.0,      19.61,    22.21,    18.28,    17.25,    20.71
      205.0,      19.56,    22.14,    18.26,    17.22,    20.64
      206.0,      19.52,    22.07,    18.24,    17.19,    20.56
      207.0,      19.47,    22.01,    18.22,    17.16,    20.48
      208.0,      19.42,    21.94,    18.20,    17.13,    20.41
      209.0,      19.37,    21.87,    18.18,    17.09,    20.33
      210.0,      19.32,    21.81,    18.16,    17.06,    20.25
      211.0,      19.27,    21.74,    18.14,    17.03,    20.18
      212.0,      19.23,    21.67,    18.13,    17.00,    20.10
      213.0,      19.18,    21.61,    18.11,    16.97,    20.03
      214.0,      19.13,    21.54,    18.09,    16.94,    19.96
      215.0,      19.08,    21.48,    18.07,    16.91,    19.88
      216.0,      19.04,    21.41,    18.05,    16.88,    19.81
      217.0,      18.99,    21.35,    18.03,    16.85,    19.74
      218.0,      18.94,    21.28,    18.01,    16.82,    19.66
      219.0,      18.90,    21.22,    17.99,    16.79,    19.59
      220.0,      18.85,    21.15,    17.97,    16.76,    19.52
      221.0,      18.81,    21.09,    17.95,    16.73,    19.45
      222.0,      18.76,    21.03,    17.93,    16.70,    19.38
      223.0,      18.71,    20.96,    17.91,    16.67,    19.31
      224.0,      18.67,    20.90,    17.90,    16.64,    19.24
      225.0,      18.62,    20.83,    17.88,    16.62,    19.17
      226.0,      18.58,    20.77,    17.86,    16.59,    19.10
      227.0,      18.53,    20.71,    17.84,    16.56,    19.03
      228.0,      18.49,    20.65,    17.82,    16.53,    18.96
      229.0,      18.44,    20.58,    17.80,    16.50,    18.89
      230.0,      18.40,    20.52,    17.78,    16.47,    18.82
      231.0,      18.36,    20.46,    17.77,    16.44,    18.76
      232.0,      18.31,    20.40,    17.75,    16.41,    18.69
      233.0,      18.27,    20.34,    17.73,    16.38,    18.62
      234.0,      18.22,    20.27,    17.71,    16.35,    18.55
      235.0,      18.18,    20.21,    17.69,    16.33,    18.49
      236.0,      18.14,    20.15,    17.67,    16.30,    18.42
      237.0,      18.09,    20.09,    17.66,    16.27,    18.36
      238.0,      18.05,    20.03,    17.64,    16.24,    18.29
      239.0,      18.01,    19.97,    17.62,    16.21,    18.22
      240.0,      17.96,    19.91,    17.60,    16.18,    18.16
      241.0,      17.92,    19.85,    17.58,    16.15,    18.10
      242.0,      17.88,    19.79,    17.57,    16.13,    18.03
      243.0,      17.84,    19.73,    17.55,    16.10,    17.97
      244.0,      17.79,    19.67,    17.53,    16.07,    17.90
      245.0,      17.75,    19.61,    17.51,    16.04,    17.84
      246.0,      17.71,    19.55,    17.49,    16.01,    17.78
      247.0,      17.67,    19.49,    17.48,    15.99,    17.71
      248.0,      17.63,    19.43,    17.46,    15.96,    17.65
      249.0,      17.58,    19.37,    17.44,    15.93,    17.59
      250.0,      17.54,    19.32,    17.42,    15.90,    17.53
      251.0,      17.50,    19.26,    17.41,    15.87,    17.47
      252.0,      17.46,    19.20,    17.39,    15.85,    17.40
      253.0,      17.42,    19.14,    17.37,    15.82,    17.34
      254.0,      17.38,    19.08,    17.35,    15.79,    17.28
      255.0,      17.34,    19.03,    17.33,    15.76,    17.22
      256.0,      17.30,    18.97,    17.32,    15.74,    17.16
      257.0,      17.26,    18.91,    17.30,    15.71,    17.10
      258.0,      17.22,    18.86,    17.28,    15.68,    17.04
      259.0,      17.18,    18.80,    17.26,    15.66,    16.98
      260.0,      17.14,    18.74,    17.25,    15.63,    16.92
      261.0,      17.10,    18.69,    17.23,    15.60,    16.87
      262.0,      17.06,    18.63,    17.21,    15.57,    16.81
      263.0,      17.02,    18.57,    17.20,    15.55,    16.75
      264.0,      16.98,    18.52,    17.18,    15.52,    16.69
      265.0,      16.94,    18.46,    17.16,    15.49,    16.63
      266.0,      16.90,    18.40,    17.14,    15.47,    16.58
      267.0,      16.86,    18.35,    17.13,    15.44,    16.52
      268.0,      16.82,    18.29,    17.11,    15.41,    16.46
      269.0,      16.78,    18.24,    17.09,    15.38,    16.41
      270.0,      16.74,    18.18,    17.07,    15.36,    16.35
      271.0,      16.70,    18.13,    17.06,    15.33,    16.29
      272.0,      16.66,    18.07,    17.04,    15.30,    16.24
      273.0,      16.63,    18.02,    17.02,    15.28,    16.18
      274.0,      16.59,    17.97,    17.01,    15.25,    16.13
      275.0,      16.55,    17.91,    16.99,    15.23,    16.07
      276.0,      16.51,    17.86,    16.97,    15.20,    16.02
      277.0,      16.47,    17.80,    16.95,    15.17,    15.96
      278.0,      16.44,    17.75,    16.94,    15.15,    15.91
      279.0,      16.40,    17.70,    16.92,    15.12,    15.85
      280.0,      16.36,    17.64,    16.90,    15.09,    15.80
      281.0,      16.32,    17.59,    16.89,    15.07,    15.75
      282.0,      16.28,    17.54,    16.87,    15.04,    15.69
      283.0,      16.25,    17.48,    16.85,    15.02,    15.64
      284.0,      16.21,    17.43,    16.84,    14.99,    15.59
      285.0,      16.17,    17.38,    16.82,    14.96,    15.53
      286.0,      16.14,    17.33,    16.80,    14.94,    15.48
      287.0,      16.10,    17.27,    16.78,    14.91,    15.43
      288.0,      16.06,    17.22,    16.77,    14.89,    15.38
      289.0,      16.03,    17.17,    16.75,    14.86,    15.32
      290.0,      15.99,    17.12,    16.73,    14.83,    15.27
      291.0,      15.95,    17.07,    16.72,    14.81,    15.22
      292.0,      15.92,    17.02,    16.70,    14.78,    15.17
      293.0,      15.88,    16.96,    16.68,    14.76,    15.12
      294.0,      15.85,    16.91,    16.67,    14.73,    15.07
      295.0,      15.81,    16.86,    16.65,    14.71,    15.02
      296.0,      15.77,    16.81,    16.63,    14.68,    14.97
      297.0,      15.74,    16.76,    16.62,    14.65,    14.92
      298.0,      15.70,    16.71,    16.60,    14.63,    14.87
      299.0,      15.67,    16.66,    16.58,    14.60,    14.82
      300.0,      15.63,    16.61,    16.57,    14.58,    14.77
      301.0,      15.60,    16.56,    16.55,    14.55,    14.72
      302.0,      15.56,    16.51,    16.53,    14.53,    14.67
      303.0,      15.53,    16.46,    16.52,    14.50,    14.62
      304.0,      15.49,    16.41,    16.50,    14.48,    14.57
      305.0,      15.46,    16.36,    16.48,    14.45,    14.52
      306.0,      15.42,    16.31,    16.47,    14.43,    14.48
      307.0,      15.39,    16.26,    16.45,    14.40,    14.43
      308.0,      15.35,    16.21,    16.43,    14.38,    14.38
      309.0,      15.32,    16.16,    16.42,    14.35,    14.33
      310.0,      15.28,    16.12,    16.40,    14.33,    14.29
