Radius (km), Mean (m/s), NE (m/s), SE (m/s), SW (m/s), NW (m/s)
        0.0,       0.00,     0.00,     0.00,     0.00,     0.00
        1.0,       1.35,     1.31,     1.39,     1.55,     1.16
        2.0,       2.63,     2.58,     2.68,     2.87,     2.38
        3.0,       3.88,     3.83,     3.93,     4.12,     3.62
        4.0,       5.11,     5.08,     5.17,     5.33,     4.87
        5.0,       6.34,     6.32,     6.39,     6.50,     6.13
        6.0,       7.55,     7.55,     7.60,     7.65,     7.41
        7.0,       8.76,     8.78,     8.80,     8.78,     8.69
        8.0,       9.96,    10.00,     9.98,     9.89,     9.97
        9.0,      11.16,    11.22,    11.17,    10.99,    11.27
       10.0,      12.35,    12.44,    12.34,    12.07,    12.56
       11.0,      13.54,    13.65,    13.51,    13.14,    13.87
       12.0,      14.73,    14.87,    14.67,    14.20,    15.17
       13.0,      15.91,    16.08,    15.83,    15.25,    16.48
       14.0,      17.09,    17.28,    16.99,    16.30,    17.80
       15.0,      18.27,    18.49,    18.14,    17.33,    19.11
       16.0,      19.44,    19.70,    19.28,    18.36,    20.43
       17.0,      20.61,    20.90,    20.42,    19.38,    21.76
       18.0,      21.78,    22.10,    21.56,    20.39,    23.08
       19.0,      22.95,    23.30,    22.70,    21.40,    24.41
       20.0,      24.12,    24.50,    23.83,    22.41,    25.74
       21.0,      25.29,    25.70,    24.97,    23.40,    27.08
       22.0,      26.49,    26.95,    26.15,    24.40,    28.47
       23.0,      27.78,    28.30,    27.43,    25.41,    29.98
       24.0,      29.21,    29.82,    28.88,    26.47,    31.68
       25.0,      30.84,    31.54,    30.54,    27.63,    33.63
       26.0,      32.66,    33.48,    32.41,    28.93,    35.84
       27.0,      34.65,    35.57,    34.43,    30.36,    38.25
       28.0,      36.73,    37.75,    36.53,    31.90,    40.76
       29.0,      38.79,    39.87,    38.57,    33.49,    43.23
       30.0,      40.70,    41.82,    40.43,    35.04,    45.50
       31.0,      42.33,    43.46,    41.99,    36.46,    47.42
       32.0,      43.60,    44.72,    43.16,    37.66,    48.88
       33.0,      44.44,    45.53,    43.88,    38.55,    49.81
       34.0,      44.84,    45.89,    44.15,    39.11,    50.20
       35.0,      44.82,    45.83,    44.01,    39.33,    50.09
       36.0,      44.44,    45.43,    43.54,    39.22,    49.57
       37.0,      43.80,    44.78,    42.81,    38.86,    48.73
       38.0,      42.98,    43.98,    41.94,    38.30,    47.71
       39.0,      42.09,    43.11,    41.01,    37.63,    46.61
       40.0,      41.18,    42.23,    40.08,    36.92,    45.50
       41.0,      40.31,    41.40,    39.19,    36.21,    44.44
       42.0,      39.48,    40.61,    38.35,    35.54,    43.43
       43.0,      38.70,    39.86,    37.55,    34.92,    42.48
       44.0,      37.96,    39.15,    36.79,    34.33,    41.58
       45.0,      37.25,    38.46,    36.05,    33.77,    40.70
       46.0,      36.56,    37.79,    35.35,    33.24,    39.87
       47.0,      35.90,    37.16,    34.67,    32.72,    39.06
       48.0,      35.26,    36.54,    34.01,    32.22,    38.28
       49.0,      34.65,    35.95,    33.38,    31.73,    37.54
       50.0,      34.06,    35.38,    32.78,    31.27,    36.82
       51.0,      33.49,    34.84,    32.20,    30.82,    36.13
       52.0,      32.95,    34.31,    31.64,    30.38,    35.46
       53.0,      32.42,    33.80,    31.10,    29.96,    34.82
       54.0,      31.92,    33.32,    30.58,    29.56,    34.21
       55.0,      31.43,    32.85,    30.08,    29.17,    33.61
       56.0,      30.96,    32.39,    29.60,    28.79,    33.05
       57.0,      30.51,    31.96,    29.14,    28.43,    32.50
       58.0,      30.07,    31.54,    28.70,    28.07,    31.97
       59.0,      29.65,    31.13,    28.27,    27.73,    31.46
       60.0,      29.25,    30.74,    27.86,    27.41,    30.97
       61.0,      28.86,    30.37,    27.46,    27.09,    30.50
       62.0,      28.48,    30.01,    27.08,    26.78,    30.05
       63.0,      28.12,    29.66,    26.71,    26.48,    29.62
       64.0,      27.77,    29.32,    26.36,    26.20,    29.20
       65.0,      27.43,    29.00,    26.02,    25.92,    28.79
       66.0,      27.11,    28.69,    25.69,    25.65,    28.40
       67.0,      26.80,    28.39,    25.38,    25.39,    28.03
       68.0,      26.49,    28.10,    25.07,    25.14,    27.67
       69.0,      26.20,    27.82,    24.78,    24.89,    27.32
       70.0,      25.92,    27.55,    24.50,    24.66,    26.99
       71.0,      25.65,    27.29,    24.23,    24.43,    26.67
       72.0,      25.39,    27.04,    23.97,    24.21,    26.36
       73.0,      25.14,    26.80,    23.72,    23.99,    26.06
       74.0,      24.90,    26.57,    23.47,    23.78,    25.77
       75.0,      24.66,    26.34,    23.24,    23.58,    25.49
       76.0,      24.44,    26.12,    23.01,    23.38,    25.22
       77.0,      24.22,    25.91,    22.80,    23.19,    24.97
       78.0,      24.01,    25.71,    22.59,    23.01,    24.72
       79.0,      23.80,    25.52,    22.39,    22.83,    24.48
       80.0,      23.61,    25.33,    22.19,    22.66,    24.25
       81.0,      23.42,    25.15,    22.00,    22.49,    24.03
       82.0,      23.23,    24.97,    21.82,    22.32,    23.81
       83.0,      23.05,    24.80,    21.65,    22.16,    23.60
       84.0,      22.88,    24.63,    21.48,    22.01,    23.40
       85.0,      22.72,    24.48,    21.32,    21.86,    23.21
       86.0,      22.55,    24.32,    21.16,    21.71,    23.03
       87.0,      22.40,    24.17,    21.01,    21.57,    22.85
       88.0,      22.25,    24.03,    20.86,    21.43,    22.67
       89.0,      22.10,    23.89,    20.72,    21.29,    22.51
       90.0,      21.96,    23.76,    20.59,    21.16,    22.34
       91.0,      21.83,    23.63,    20.46,    21.03,    22.19
       92.0,      21.69,    23.50,    20.33,    20.91,    22.04
       93.0,      21.57,    23.38,    20.21,    20.78,    21.89
       94.0,      21.44,    23.26,    20.09,    20.67,    21.75
       95.0,      21.32,    23.14,    19.97,    20.55,    21.62
       96.0,      21.20,    23.03,    19.86,    20.44,    21.48
       97.0,      21.09,    22.93,    19.76,    20.33,    21.36
       98.0,      20.98,    22.82,    19.65,    20.22,    21.23
       99.0,      20.87,    22.72,    19.55,    20.11,    21.12
      100.0,      20.77,    22.62,    19.45,    20.01,    21.00
      101.0,      20.67,    22.53,    19.36,    19.91,    20.89
      102.0,      20.57,    22.43,    19.27,    19.81,    20.78
      103.0,      20.48,    22.34,    19.18,    19.71,    20.68
      104.0,      20.39,    22.26,    19.10,    19.62,    20.58
      105.0,      20.30,    22.17,    19.01,    19.53,    20.48
      106.0,      20.21,    22.09,    18.94,    19.44,    20.38
      107.0,      20.13,    22.01,    18.86,    19.35,    20.29
      108.0,      20.04,    21.93,    18.78,    19.26,    20.20
      109.0,      19.96,    21.86,    18.71,    19.17,    20.12
      110.0,      19.89,    21.78,    18.64,    19.09,    20.03
      111.0,      19.81,    21.71,    18.57,    19.01,    19.95
      112.0,      19.74,    21.64,    18.50,    18.93,    19.87
      113.0,      19.67,    21.57,    18.44,    18.85,    19.80
      114.0,      19.60,    21.51,    18.38,    18.77,    19.72
      115.0,      19.53,    21.44,    18.32,    18.70,    19.65
      116.0,      19.46,    21.38,    18.26,    18.62,    19.58
      117.0,      19.39,    21.32,    18.20,    18.55,    19.51
      118.0,      19.33,    21.26,    18.14,    18.47,    19.45
      119.0,      19.27,    21.20,    18.09,    18.40,    19.38
      120.0,      19.21,    21.14,    18.04,    18.33,    19.32
      121.0,      19.15,    21.09,    17.99,    18.26,    19.26
      122.0,      19.09,    21.03,    17.94,    18.20,    19.20
      123.0,      19.03,    20.98,    17.89,    18.13,    19.14
      124.0,      18.98,    20.93,    17.84,    18.06,    19.09
      125.0,      18.92,    20.87,    17.79,    18.00,    19.03
      126.0,      18.87,    20.82,    17.75,    17.93,    18.98
      127.0,      18.82,    20.78,    17.70,    17.87,    18.93
      128.0,      18.77,    20.73,    17.66,    17.81,    18.88
      129.0,      18.72,    20.68,    17.62,    17.75,    18.83
      130.0,      18.67,    20.64,    17.58,    17.69,    18.78
      131.0,      18.62,    20.59,    17.54,    17.63,    18.73
      132.0,      18.57,    20.55,    17.50,    17.57,    18.68
      133.0,      18.53,    20.50,    17.46,    17.51,    18.64
      134.0,      18.48,    20.46,    17.42,    17.45,    18.60
      135.0,      18.44,    20.42,    17.39,    17.39,    18.55
      136.0,      18.39,    20.38,    17.35,    17.34,    18.51
      137.0,      18.35,    20.34,    17.32,    17.28,    18.47
      138.0,      18.31,    20.30,    17.28,    17.23,    18.43
      139.0,      18.27,    20.26,    17.25,    17.17,    18.39
      140.0,      18.23,    20.22,    17.22,    17.12,    18.35
      141.0,      18.19,    20.18,    17.18,    17.06,    18.31
      142.0,      18.15,    20.14,    17.15,    17.01,    18.27
      143.0,      18.11,    20.11,    17.12,    16.96,    18.24
      144.0,      18.07,    20.07,    17.09,    16.91,    18.20
      145.0,      18.03,    20.03,    17.06,    16.86,    18.17
      146.0,      17.99,    20.00,    17.03,    16.80,    18.13
      147.0,      17.96,    19.97,    17.00,    16.75,    18.10
      148.0,      17.92,    19.93,    16.97,    16.70,    18.07
      149.0,      17.88,    19.90,    16.95,    16.65,    18.03
      150.0,      17.85,    19.86,    16.92,    16.61,    18.00
      151.0,      17.81,    19.83,    16.89,    16.56,    17.97
      152.0,      17.78,    19.80,    16.87,    16.51,    17.94
      153.0,      17.74,    19.77,    16.84,    16.46,    17.91
      154.0,      17.71,    19.73,    16.81,    16.41,    17.88
      155.0,      17.68,    19.70,    16.79,    16.36,    17.85
      156.0,      17.64,    19.67,    16.76,    16.32,    17.82
      157.0,      17.61,    19.64,    16.74,    16.27,    17.79
      158.0,      17.58,    19.61,    16.71,    16.22,    17.76
      159.0,      17.55,    19.58,    16.69,    16.18,    17.73
      160.0,      17.51,    19.55,    16.67,    16.13,    17.70
      161.0,      17.48,    19.52,    16.64,    16.09,    17.68
      162.0,      17.45,    19.49,    16.62,    16.04,    17.65
      163.0,      17.42,    19.46,    16.60,    16.00,    17.62
      164.0,      17.39,    19.43,    16.57,    15.95,    17.59
      165.0,      17.36,    19.41,    16.55,    15.91,    17.57
      166.0,      17.33,    19.38,    16.53,    15.86,    17.54
      167.0,      17.30,    19.35,    16.51,    15.82,    17.52
      168.0,      17.27,    19.32,    16.49,    15.78,    17.49
      169.0,      17.24,    19.30,    16.47,    15.73,    17.47
      170.0,      17.21,    19.27,    16.44,    15.69,    17.44
      171.0,      17.18,    19.24,    16.42,    15.65,    17.42
      172.0,      17.15,    19.21,    16.40,    15.61,    17.39
      173.0,      17.13,    19.19,    16.38,    15.56,    17.37
      174.0,      17.10,    19.16,    16.36,    15.52,    17.34
      175.0,      17.07,    19.13,    16.34,    15.48,    17.32
      176.0,      17.04,    19.11,    16.32,    15.44,    17.30
      177.0,      17.01,    19.08,    16.30,    15.40,    17.27
      178.0,      16.99,    19.06,    16.28,    15.35,    17.25
      179.0,      16.96,    19.03,    16.26,    15.31,    17.23
      180.0,      16.93,    19.01,    16.24,    15.27,    17.21
      181.0,      16.90,    18.98,    16.22,    15.23,    17.18
      182.0,      16.88,    18.95,    16.20,    15.19,    17.16
      183.0,      16.85,    18.93,    16.19,    15.15,    17.14
      184.0,      16.82,    18.90,    16.17,    15.11,    17.12
      185.0,      16.80,    18.88,    16.15,    15.07,    17.09
      186.0,      16.77,    18.85,    16.13,    15.03,    17.07
      187.0,      16.75,    18.83,    16.11,    14.99,    17.05
      188.0,      16.72,    18.81,    16.09,    14.95,    17.03
      189.0,      16.69,    18.78,    16.07,    14.91,    17.01
      190.0,      16.67,    18.76,    16.06,    14.87,    16.99
      191.0,      16.64,    18.73,    16.04,    14.83,    16.97
      192.0,      16.62,    18.71,    16.02,    14.79,    16.94
      193.0,      16.59,    18.68,    16.00,    14.76,    16.92
      194.0,      16.57,    18.66,    15.98,    14.72,    16.90
      195.0,      16.54,    18.64,    15.97,    14.68,    16.88
      196.0,      16.52,    18.61,    15.95,    14.64,    16.86
      197.0,      16.49,    18.59,    15.93,    14.60,    16.84
      198.0,      16.47,    18.57,    15.91,    14.56,    16.82
      199.0,      16.44,    18.54,    15.90,    14.53,    16.80
      200.0,      16.42,    18.52,    15.88,    14.49,    16.78
      201.0,      16.39,    18.50,    15.86,    14.45,    16.76
      202.0,      16.37,    18.47,    15.84,    14.41,    16.74
      203.0,      16.34,    18.45,    15.83,    14.38,    16.72
      204.0,      16.32,    18.43,    15.81,    14.34,    16.70
      205.0,      16.29,    18.40,    15.79,    14.30,    16.68
      206.0,      16.27,    18.38,    15.78,    14.26,    16.66
      207.0,      16.25,    18.36,    15.76,    14.23,    16.64
      208.0,      16.22,    18.33,    15.74,    14.19,    16.62
      209.0,      16.20,    18.31,    15.73,    14.15,    16.60
      210.0,      16.17,    18.29,    15.71,    14.12,    16.58
      211.0,      16.15,    18.27,    15.69,    14.08,    16.56
      212.0,      16.13,    18.24,    15.68,    14.04,    16.54
      213.0,      16.10,    18.22,    15.66,    14.01,    16.52
      214.0,      16.08,    18.20,    15.64,    13.97,    16.51
      215.0,      16.06,    18.18,    15.63,    13.94,    16.49
      216.0,      16.03,    18.15,    15.61,    13.90,    16.47
      217.0,      16.01,    18.13,    15.59,    13.87,    16.45
      218.0,      15.99,    18.11,    15.58,    13.83,    16.43
      219.0,      15.96,    18.09,    15.56,    13.79,    16.41
      220.0,      15.94,    18.07,    15.55,    13.76,    16.39
      221.0,      15.92,    18.04,    15.53,    13.72,    16.37
      222.0,      15.89,    18.02,    15.51,    13.69,    16.35
      223.0,      15.87,    18.00,    15.50,    13.65,    16.34
      224.0,      15.85,    17.98,    15.48,    13.62,    16.32
      225.0,      15.83,    17.96,    15.47,    13.58,    16.30
      226.0,      15.80,    17.93,    15.45,    13.55,    16.28
      227.0,      15.78,    17.91,    15.43,    13.51,    16.26
      228.0,      15.76,    17.89,    15.42,    13.48,    16.24
      229.0,      15.73,    17.87,    15.40,    13.44,    16.22
      230.0,      15.71,    17.85,    15.39,    13.41,    16.21
      231.0,      15.69,    17.83,    15.37,    13.38,    16.19
      232.0,      15.67,    17.80,    15.35,    13.34,    16.17
      233.0,      15.64,    17.78,    15.34,    13.31,    16.15
      234.0,      15.62,    17.76,    15.32,    13.27,    16.13
      235.0,      15.60,    17.74,    15.31,    13.24,    16.11
      236.0,      15.58,    17.72,    15.29,    13.21,    16.10
      237.0,      15.56,    17.70,    15.28,    13.17,    16.08
      238.0,      15.53,    17.68,    15.26,    13.14,    16.06
      239.0,      15.51,    17.65,    15.25,    13.11,    16.04
      240.0,      15.49,    17.63,    15.23,    13.07,    16.02
      241.0,      15.47,    17.61,    15.21,    13.04,    16.01
      242.0,      15.45,    17.59,    15.20,    13.01,    15.99
      243.0,      15.42,    17.57,    15.18,    12.97,    15.97
      244.0,      15.40,    17.55,    15.17,    12.94,    15.95
      245.0,      15.38,    17.53,    15.15,    12.91,    15.93
      246.0,      15.36,    17.51,    15.14,    12.87,    15.92
      247.0,      15.34,    17.48,    15.12,    12.84,    15.90
      248.0,      15.31,    17.46,    15.11,    12.81,    15.88
      249.0,      15.29,    17.44,    15.09,    12.78,    15.86
      250.0,      15.27,    17.42,    15.08,    12.74,    15.84
      251.0,      15.25,    17.40,    15.06,    12.71,    15.83
      252.0,      15.23,    17.38,    15.05,    12.68,    15.81
      253.0,      15.21,    17.36,    15.03,    12.65,    15.79
      254.0,      15.19,    17.34,    15.01,    12.61,    15.77
      255.0,      15.16,    17.32,    15.00,    12.58,    15.76
      256.0,      15.14,    17.30,    14.98,    12.55,    15.74
      257.0,      15.12,    17.28,    14.97,    12.52,    15.72
      258.0,      15.10,    17.26,    14.95,    12.49,    15.70
      259.0,      15.08,    17.23,    14.94,    12.45,    15.69
      260.0,      15.06,    17.21,    14.92,    12.42,    15.67
      261.0,      15.04,    17.19,    14.91,    12.39,    15.65
      262.0,      15.02,    17.17,    14.89,    12.36,    15.63
      263.0,      14.99,    17.15,    14.88,    12.33,    15.62
      264.0,      14.97,    17.13,    14.86,    12.30,    15.60
      265.0,      14.95,    17.11,    14.85,    12.27,    15.58
      266.0,      14.93,    17.09,    14.83,    12.23,    15.56
      267.0,      14.91,    17.07,    14.82,    12.20,    15.55
      268.0,      14.89,    17.05,    14.80,    12.17,    15.53
      269.0,      14.87,    17.03,    14.79,    12.14,    15.51
      270.0,      14.85,    17.01,    14.77,    12.11,    15.50
      271.0,      14.83,    16.99,    14.76,    12.08,    15.48
      272.0,      14.81,    16.97,    14.75,    12.05,    15.46
      273.0,      14.79,    16.95,    14.73,    12.02,    15.44
      274.0,      14.76,    16.93,    14.72,    11.99,    15.43
      275.0,      14.74,    16.91,    14.70,    11.96,    15.41
      276.0,      14.72,    16.89,    14.69,    11.93,    15.39
      277.0,      14.70,    16.87,    14.67,    11.90,    15.38
      278.0,      14.68,    16.85,    14.66,    11.87,    15.36
      279.0,      14.66,    16.83,    14.64,    11.84,    15.34
      280.0,      14.64,    16.81,    14.63,    11.81,    15.32
      281.0,      14.62,    16.79,    14.61,    11.78,    15.31
      282.0,      14.60,    16.77,    14.60,    11.75,    15.29
      283.0,      14.58,    16.75,    14.58,    11.72,    15.27
      284.0,      14.56,    16.73,    14.57,    11.69,    15.26
      285.0,      14.54,    16.71,    14.55,    11.66,    15.24
      286.0,      14.52,    16.69,    14.54,    11.63,    15.22
      287.0,      14.50,    16.67,    14.52,    11.60,    15.21
      288.0,      14.48,    16.65,    14.51,    11.57,    15.19
      289.0,      14.46,    16.63,    14.50,    11.54,    15.17
      290.0,      14.44,    16.61,    14.48,    11.51,    15.16
      291.0,      14.42,    16.59,    14.47,    11.48,    15.14
      292.0,      14.40,    16.57,    14.45,    11.45,    15.12
      293.0,      14.38,    16.55,    14.44,    11.42,    15.11
      294.0,      14.36,    16.53,    14.42,    11.39,    15.09
      295.0,      14.34,    16.51,    14.41,    11.37,    15.07
      296.0,      14.32,    16.49,    14.39,    11.34,    15.06
      297.0,      14.30,    16.47,    14.38,    11.31,    15.04
      298.0,      14.28,    16.45,    14.37,    11.28,    15.02
      299.0,      14.26,    16.43,    14.35,    11.25,    15.01
      300.0,      14.24,    16.41,    14.34,    11.22,    14.99
      301.0,      14.22,    16.39,    14.32,    11.19,    14.97
      302.0,      14.20,    16.37,    14.31,    11.16,    14.96
      303.0,      14.18,    16.35,    14.29,    11.14,    14.94
      304.0,      14.16,    16.33,    14.28,    11.11,    14.92
      305.0,      14.14,    16.31,    14.27,    11.08,    14.91
      306.0,      14.12,    16.29,    14.25,    11.05,    14.89
      307.0,      14.10,    16.27,    14.24,    11.02,    14.87
      308.0,      14.08,    16.25,    14.22,    11.00,    14.86
      309.0,      14.06,    16.24,    14.21,    10.97,    14.84
      310.0,      14.04,    16.22,    14.19,    10.94,    14.82
