Radius (km), Mean (m/s), NE (m/s), SE (m/s), SW (m/s), NW (m/s)
        0.0,       0.00,     0.00,     0.00,     0.00,     0.00
        1.0,       0.96,     0.85,     1.08,     1.10,     0.81
        2.0,       1.96,     1.81,     2.13,     2.17,     1.74
        3.0,       2.98,     2.80,     3.18,     3.22,     2.73
        4.0,       4.02,     3.83,     4.23,     4.27,     3.75
        5.0,       5.06,     4.88,     5.27,     5.31,     4.80
        6.0,       6.12,     5.95,     6.31,     6.34,     5.87
        7.0,       7.18,     7.03,     7.35,     7.37,     6.96
        8.0,       8.25,     8.13,     8.38,     8.40,     8.06
        9.0,       9.32,     9.24,     9.42,     9.42,     9.19
       10.0,      10.39,    10.36,    10.45,    10.45,    10.32
       11.0,      11.48,    11.49,    11.48,    11.47,    11.47
       12.0,      12.56,    12.63,    12.51,    12.48,    12.62
       13.0,      13.65,    13.77,    13.54,    13.50,    13.79
       14.0,      14.74,    14.93,    14.57,    14.51,    14.97
       15.0,      15.84,    16.09,    15.59,    15.53,    16.15
       16.0,      16.94,    17.26,    16.62,    16.54,    17.35
       17.0,      18.04,    18.43,    17.64,    17.55,    18.55
       18.0,      19.15,    19.61,    18.67,    18.56,    19.76
       19.0,      20.26,    20.79,    19.69,    19.56,    20.98
       20.0,      21.37,    21.98,    20.71,    20.57,    22.20
       21.0,      22.48,    23.18,    21.74,    21.57,    23.43
       22.0,      23.59,    24.38,    22.76,    22.58,    24.66
       23.0,      24.71,    25.58,    23.78,    23.58,    25.91
       24.0,      25.83,    26.79,    24.80,    24.58,    27.15
       25.0,      26.95,    28.01,    25.82,    25.58,    28.41
       26.0,      28.08,    29.23,    26.84,    26.58,    29.66
       27.0,      29.20,    30.45,    27.86,    27.58,    30.93
       28.0,      30.33,    31.67,    28.88,    28.58,    32.20
       29.0,      31.46,    32.90,    29.90,    29.57,    33.47
       30.0,      32.62,    34.15,    30.95,    30.57,    34.80
       31.0,      33.85,    35.46,    32.10,    31.60,    36.23
       32.0,      35.21,    36.88,    33.40,    32.71,    37.85
       33.0,      36.76,    38.47,    34.90,    33.96,    39.72
       34.0,      38.52,    40.23,    36.61,    35.39,    41.84
       35.0,      40.46,    42.17,    38.49,    37.00,    44.18
       36.0,      42.51,    44.21,    40.45,    38.76,    46.63
       37.0,      44.56,    46.27,    42.38,    40.57,    49.05
       38.0,      46.48,    48.22,    44.13,    42.31,    51.27
       39.0,      48.14,    49.96,    45.60,    43.87,    53.14
       40.0,      49.42,    51.37,    46.67,    45.11,    54.54
       41.0,      50.26,    52.40,    47.28,    45.95,    55.40
       42.0,      50.61,    53.00,    47.44,    46.33,    55.69
       43.0,      50.52,    53.19,    47.16,    46.26,    55.46
       44.0,      50.03,    53.02,    46.53,    45.79,    54.79
       45.0,      49.25,    52.57,    45.64,    44.97,    53.80
       46.0,      48.27,    51.93,    44.60,    43.93,    52.61
       47.0,      47.19,    51.18,    43.49,    42.76,    51.33
       48.0,      46.10,    50.41,    42.38,    41.56,    50.06
       49.0,      45.05,    49.66,    41.32,    40.38,    48.84
       50.0,      44.06,    48.95,    40.33,    39.27,    47.69
       51.0,      43.12,    48.27,    39.38,    38.23,    46.60
       52.0,      42.23,    47.63,    38.48,    37.26,    45.57
       53.0,      41.38,    47.00,    37.62,    36.33,    44.57
       54.0,      40.55,    46.39,    36.79,    35.43,    43.61
       55.0,      39.76,    45.79,    35.98,    34.57,    42.68
       56.0,      38.99,    45.21,    35.22,    33.75,    41.79
       57.0,      38.25,    44.65,    34.48,    32.95,    40.94
       58.0,      37.54,    44.10,    33.76,    32.19,    40.11
       59.0,      36.85,    43.56,    33.08,    31.45,    39.32
       60.0,      36.19,    43.04,    32.42,    30.74,    38.55
       61.0,      35.55,    42.53,    31.79,    30.06,    37.82
       62.0,      34.93,    42.03,    31.18,    29.41,    37.11
       63.0,      34.34,    41.55,    30.59,    28.78,    36.43
       64.0,      33.76,    41.07,    30.03,    28.17,    35.77
       65.0,      33.21,    40.61,    29.49,    27.59,    35.14
       66.0,      32.67,    40.16,    28.97,    27.03,    34.53
       67.0,      32.16,    39.73,    28.47,    26.49,    33.94
       68.0,      31.66,    39.30,    27.98,    25.97,    33.38
       69.0,      31.18,    38.88,    27.52,    25.47,    32.84
       70.0,      30.71,    38.48,    27.07,    24.99,    32.31
       71.0,      30.27,    38.08,    26.64,    24.53,    31.81
       72.0,      29.83,    37.70,    26.23,    24.08,    31.32
       73.0,      29.41,    37.32,    25.83,    23.65,    30.85
       74.0,      29.01,    36.95,    25.45,    23.24,    30.40
       75.0,      28.62,    36.59,    25.08,    22.84,    29.97
       76.0,      28.25,    36.24,    24.73,    22.46,    29.55
       77.0,      27.88,    35.90,    24.39,    22.09,    29.15
       78.0,      27.53,    35.57,    24.06,    21.74,    28.76
       79.0,      27.19,    35.25,    23.74,    21.40,    28.38
       80.0,      26.86,    34.93,    23.44,    21.07,    28.02
       81.0,      26.55,    34.62,    23.14,    20.75,    27.67
       82.0,      26.24,    34.32,    22.86,    20.45,    27.34
       83.0,      25.94,    34.02,    22.59,    20.15,    27.01
       84.0,      25.66,    33.73,    22.33,    19.87,    26.70
       85.0,      25.38,    33.45,    22.07,    19.60,    26.40
       86.0,      25.11,    33.18,    21.83,    19.34,    26.11
       87.0,      24.86,    32.91,    21.60,    19.08,    25.83
       88.0,      24.60,    32.65,    21.37,    18.84,    25.56
       89.0,      24.36,    32.39,    21.15,    18.60,    25.30
       90.0,      24.13,    32.14,    20.94,    18.38,    25.05
       91.0,      23.90,    31.90,    20.74,    18.16,    24.81
       92.0,      23.68,    31.66,    20.55,    17.95,    24.57
       93.0,      23.47,    31.43,    20.36,    17.74,    24.35
       94.0,      23.26,    31.20,    20.18,    17.55,    24.13
       95.0,      23.06,    30.98,    20.01,    17.36,    23.92
       96.0,      22.87,    30.76,    19.84,    17.18,    23.72
       97.0,      22.69,    30.54,    19.68,    17.00,    23.52
       98.0,      22.50,    30.34,    19.52,    16.83,    23.33
       99.0,      22.33,    30.13,    19.37,    16.67,    23.15
      100.0,      22.16,    29.93,    19.22,    16.51,    22.97
      101.0,      21.99,    29.74,    19.08,    16.36,    22.80
      102.0,      21.83,    29.55,    18.95,    16.21,    22.64
      103.0,      21.68,    29.36,    18.82,    16.07,    22.48
      104.0,      21.53,    29.18,    18.69,    15.93,    22.32
      105.0,      21.38,    29.00,    18.57,    15.80,    22.17
      106.0,      21.24,    28.82,    18.45,    15.67,    22.03
      107.0,      21.11,    28.65,    18.34,    15.54,    21.89
      108.0,      20.97,    28.49,    18.23,    15.42,    21.75
      109.0,      20.84,    28.32,    18.12,    15.31,    21.62
      110.0,      20.72,    28.16,    18.02,    15.19,    21.50
      111.0,      20.60,    28.00,    17.92,    15.09,    21.37
      112.0,      20.48,    27.85,    17.82,    14.98,    21.26
      113.0,      20.36,    27.70,    17.73,    14.88,    21.14
      114.0,      20.25,    27.55,    17.64,    14.78,    21.03
      115.0,      20.14,    27.40,    17.55,    14.69,    20.92
      116.0,      20.04,    27.26,    17.47,    14.59,    20.82
      117.0,      19.93,    27.12,    17.39,    14.50,    20.72
      118.0,      19.83,    26.98,    17.31,    14.42,    20.62
      119.0,      19.73,    26.85,    17.23,    14.33,    20.52
      120.0,      19.64,    26.72,    17.16,    14.25,    20.43
      121.0,      19.55,    26.59,    17.09,    14.17,    20.34
      122.0,      19.46,    26.46,    17.02,    14.10,    20.26
      123.0,      19.37,    26.34,    16.95,    14.02,    20.17
      124.0,      19.28,    26.22,    16.88,    13.95,    20.09
      125.0,      19.20,    26.10,    16.82,    13.88,    20.01
      126.0,      19.12,    25.98,    16.76,    13.81,    19.93
      127.0,      19.04,    25.86,    16.70,    13.75,    19.86
      128.0,      18.96,    25.75,    16.64,    13.68,    19.78
      129.0,      18.89,    25.64,    16.58,    13.62,    19.71
      130.0,      18.82,    25.53,    16.53,    13.56,    19.64
      131.0,      18.74,    25.42,    16.48,    13.50,    19.58
      132.0,      18.67,    25.31,    16.43,    13.45,    19.51
      133.0,      18.61,    25.21,    16.38,    13.39,    19.45
      134.0,      18.54,    25.11,    16.33,    13.34,    19.39
      135.0,      18.47,    25.01,    16.28,    13.28,    19.33
      136.0,      18.41,    24.91,    16.23,    13.23,    19.27
      137.0,      18.35,    24.81,    16.19,    13.18,    19.21
      138.0,      18.29,    24.71,    16.14,    13.13,    19.15
      139.0,      18.23,    24.62,    16.10,    13.08,    19.10
      140.0,      18.17,    24.53,    16.06,    13.04,    19.04
      141.0,      18.11,    24.44,    16.02,    12.99,    18.99
      142.0,      18.05,    24.35,    15.98,    12.95,    18.94
      143.0,      18.00,    24.26,    15.94,    12.91,    18.89
      144.0,      17.95,    24.17,    15.90,    12.86,    18.84
      145.0,      17.89,    24.08,    15.87,    12.82,    18.80
      146.0,      17.84,    24.00,    15.83,    12.78,    18.75
      147.0,      17.79,    23.92,    15.80,    12.74,    18.70
      148.0,      17.74,    23.83,    15.76,    12.70,    18.66
      149.0,      17.69,    23.75,    15.73,    12.67,    18.62
      150.0,      17.64,    23.67,    15.70,    12.63,    18.57
      151.0,      17.60,    23.59,    15.66,    12.59,    18.53
      152.0,      17.55,    23.52,    15.63,    12.56,    18.49
      153.0,      17.50,    23.44,    15.60,    12.52,    18.45
      154.0,      17.46,    23.37,    15.57,    12.49,    18.41
      155.0,      17.41,    23.29,    15.54,    12.46,    18.37
      156.0,      17.37,    23.22,    15.51,    12.42,    18.33
      157.0,      17.33,    23.14,    15.48,    12.39,    18.30
      158.0,      17.29,    23.07,    15.46,    12.36,    18.26
      159.0,      17.25,    23.00,    15.43,    12.33,    18.22
      160.0,      17.20,    22.93,    15.40,    12.30,    18.19
      161.0,      17.16,    22.86,    15.38,    12.27,    18.15
      162.0,      17.13,    22.79,    15.35,    12.24,    18.12
      163.0,      17.09,    22.73,    15.32,    12.21,    18.09
      164.0,      17.05,    22.66,    15.30,    12.18,    18.05
      165.0,      17.01,    22.59,    15.27,    12.15,    18.02
      166.0,      16.97,    22.53,    15.25,    12.13,    17.99
      167.0,      16.94,    22.47,    15.23,    12.10,    17.96
      168.0,      16.90,    22.40,    15.20,    12.07,    17.92
      169.0,      16.86,    22.34,    15.18,    12.04,    17.89
      170.0,      16.83,    22.28,    15.16,    12.02,    17.86
      171.0,      16.79,    22.21,    15.13,    11.99,    17.83
      172.0,      16.76,    22.15,    15.11,    11.97,    17.80
      173.0,      16.73,    22.09,    15.09,    11.94,    17.77
      174.0,      16.69,    22.03,    15.07,    11.92,    17.75
      175.0,      16.66,    21.97,    15.05,    11.89,    17.72
      176.0,      16.63,    21.92,    15.03,    11.87,    17.69
      177.0,      16.59,    21.86,    15.01,    11.85,    17.66
      178.0,      16.56,    21.80,    14.98,    11.82,    17.63
      179.0,      16.53,    21.74,    14.96,    11.80,    17.61
      180.0,      16.50,    21.69,    14.94,    11.78,    17.58
      181.0,      16.47,    21.63,    14.92,    11.75,    17.55
      182.0,      16.43,    21.58,    14.90,    11.73,    17.53
      183.0,      16.40,    21.52,    14.89,    11.71,    17.50
      184.0,      16.37,    21.47,    14.87,    11.69,    17.48
      185.0,      16.34,    21.41,    14.85,    11.66,    17.45
      186.0,      16.31,    21.36,    14.83,    11.64,    17.42
      187.0,      16.28,    21.31,    14.81,    11.62,    17.40
      188.0,      16.25,    21.25,    14.79,    11.60,    17.37
      189.0,      16.23,    21.20,    14.77,    11.58,    17.35
      190.0,      16.20,    21.15,    14.75,    11.56,    17.32
      191.0,      16.17,    21.10,    14.74,    11.54,    17.30
      192.0,      16.14,    21.05,    14.72,    11.52,    17.28
      193.0,      16.11,    21.00,    14.70,    11.50,    17.25
      194.0,      16.08,    20.95,    14.68,    11.48,    17.23
      195.0,      16.06,    20.90,    14.67,    11.46,    17.21
      196.0,      16.03,    20.85,    14.65,    11.44,    17.18
      197.0,      16.00,    20.80,    14.63,    11.42,    17.16
      198.0,      15.97,    20.75,    14.61,    11.40,    17.14
      199.0,      15.95,    20.70,    14.60,    11.38,    17.11
      200.0,      15.92,    20.65,    14.58,    11.36,    17.09
      201.0,      15.89,    20.61,    14.56,    11.34,    17.07
      202.0,      15.87,    20.56,    14.55,    11.32,    17.04
      203.0,      15.84,    20.51,    14.53,    11.30,    17.02
      204.0,      15.82,    20.47,    14.51,    11.28,    17.00
      205.0,      15.79,    20.42,    14.50,    11.26,    16.98
      206.0,      15.76,    20.37,    14.48,    11.24,    16.96
      207.0,      15.74,    20.33,    14.46,    11.23,    16.93
      208.0,      15.71,    20.28,    14.45,    11.21,    16.91
      209.0,      15.69,    20.24,    14.43,    11.19,    16.89
      210.0,      15.66,    20.19,    14.42,    11.17,    16.87
      211.0,      15.64,    20.15,    14.40,    11.15,    16.85
      212.0,      15.61,    20.10,    14.38,    11.13,    16.83
      213.0,      15.59,    20.06,    14.37,    11.12,    16.80
      214.0,      15.56,    20.01,    14.35,    11.10,    16.78
      215.0,      15.54,    19.97,    14.34,    11.08,    16.76
      216.0,      15.51,    19.93,    14.32,    11.06,    16.74
      217.0,      15.49,    19.88,    14.31,    11.04,    16.72
      218.0,      15.46,    19.84,    14.29,    11.03,    16.70
      219.0,      15.44,    19.80,    14.28,    11.01,    16.68
      220.0,      15.42,    19.75,    14.26,    10.99,    16.66
      221.0,      15.39,    19.71,    14.25,    10.97,    16.64
      222.0,      15.37,    19.67,    14.23,    10.96,    16.62
      223.0,      15.34,    19.63,    14.21,    10.94,    16.60
      224.0,      15.32,    19.59,    14.20,    10.92,    16.58
      225.0,      15.30,    19.54,    14.18,    10.90,    16.56
      226.0,      15.27,    19.50,    14.17,    10.89,    16.54
      227.0,      15.25,    19.46,    14.15,    10.87,    16.52
      228.0,      15.23,    19.42,    14.14,    10.85,    16.50
      229.0,      15.20,    19.38,    14.12,    10.84,    16.48
      230.0,      15.18,    19.34,    14.11,    10.82,    16.46
      231.0,      15.16,    19.30,    14.10,    10.80,    16.44
      232.0,      15.14,    19.26,    14.08,    10.79,    16.42
      233.0,      15.11,    19.22,    14.07,    10.77,    16.40
      234.0,      15.09,    19.18,    14.05,    10.75,    16.38
      235.0,      15.07,    19.14,    14.04,    10.74,    16.36
      236.0,      15.04,    19.10,    14.02,    10.72,    16.34
      237.0,      15.02,    19.06,    14.01,    10.70,    16.32
      238.0,      15.00,    19.02,    13.99,    10.69,    16.30
      239.0,      14.98,    18.98,    13.98,    10.67,    16.28
      240.0,      14.95,    18.94,    13.96,    10.65,    16.26
      241.0,      14.93,    18.90,    13.95,    10.64,    16.24
      242.0,      14.91,    18.86,    13.94,    10.62,    16.22
      243.0,      14.89,    18.83,    13.92,    10.61,    16.20
      244.0,      14.87,    18.79,    13.91,    10.59,    16.18
      245.0,      14.84,    18.75,    13.89,    10.57,    16.16
      246.0,      14.82,    18.71,    13.88,    10.56,    16.14
      247.0,      14.80,    18.67,    13.86,    10.54,    16.12
      248.0,      14.78,    18.63,    13.85,    10.52,    16.10
      249.0,      14.76,    18.60,    13.84,    10.51,    16.09
      250.0,      14.73,    18.56,    13.82,    10.49,    16.07
      251.0,      14.71,    18.52,    13.81,    10.48,    16.05
      252.0,      14.69,    18.48,    13.79,    10.46,    16.03
      253.0,      14.67,    18.45,    13.78,    10.44,    16.01
      254.0,      14.65,    18.41,    13.77,    10.43,    15.99
      255.0,      14.63,    18.37,    13.75,    10.41,    15.97
      256.0,      14.61,    18.34,    13.74,    10.40,    15.95
      257.0,      14.58,    18.30,    13.72,    10.38,    15.93
      258.0,      14.56,    18.26,    13.71,    10.37,    15.92
      259.0,      14.54,    18.23,    13.70,    10.35,    15.90
      260.0,      14.52,    18.19,    13.68,    10.33,    15.88
      261.0,      14.50,    18.15,    13.67,    10.32,    15.86
      262.0,      14.48,    18.12,    13.65,    10.30,    15.84
      263.0,      14.46,    18.08,    13.64,    10.29,    15.82
      264.0,      14.44,    18.04,    13.63,    10.27,    15.80
      265.0,      14.42,    18.01,    13.61,    10.26,    15.79
      266.0,      14.39,    17.97,    13.60,    10.24,    15.77
      267.0,      14.37,    17.94,    13.58,    10.23,    15.75
      268.0,      14.35,    17.90,    13.57,    10.21,    15.73
      269.0,      14.33,    17.87,    13.56,    10.20,    15.71
      270.0,      14.31,    17.83,    13.54,    10.18,    15.69
      271.0,      14.29,    17.80,    13.53,    10.16,    15.67
      272.0,      14.27,    17.76,    13.52,    10.15,    15.66
      273.0,      14.25,    17.73,    13.50,    10.13,    15.64
      274.0,      14.23,    17.69,    13.49,    10.12,    15.62
      275.0,      14.21,    17.66,    13.48,    10.10,    15.60
      276.0,      14.19,    17.62,    13.46,    10.09,    15.58
      277.0,      14.17,    17.59,    13.45,    10.07,    15.57
      278.0,      14.15,    17.55,    13.43,    10.06,    15.55
      279.0,      14.13,    17.52,    13.42,    10.04,    15.53
      280.0,      14.11,    17.48,    13.41,    10.03,    15.51
      281.0,      14.09,    17.45,    13.39,    10.01,    15.49
      282.0,      14.07,    17.41,    13.38,    10.00,    15.47
      283.0,      14.05,    17.38,    13.37,     9.98,    15.46
      284.0,      14.03,    17.35,    13.35,     9.97,    15.44
      285.0,      14.01,    17.31,    13.34,     9.95,    15.42
      286.0,      13.99,    17.28,    13.33,     9.94,    15.40
      287.0,      13.97,    17.24,    13.31,     9.92,    15.38
      288.0,      13.95,    17.21,    13.30,     9.91,    15.37
      289.0,      13.93,    17.18,    13.29,     9.89,    15.35
      290.0,      13.91,    17.14,    13.27,     9.88,    15.33
      291.0,      13.89,    17.11,    13.26,     9.86,    15.31
      292.0,      13.87,    17.08,    13.25,     9.85,    15.30
      293.0,      13.85,    17.04,    13.23,     9.83,    15.28
      294.0,      13.83,    17.01,    13.22,     9.82,    15.26
      295.0,      13.81,    16.98,    13.21,     9.81,    15.24
      296.0,      13.79,    16.94,    13.19,     9.79,    15.22
      297.0,      13.77,    16.91,    13.18,     9.78,    15.21
      298.0,      13.75,    16.88,    13.17,     9.76,    15.19
      299.0,      13.73,    16.84,    13.15,     9.75,    15.17
      300.0,      13.71,    16.81,    13.14,     9.73,    15.15
      301.0,      13.69,    16.78,    13.13,     9.72,    15.14
      302.0,      13.67,    16.75,    13.11,     9.70,    15.12
      303.0,      13.65,    16.71,    13.10,     9.69,    15.10
      304.0,      13.63,    16.68,    13.09,     9.67,    15.08
      305.0,      13.61,    16.65,    13.08,     9.66,    15.07
      306.0,      13.59,    16.62,    13.06,     9.65,    15.05
      307.0,      13.57,    16.58,    13.05,     9.63,    15.03
      308.0,      13.55,    16.55,    13.04,     9.62,    15.01
      309.0,      13.54,    16.52,    13.02,     9.60,    15.00
      310.0,      13.52,    16.49,    13.01,     9.59,    14.98
