Radius (km), Mean (m/s), NE (m/s), SE (m/s), SW (m/s), NW (m/s)
        0.0,       0.00,     0.00,     0.00,     0.00,     0.00
        1.0,       0.94,     0.81,     1.08,     1.08,     0.81
        2.0,       1.92,     1.73,     2.11,     2.11,     1.73
        3.0,       2.91,     2.69,     3.14,     3.14,     2.69
        4.0,       3.92,     3.68,     4.15,     4.15,     3.68
        5.0,       4.93,     4.70,     5.16,     5.16,     4.70
        6.0,       5.94,     5.73,     6.16,     6.16,     5.73
        7.0,       6.97,     6.78,     7.16,     7.16,     6.78
        8.0,       8.00,     7.84,     8.15,     8.15,     7.84
        9.0,       9.03,     8.91,     9.14,     9.14,     8.91
       10.0,      10.06,    10.00,    10.13,    10.13,    10.00
       11.0,      11.10,    11.09,    11.12,    11.12,    11.09
       12.0,      12.15,    12.20,    12.10,    12.10,    12.20
       13.0,      13.19,    13.31,    13.08,    13.08,    13.31
       14.0,      14.24,    14.43,    14.06,    14.06,    14.43
       15.0,      15.30,    15.55,    15.04,    15.04,    15.55
       16.0,      16.35,    16.69,    16.01,    16.01,    16.69
       17.0,      17.41,    17.83,    16.99,    16.99,    17.83
       18.0,      18.47,    18.97,    17.96,    17.96,    18.97
       19.0,      19.53,    20.13,    18.93,    18.93,    20.13
       20.0,      20.59,    21.28,    19.90,    19.90,    21.28
       21.0,      21.66,    22.45,    20.87,    20.87,    22.45
       22.0,      22.72,    23.61,    21.83,    21.83,    23.61
       23.0,      23.79,    24.79,    22.80,    22.80,    24.79
       24.0,      24.86,    25.96,    23.76,    23.76,    25.96
       25.0,      25.94,    27.15,    24.73,    24.73,    27.15
       26.0,      27.01,    28.33,    25.69,    25.69,    28.33
       27.0,      28.09,    29.52,    26.65,    26.65,    29.52
       28.0,      29.16,    30.72,    27.61,    27.61,    30.72
       29.0,      30.24,    31.91,    28.57,    28.57,    31.91
       30.0,      31.32,    33.12,    29.53,    29.53,    33.12
       31.0,      32.41,    34.33,    30.49,    30.49,    34.32
       32.0,      33.51,    35.57,    31.46,    31.45,    35.56
       33.0,      34.68,    36.91,    32.48,    32.45,    36.86
       34.0,      35.95,    38.39,    33.59,    33.53,    38.29
       35.0,      37.38,    40.06,    34.83,    34.71,    39.91
       36.0,      38.97,    41.93,    36.21,    36.03,    41.71
       37.0,      40.70,    43.95,    37.72,    37.47,    43.68
       38.0,      42.51,    46.04,    39.28,    38.99,    45.73
       39.0,      44.30,    48.09,    40.84,    40.51,    47.77
       40.0,      45.96,    49.96,    42.29,    41.94,    49.66
       41.0,      47.40,    51.55,    43.54,    43.21,    51.29
       42.0,      48.51,    52.75,    44.51,    44.22,    52.55
       43.0,      49.25,    53.52,    45.16,    44.93,    53.38
       44.0,      49.60,    53.84,    45.48,    45.31,    53.76
       45.0,      49.58,    53.75,    45.47,    45.38,    53.72
       46.0,      49.25,    53.33,    45.19,    45.17,    53.32
       47.0,      48.69,    52.66,    44.70,    44.74,    52.66
       48.0,      47.98,    51.84,    44.08,    44.17,    51.83
       49.0,      47.21,    50.96,    43.41,    43.53,    50.93
       50.0,      46.43,    50.09,    42.73,    42.88,    50.03
       51.0,      45.69,    49.27,    42.08,    42.26,    49.17
       52.0,      45.00,    48.50,    41.47,    41.67,    48.37
       53.0,      44.35,    47.77,    40.90,    41.12,    47.61
       54.0,      43.73,    47.07,    40.36,    40.61,    46.89
       55.0,      43.14,    46.40,    39.84,    40.11,    46.20
       56.0,      42.56,    45.75,    39.34,    39.63,    45.54
       57.0,      42.01,    45.13,    38.85,    39.16,    44.89
       58.0,      41.47,    44.52,    38.38,    38.71,    44.27
       59.0,      40.95,    43.94,    37.93,    38.27,    43.67
       60.0,      40.45,    43.38,    37.49,    37.85,    43.09
       61.0,      39.97,    42.84,    37.06,    37.44,    42.53
       62.0,      39.50,    42.32,    36.65,    37.05,    41.99
       63.0,      39.05,    41.81,    36.26,    36.66,    41.47
       64.0,      38.61,    41.32,    35.87,    36.29,    40.97
       65.0,      38.19,    40.85,    35.50,    35.93,    40.48
       66.0,      37.78,    40.40,    35.14,    35.58,    40.01
       67.0,      37.39,    39.96,    34.80,    35.24,    39.56
       68.0,      37.01,    39.53,    34.46,    34.91,    39.12
       69.0,      36.64,    39.12,    34.13,    34.59,    38.69
       70.0,      36.28,    38.73,    33.82,    34.28,    38.28
       71.0,      35.93,    38.34,    33.51,    33.98,    37.88
       72.0,      35.60,    37.97,    33.22,    33.69,    37.50
       73.0,      35.27,    37.61,    32.93,    33.41,    37.13
       74.0,      34.95,    37.27,    32.65,    33.13,    36.77
       75.0,      34.65,    36.93,    32.38,    32.87,    36.42
       76.0,      34.35,    36.61,    32.12,    32.61,    36.08
       77.0,      34.07,    36.29,    31.87,    32.35,    35.75
       78.0,      33.79,    35.99,    31.62,    32.11,    35.43
       79.0,      33.52,    35.69,    31.38,    31.87,    35.13
       80.0,      33.25,    35.40,    31.15,    31.63,    34.83
       81.0,      33.00,    35.13,    30.92,    31.41,    34.54
       82.0,      32.75,    34.86,    30.70,    31.19,    34.26
       83.0,      32.51,    34.60,    30.49,    30.97,    33.99
       84.0,      32.28,    34.34,    30.28,    30.76,    33.72
       85.0,      32.05,    34.10,    30.08,    30.56,    33.47
       86.0,      31.83,    33.86,    29.89,    30.36,    33.22
       87.0,      31.62,    33.63,    29.69,    30.16,    32.98
       88.0,      31.41,    33.41,    29.51,    29.97,    32.74
       89.0,      31.20,    33.19,    29.33,    29.79,    32.51
       90.0,      31.01,    32.98,    29.15,    29.60,    32.29
       91.0,      30.81,    32.77,    28.98,    29.43,    32.08
       92.0,      30.63,    32.57,    28.81,    29.25,    31.87
       93.0,      30.44,    32.38,    28.65,    29.08,    31.66
       94.0,      30.27,    32.19,    28.49,    28.92,    31.47
       95.0,      30.09,    32.00,    28.34,    28.76,    31.27
       96.0,      29.92,    31.83,    28.18,    28.60,    31.08
       97.0,      29.76,    31.65,    28.04,    28.44,    30.90
       98.0,      29.60,    31.48,    27.89,    28.29,    30.72
       99.0,      29.44,    31.32,    27.75,    28.14,    30.55
      100.0,      29.29,    31.15,    27.61,    28.00,    30.38
      101.0,      29.14,    31.00,    27.48,    27.86,    30.21
      102.0,      28.99,    30.84,    27.35,    27.72,    30.05
      103.0,      28.85,    30.69,    27.22,    27.58,    29.89
      104.0,      28.71,    30.55,    27.09,    27.44,    29.74
      105.0,      28.57,    30.41,    26.97,    27.31,    29.59
      106.0,      28.43,    30.27,    26.85,    27.18,    29.44
      107.0,      28.30,    30.13,    26.73,    27.05,    29.30
      108.0,      28.17,    30.00,    26.61,    26.93,    29.16
      109.0,      28.05,    29.87,    26.50,    26.81,    29.02
      110.0,      27.92,    29.74,    26.39,    26.68,    28.88
      111.0,      27.80,    29.62,    26.28,    26.56,    28.75
      112.0,      27.68,    29.50,    26.17,    26.45,    28.62
      113.0,      27.57,    29.38,    26.06,    26.33,    28.50
      114.0,      27.45,    29.26,    25.96,    26.22,    28.37
      115.0,      27.34,    29.15,    25.86,    26.11,    28.25
      116.0,      27.23,    29.03,    25.76,    26.00,    28.13
      117.0,      27.12,    28.92,    25.66,    25.89,    28.02
      118.0,      27.01,    28.82,    25.56,    25.78,    27.90
      119.0,      26.91,    28.71,    25.47,    25.68,    27.79
      120.0,      26.81,    28.61,    25.37,    25.57,    27.68
      121.0,      26.71,    28.51,    25.28,    25.47,    27.57
      122.0,      26.61,    28.41,    25.19,    25.37,    27.46
      123.0,      26.51,    28.31,    25.10,    25.27,    27.36
      124.0,      26.41,    28.21,    25.01,    25.17,    27.25
      125.0,      26.32,    28.12,    24.92,    25.07,    27.15
      126.0,      26.22,    28.02,    24.84,    24.98,    27.05
      127.0,      26.13,    27.93,    24.75,    24.88,    26.95
      128.0,      26.04,    27.84,    24.67,    24.79,    26.86
      129.0,      25.95,    27.75,    24.59,    24.69,    26.76
      130.0,      25.86,    27.66,    24.51,    24.60,    26.67
      131.0,      25.77,    27.58,    24.43,    24.51,    26.58
      132.0,      25.69,    27.49,    24.35,    24.42,    26.48
      133.0,      25.60,    27.41,    24.27,    24.33,    26.39
      134.0,      25.52,    27.33,    24.19,    24.24,    26.30
      135.0,      25.43,    27.24,    24.11,    24.16,    26.22
      136.0,      25.35,    27.16,    24.04,    24.07,    26.13
      137.0,      25.27,    27.08,    23.96,    23.99,    26.05
      138.0,      25.19,    27.01,    23.89,    23.90,    25.96
      139.0,      25.11,    26.93,    23.82,    23.82,    25.88
      140.0,      25.03,    26.85,    23.74,    23.73,    25.80
      141.0,      24.95,    26.78,    23.67,    23.65,    25.71
      142.0,      24.88,    26.70,    23.60,    23.57,    25.63
      143.0,      24.80,    26.63,    23.53,    23.49,    25.55
      144.0,      24.72,    26.55,    23.46,    23.41,    25.48
      145.0,      24.65,    26.48,    23.39,    23.33,    25.40
      146.0,      24.58,    26.41,    23.32,    23.25,    25.32
      147.0,      24.50,    26.34,    23.26,    23.17,    25.24
      148.0,      24.43,    26.27,    23.19,    23.09,    25.17
      149.0,      24.36,    26.20,    23.12,    23.02,    25.09
      150.0,      24.29,    26.13,    23.06,    22.94,    25.02
      151.0,      24.22,    26.06,    22.99,    22.86,    24.95
      152.0,      24.15,    26.00,    22.93,    22.79,    24.87
      153.0,      24.08,    25.93,    22.86,    22.71,    24.80
      154.0,      24.01,    25.86,    22.80,    22.64,    24.73
      155.0,      23.94,    25.80,    22.73,    22.57,    24.66
      156.0,      23.87,    25.73,    22.67,    22.49,    24.59
      157.0,      23.80,    25.67,    22.61,    22.42,    24.52
      158.0,      23.74,    25.60,    22.54,    22.35,    24.45
      159.0,      23.67,    25.54,    22.48,    22.27,    24.38
      160.0,      23.60,    25.48,    22.42,    22.20,    24.31
      161.0,      23.54,    25.41,    22.36,    22.13,    24.25
      162.0,      23.47,    25.35,    22.30,    22.06,    24.18
      163.0,      23.41,    25.29,    22.24,    21.99,    24.11
      164.0,      23.34,    25.23,    22.18,    21.92,    24.05
      165.0,      23.28,    25.17,    22.12,    21.85,    23.98
      166.0,      23.22,    25.11,    22.06,    21.78,    23.91
      167.0,      23.15,    25.05,    22.00,    21.71,    23.85
      168.0,      23.09,    24.99,    21.94,    21.65,    23.79
      169.0,      23.03,    24.93,    21.88,    21.58,    23.72
      170.0,      22.97,    24.87,    21.83,    21.51,    23.66
      171.0,      22.90,    24.81,    21.77,    21.44,    23.59
      172.0,      22.84,    24.75,    21.71,    21.38,    23.53
      173.0,      22.78,    24.69,    21.65,    21.31,    23.47
      174.0,      22.72,    24.64,    21.60,    21.24,    23.41
      175.0,      22.66,    24.58,    21.54,    21.18,    23.35
      176.0,      22.60,    24.52,    21.49,    21.11,    23.28
      177.0,      22.54,    24.47,    21.43,    21.05,    23.22
      178.0,      22.48,    24.41,    21.37,    20.98,    23.16
      179.0,      22.42,    24.35,    21.32,    20.92,    23.10
      180.0,      22.36,    24.30,    21.26,    20.85,    23.04
      181.0,      22.31,    24.24,    21.21,    20.79,    22.98
      182.0,      22.25,    24.19,    21.15,    20.72,    22.92
      183.0,      22.19,    24.13,    21.10,    20.66,    22.86
      184.0,      22.13,    24.08,    21.05,    20.60,    22.80
      185.0,      22.07,    24.02,    20.99,    20.53,    22.74
      186.0,      22.02,    23.97,    20.94,    20.47,    22.69
      187.0,      21.96,    23.91,    20.88,    20.41,    22.63
      188.0,      21.90,    23.86,    20.83,    20.35,    22.57
      189.0,      21.85,    23.81,    20.78,    20.28,    22.51
      190.0,      21.79,    23.75,    20.72,    20.22,    22.45
      191.0,      21.73,    23.70,    20.67,    20.16,    22.40
      192.0,      21.68,    23.65,    20.62,    20.10,    22.34
      193.0,      21.62,    23.59,    20.57,    20.04,    22.28
      194.0,      21.57,    23.54,    20.52,    19.98,    22.23
      195.0,      21.51,    23.49,    20.46,    19.92,    22.17
      196.0,      21.46,    23.44,    20.41,    19.86,    22.11
      197.0,      21.40,    23.39,    20.36,    19.80,    22.06
      198.0,      21.35,    23.33,    20.31,    19.74,    22.00
      199.0,      21.29,    23.28,    20.26,    19.68,    21.95
      200.0,      21.24,    23.23,    20.21,    19.62,    21.89
      201.0,      21.18,    23.18,    20.16,    19.56,    21.84
      202.0,      21.13,    23.13,    20.11,    19.50,    21.78
      203.0,      21.08,    23.08,    20.06,    19.44,    21.73
      204.0,      21.02,    23.03,    20.00,    19.38,    21.67
      205.0,      20.97,    22.98,    19.95,    19.33,    21.62
      206.0,      20.92,    22.93,    19.90,    19.27,    21.57
      207.0,      20.86,    22.88,    19.85,    19.21,    21.51
      208.0,      20.81,    22.83,    19.81,    19.15,    21.46
      209.0,      20.76,    22.78,    19.76,    19.09,    21.40
      210.0,      20.70,    22.73,    19.71,    19.04,    21.35
      211.0,      20.65,    22.68,    19.66,    18.98,    21.30
      212.0,      20.60,    22.63,    19.61,    18.92,    21.24
      213.0,      20.55,    22.58,    19.56,    18.87,    21.19
      214.0,      20.50,    22.53,    19.51,    18.81,    21.14
      215.0,      20.45,    22.48,    19.46,    18.75,    21.09
      216.0,      20.39,    22.43,    19.41,    18.70,    21.03
      217.0,      20.34,    22.38,    19.37,    18.64,    20.98
      218.0,      20.29,    22.33,    19.32,    18.59,    20.93
      219.0,      20.24,    22.28,    19.27,    18.53,    20.88
      220.0,      20.19,    22.24,    19.22,    18.47,    20.83
      221.0,      20.14,    22.19,    19.17,    18.42,    20.78
      222.0,      20.09,    22.14,    19.13,    18.36,    20.72
      223.0,      20.04,    22.09,    19.08,    18.31,    20.67
      224.0,      19.99,    22.04,    19.03,    18.26,    20.62
      225.0,      19.94,    22.00,    18.98,    18.20,    20.57
      226.0,      19.89,    21.95,    18.94,    18.15,    20.52
      227.0,      19.84,    21.90,    18.89,    18.09,    20.47
      228.0,      19.79,    21.85,    18.84,    18.04,    20.42
      229.0,      19.74,    21.81,    18.80,    17.98,    20.37
      230.0,      19.69,    21.76,    18.75,    17.93,    20.32
      231.0,      19.64,    21.71,    18.70,    17.88,    20.27
      232.0,      19.59,    21.67,    18.66,    17.82,    20.22
      233.0,      19.54,    21.62,    18.61,    17.77,    20.17
      234.0,      19.49,    21.57,    18.57,    17.72,    20.12
      235.0,      19.45,    21.53,    18.52,    17.67,    20.07
      236.0,      19.40,    21.48,    18.47,    17.61,    20.02
      237.0,      19.35,    21.43,    18.43,    17.56,    19.97
      238.0,      19.30,    21.39,    18.38,    17.51,    19.92
      239.0,      19.25,    21.34,    18.34,    17.46,    19.87
      240.0,      19.20,    21.30,    18.29,    17.41,    19.82
      241.0,      19.16,    21.25,    18.25,    17.35,    19.78
      242.0,      19.11,    21.20,    18.20,    17.30,    19.73
      243.0,      19.06,    21.16,    18.16,    17.25,    19.68
      244.0,      19.01,    21.11,    18.11,    17.20,    19.63
      245.0,      18.97,    21.07,    18.07,    17.15,    19.58
      246.0,      18.92,    21.02,    18.02,    17.10,    19.53
      247.0,      18.87,    20.98,    17.98,    17.05,    19.49
      248.0,      18.83,    20.93,    17.94,    17.00,    19.44
      249.0,      18.78,    20.89,    17.89,    16.95,    19.39
      250.0,      18.73,    20.84,    17.85,    16.90,    19.34
      251.0,      18.69,    20.80,    17.80,    16.84,    19.30
      252.0,      18.64,    20.75,    17.76,    16.79,    19.25
      253.0,      18.59,    20.71,    17.72,    16.75,    19.20
      254.0,      18.55,    20.66,    17.67,    16.70,    19.15
      255.0,      18.50,    20.62,    17.63,    16.65,    19.11
      256.0,      18.45,    20.58,    17.59,    16.60,    19.06
      257.0,      18.41,    20.53,    17.54,    16.55,    19.01
      258.0,      18.36,    20.49,    17.50,    16.50,    18.97
      259.0,      18.32,    20.44,    17.46,    16.45,    18.92
      260.0,      18.27,    20.40,    17.41,    16.40,    18.88
      261.0,      18.23,    20.36,    17.37,    16.35,    18.83
      262.0,      18.18,    20.31,    17.33,    16.30,    18.78
      263.0,      18.14,    20.27,    17.28,    16.26,    18.74
      264.0,      18.09,    20.23,    17.24,    16.21,    18.69
      265.0,      18.05,    20.18,    17.20,    16.16,    18.65
      266.0,      18.00,    20.14,    17.16,    16.11,    18.60
      267.0,      17.96,    20.10,    17.12,    16.06,    18.55
      268.0,      17.91,    20.05,    17.07,    16.02,    18.51
      269.0,      17.87,    20.01,    17.03,    15.97,    18.46
      270.0,      17.82,    19.97,    16.99,    15.92,    18.42
      271.0,      17.78,    19.92,    16.95,    15.87,    18.37
      272.0,      17.74,    19.88,    16.91,    15.83,    18.33
      273.0,      17.69,    19.84,    16.86,    15.78,    18.28
      274.0,      17.65,    19.80,    16.82,    15.73,    18.24
      275.0,      17.60,    19.75,    16.78,    15.69,    18.20
      276.0,      17.56,    19.71,    16.74,    15.64,    18.15
      277.0,      17.52,    19.67,    16.70,    15.59,    18.11
      278.0,      17.47,    19.63,    16.66,    15.55,    18.06
      279.0,      17.43,    19.59,    16.62,    15.50,    18.02
      280.0,      17.39,    19.54,    16.58,    15.46,    17.97
      281.0,      17.34,    19.50,    16.54,    15.41,    17.93
      282.0,      17.30,    19.46,    16.50,    15.36,    17.89
      283.0,      17.26,    19.42,    16.45,    15.32,    17.84
      284.0,      17.22,    19.38,    16.41,    15.27,    17.80
      285.0,      17.17,    19.34,    16.37,    15.23,    17.76
      286.0,      17.13,    19.30,    16.33,    15.18,    17.71
      287.0,      17.09,    19.25,    16.29,    15.14,    17.67
      288.0,      17.05,    19.21,    16.25,    15.09,    17.63
      289.0,      17.00,    19.17,    16.21,    15.05,    17.58
      290.0,      16.96,    19.13,    16.17,    15.00,    17.54
      291.0,      16.92,    19.09,    16.13,    14.96,    17.50
      292.0,      16.88,    19.05,    16.09,    14.92,    17.45
      293.0,      16.84,    19.01,    16.06,    14.87,    17.41
      294.0,      16.80,    18.97,    16.02,    14.83,    17.37
      295.0,      16.75,    18.93,    15.98,    14.78,    17.33
      296.0,      16.71,    18.89,    15.94,    14.74,    17.28
      297.0,      16.67,    18.85,    15.90,    14.70,    17.24
      298.0,      16.63,    18.81,    15.86,    14.65,    17.20
      299.0,      16.59,    18.77,    15.82,    14.61,    17.16
      300.0,      16.55,    18.73,    15.78,    14.57,    17.12
      301.0,      16.51,    18.69,    15.74,    14.52,    17.08
      302.0,      16.47,    18.65,    15.70,    14.48,    17.03
      303.0,      16.43,    18.61,    15.67,    14.44,    16.99
      304.0,      16.38,    18.57,    15.63,    14.39,    16.95
      305.0,      16.34,    18.53,    15.59,    14.35,    16.91
      306.0,      16.30,    18.49,    15.55,    14.31,    16.87
      307.0,      16.26,    18.45,    15.51,    14.27,    16.83
      308.0,      16.22,    18.41,    15.47,    14.22,    16.79
      309.0,      16.18,    18.37,    15.44,    14.18,    16.74
      310.0,      16.14,    18.33,    15.40,    14.14,    16.70
