Radius (km), Mean (m/s), NE (m/s), SE (m/s), SW (m/s), NW (m/s)
        0.0,       0.00,     0.00,     0.00,     0.00,     0.00
        1.0,       2.05,     1.90,     2.09,     2.20,     2.03
        2.0,       3.45,     3.32,     3.49,     3.56,     3.44
        3.0,       4.68,     4.60,     4.71,     4.73,     4.68
        4.0,       5.80,     5.79,     5.82,     5.77,     5.83
        5.0,       6.86,     6.93,     6.87,     6.75,     6.90
        6.0,       7.87,     8.03,     7.86,     7.66,     7.93
        7.0,       8.84,     9.08,     8.81,     8.53,     8.92
        8.0,       9.77,    10.11,     9.72,     9.36,     9.87
        9.0,      10.67,    11.12,    10.61,    10.16,    10.80
       10.0,      11.55,    12.10,    11.47,    10.93,    11.70
       11.0,      12.41,    13.07,    12.31,    11.68,    12.58
       12.0,      13.25,    14.01,    13.12,    12.41,    13.44
       13.0,      14.07,    14.95,    13.92,    13.12,    14.29
       14.0,      14.88,    15.86,    14.71,    13.82,    15.12
       15.0,      15.67,    16.77,    15.48,    14.50,    15.93
       16.0,      16.45,    17.66,    16.24,    15.17,    16.73
       17.0,      17.22,    18.55,    16.98,    15.82,    17.53
       18.0,      17.98,    19.42,    17.71,    16.46,    18.30
       19.0,      18.72,    20.28,    18.44,    17.10,    19.07
       20.0,      19.46,    21.14,    19.15,    17.72,    19.83
       21.0,      20.19,    21.98,    19.85,    18.33,    20.58
       22.0,      20.91,    22.83,    20.56,    18.94,    21.33
       23.0,      21.65,    23.69,    21.29,    19.55,    22.08
       24.0,      22.43,    24.59,    22.07,    20.20,    22.85
       25.0,      23.27,    25.58,    22.93,    20.90,    23.68
       26.0,      24.20,    26.67,    23.88,    21.67,    24.57
       27.0,      25.20,    27.84,    24.91,    22.52,    25.54
       28.0,      26.26,    29.08,    25.99,    23.41,    26.56
       29.0,      27.33,    30.34,    27.07,    24.32,    27.59
       30.0,      28.36,    31.54,    28.08,    25.20,    28.60
       31.0,      29.28,    32.63,    28.97,    25.98,    29.53
       32.0,      30.05,    33.55,    29.69,    26.63,    30.34
       33.0,      30.63,    34.24,    30.20,    27.11,    30.98
       34.0,      31.00,    34.69,    30.49,    27.40,    31.43
       35.0,      31.17,    34.90,    30.57,    27.51,    31.69
       36.0,      31.14,    34.89,    30.47,    27.44,    31.77
       37.0,      30.97,    34.71,    30.22,    27.23,    31.71
       38.0,      30.69,    34.40,    29.88,    26.92,    31.54
       39.0,      30.34,    34.02,    29.49,    26.56,    31.30
       40.0,      29.98,    33.62,    29.10,    26.18,    31.03
       41.0,      29.62,    33.22,    28.71,    25.80,    30.76
       42.0,      29.28,    32.84,    28.34,    25.44,    30.49
       43.0,      28.96,    32.49,    28.00,    25.09,    30.25
       44.0,      28.65,    32.15,    27.67,    24.77,    30.01
       45.0,      28.35,    31.82,    27.36,    24.45,    29.78
       46.0,      28.06,    31.50,    27.05,    24.15,    29.56
       47.0,      27.78,    31.19,    26.76,    23.85,    29.34
       48.0,      27.51,    30.89,    26.48,    23.56,    29.12
       49.0,      27.24,    30.59,    26.20,    23.28,    28.90
       50.0,      26.99,    30.30,    25.94,    23.01,    28.69
       51.0,      26.73,    30.02,    25.68,    22.74,    28.48
       52.0,      26.49,    29.75,    25.44,    22.48,    28.28
       53.0,      26.25,    29.48,    25.20,    22.23,    28.08
       54.0,      26.01,    29.22,    24.97,    21.98,    27.88
       55.0,      25.79,    28.97,    24.75,    21.74,    27.68
       56.0,      25.57,    28.72,    24.54,    21.51,    27.49
       57.0,      25.35,    28.48,    24.33,    21.29,    27.30
       58.0,      25.14,    28.25,    24.13,    21.07,    27.11
       59.0,      24.93,    28.02,    23.93,    20.85,    26.92
       60.0,      24.73,    27.80,    23.75,    20.64,    26.74
       61.0,      24.54,    27.58,    23.56,    20.44,    26.56
       62.0,      24.35,    27.37,    23.39,    20.24,    26.39
       63.0,      24.16,    27.16,    23.22,    20.05,    26.21
       64.0,      23.98,    26.96,    23.05,    19.86,    26.04
       65.0,      23.80,    26.76,    22.90,    19.68,    25.87
       66.0,      23.63,    26.57,    22.74,    19.50,    25.70
       67.0,      23.46,    26.38,    22.59,    19.33,    25.54
       68.0,      23.29,    26.20,    22.45,    19.16,    25.38
       69.0,      23.13,    26.02,    22.31,    18.99,    25.22
       70.0,      22.98,    25.85,    22.17,    18.83,    25.06
       71.0,      22.82,    25.67,    22.04,    18.68,    24.90
       72.0,      22.67,    25.51,    21.91,    18.52,    24.75
       73.0,      22.53,    25.34,    21.78,    18.37,    24.60
       74.0,      22.38,    25.18,    21.66,    18.23,    24.45
       75.0,      22.24,    25.03,    21.55,    18.09,    24.30
       76.0,      22.10,    24.88,    21.43,    17.95,    24.16
       77.0,      21.97,    24.73,    21.32,    17.82,    24.01
       78.0,      21.84,    24.58,    21.21,    17.69,    23.87
       79.0,      21.71,    24.44,    21.11,    17.56,    23.73
       80.0,      21.58,    24.30,    21.01,    17.43,    23.60
       81.0,      21.46,    24.16,    20.91,    17.31,    23.46
       82.0,      21.34,    24.03,    20.81,    17.19,    23.33
       83.0,      21.22,    23.90,    20.72,    17.08,    23.20
       84.0,      21.11,    23.77,    20.63,    16.96,    23.06
       85.0,      20.99,    23.64,    20.54,    16.85,    22.94
       86.0,      20.88,    23.52,    20.45,    16.75,    22.81
       87.0,      20.77,    23.40,    20.37,    16.64,    22.68
       88.0,      20.67,    23.28,    20.28,    16.54,    22.56
       89.0,      20.56,    23.16,    20.20,    16.44,    22.44
       90.0,      20.46,    23.05,    20.13,    16.34,    22.32
       91.0,      20.36,    22.94,    20.05,    16.24,    22.20
       92.0,      20.26,    22.83,    19.97,    16.15,    22.08
       93.0,      20.16,    22.72,    19.90,    16.06,    21.97
       94.0,      20.07,    22.62,    19.83,    15.97,    21.85
       95.0,      19.97,    22.51,    19.76,    15.88,    21.74
       96.0,      19.88,    22.41,    19.69,    15.80,    21.63
       97.0,      19.79,    22.31,    19.63,    15.71,    21.52
       98.0,      19.70,    22.22,    19.56,    15.63,    21.41
       99.0,      19.62,    22.12,    19.50,    15.55,    21.30
      100.0,      19.53,    22.03,    19.43,    15.47,    21.20
      101.0,      19.45,    21.93,    19.37,    15.40,    21.09
      102.0,      19.37,    21.84,    19.31,    15.32,    20.99
      103.0,      19.29,    21.75,    19.25,    15.25,    20.89
      104.0,      19.21,    21.66,    19.20,    15.18,    20.79
      105.0,      19.13,    21.58,    19.14,    15.10,    20.69
      106.0,      19.05,    21.49,    19.08,    15.04,    20.59
      107.0,      18.97,    21.41,    19.03,    14.97,    20.49
      108.0,      18.90,    21.33,    18.98,    14.90,    20.39
      109.0,      18.83,    21.24,    18.92,    14.84,    20.30
      110.0,      18.75,    21.16,    18.87,    14.77,    20.21
      111.0,      18.68,    21.09,    18.82,    14.71,    20.11
      112.0,      18.61,    21.01,    18.77,    14.65,    20.02
      113.0,      18.54,    20.93,    18.72,    14.59,    19.93
      114.0,      18.48,    20.86,    18.67,    14.53,    19.84
      115.0,      18.41,    20.78,    18.62,    14.47,    19.75
      116.0,      18.34,    20.71,    18.58,    14.42,    19.66
      117.0,      18.28,    20.64,    18.53,    14.36,    19.58
      118.0,      18.21,    20.57,    18.49,    14.31,    19.49
      119.0,      18.15,    20.50,    18.44,    14.25,    19.41
      120.0,      18.09,    20.43,    18.40,    14.20,    19.32
      121.0,      18.03,    20.36,    18.35,    14.15,    19.24
      122.0,      17.96,    20.29,    18.31,    14.10,    19.16
      123.0,      17.90,    20.23,    18.27,    14.05,    19.08
      124.0,      17.85,    20.16,    18.22,    14.00,    19.00
      125.0,      17.79,    20.10,    18.18,    13.95,    18.92
      126.0,      17.73,    20.03,    18.14,    13.91,    18.84
      127.0,      17.67,    19.97,    18.10,    13.86,    18.76
      128.0,      17.62,    19.91,    18.06,    13.81,    18.68
      129.0,      17.56,    19.84,    18.02,    13.77,    18.61
      130.0,      17.51,    19.78,    17.98,    13.72,    18.53
      131.0,      17.45,    19.72,    17.94,    13.68,    18.46
      132.0,      17.40,    19.66,    17.90,    13.64,    18.38
      133.0,      17.34,    19.60,    17.87,    13.59,    18.31
      134.0,      17.29,    19.55,    17.83,    13.55,    18.24
      135.0,      17.24,    19.49,    17.79,    13.51,    18.17
      136.0,      17.19,    19.43,    17.75,    13.47,    18.10
      137.0,      17.14,    19.38,    17.72,    13.43,    18.03
      138.0,      17.09,    19.32,    17.68,    13.39,    17.96
      139.0,      17.04,    19.26,    17.64,    13.35,    17.89
      140.0,      16.99,    19.21,    17.61,    13.32,    17.82
      141.0,      16.94,    19.16,    17.57,    13.28,    17.75
      142.0,      16.89,    19.10,    17.54,    13.24,    17.68
      143.0,      16.84,    19.05,    17.50,    13.20,    17.62
      144.0,      16.80,    19.00,    17.47,    13.17,    17.55
      145.0,      16.75,    18.94,    17.43,    13.13,    17.49
      146.0,      16.70,    18.89,    17.40,    13.10,    17.42
      147.0,      16.66,    18.84,    17.37,    13.06,    17.36
      148.0,      16.61,    18.79,    17.33,    13.03,    17.30
      149.0,      16.57,    18.74,    17.30,    13.00,    17.23
      150.0,      16.52,    18.69,    17.27,    12.96,    17.17
      151.0,      16.48,    18.64,    17.23,    12.93,    17.11
      152.0,      16.43,    18.59,    17.20,    12.90,    17.05
      153.0,      16.39,    18.54,    17.17,    12.86,    16.99
      154.0,      16.35,    18.49,    17.13,    12.83,    16.93
      155.0,      16.30,    18.44,    17.10,    12.80,    16.87
      156.0,      16.26,    18.40,    17.07,    12.77,    16.81
      157.0,      16.22,    18.35,    17.04,    12.74,    16.75
      158.0,      16.18,    18.30,    17.01,    12.71,    16.69
      159.0,      16.14,    18.26,    16.98,    12.68,    16.64
      160.0,      16.10,    18.21,    16.94,    12.65,    16.58
      161.0,      16.05,    18.16,    16.91,    12.62,    16.52
      162.0,      16.01,    18.12,    16.88,    12.59,    16.47
      163.0,      15.97,    18.07,    16.85,    12.56,    16.41
      164.0,      15.93,    18.03,    16.82,    12.53,    16.36
      165.0,      15.89,    17.98,    16.79,    12.50,    16.30
      166.0,      15.85,    17.94,    16.76,    12.47,    16.25
      167.0,      15.82,    17.89,    16.73,    12.45,    16.19
      168.0,      15.78,    17.85,    16.70,    12.42,    16.14
      169.0,      15.74,    17.81,    16.67,    12.39,    16.09
      170.0,      15.70,    17.76,    16.64,    12.36,    16.03
      171.0,      15.66,    17.72,    16.61,    12.34,    15.98
      172.0,      15.62,    17.68,    16.58,    12.31,    15.93
      173.0,      15.59,    17.63,    16.55,    12.28,    15.88
      174.0,      15.55,    17.59,    16.52,    12.26,    15.83
      175.0,      15.51,    17.55,    16.49,    12.23,    15.78
      176.0,      15.48,    17.51,    16.46,    12.21,    15.73
      177.0,      15.44,    17.47,    16.43,    12.18,    15.68
      178.0,      15.40,    17.42,    16.40,    12.15,    15.63
      179.0,      15.37,    17.38,    16.38,    12.13,    15.58
      180.0,      15.33,    17.34,    16.35,    12.10,    15.53
      181.0,      15.29,    17.30,    16.32,    12.08,    15.48
      182.0,      15.26,    17.26,    16.29,    12.05,    15.43
      183.0,      15.22,    17.22,    16.26,    12.03,    15.38
      184.0,      15.19,    17.18,    16.23,    12.01,    15.34
      185.0,      15.15,    17.14,    16.20,    11.98,    15.29
      186.0,      15.12,    17.10,    16.18,    11.96,    15.24
      187.0,      15.08,    17.06,    16.15,    11.93,    15.20
      188.0,      15.05,    17.02,    16.12,    11.91,    15.15
      189.0,      15.02,    16.98,    16.09,    11.89,    15.11
      190.0,      14.98,    16.94,    16.06,    11.86,    15.06
      191.0,      14.95,    16.90,    16.04,    11.84,    15.01
      192.0,      14.91,    16.86,    16.01,    11.82,    14.97
      193.0,      14.88,    16.82,    15.98,    11.79,    14.92
      194.0,      14.85,    16.79,    15.95,    11.77,    14.88
      195.0,      14.81,    16.75,    15.92,    11.75,    14.84
      196.0,      14.78,    16.71,    15.90,    11.72,    14.79
      197.0,      14.75,    16.67,    15.87,    11.70,    14.75
      198.0,      14.72,    16.63,    15.84,    11.68,    14.71
      199.0,      14.68,    16.60,    15.82,    11.66,    14.66
      200.0,      14.65,    16.56,    15.79,    11.63,    14.62
      201.0,      14.62,    16.52,    15.76,    11.61,    14.58
      202.0,      14.59,    16.48,    15.73,    11.59,    14.54
      203.0,      14.55,    16.45,    15.71,    11.57,    14.49
      204.0,      14.52,    16.41,    15.68,    11.55,    14.45
      205.0,      14.49,    16.37,    15.65,    11.53,    14.41
      206.0,      14.46,    16.34,    15.63,    11.50,    14.37
      207.0,      14.43,    16.30,    15.60,    11.48,    14.33
      208.0,      14.40,    16.26,    15.57,    11.46,    14.29
      209.0,      14.36,    16.23,    15.55,    11.44,    14.25
      210.0,      14.33,    16.19,    15.52,    11.42,    14.21
      211.0,      14.30,    16.15,    15.49,    11.40,    14.17
      212.0,      14.27,    16.12,    15.47,    11.38,    14.13
      213.0,      14.24,    16.08,    15.44,    11.36,    14.09
      214.0,      14.21,    16.05,    15.41,    11.34,    14.05
      215.0,      14.18,    16.01,    15.39,    11.31,    14.01
      216.0,      14.15,    15.98,    15.36,    11.29,    13.97
      217.0,      14.12,    15.94,    15.34,    11.27,    13.93
      218.0,      14.09,    15.90,    15.31,    11.25,    13.89
      219.0,      14.06,    15.87,    15.28,    11.23,    13.85
      220.0,      14.03,    15.83,    15.26,    11.21,    13.82
      221.0,      14.00,    15.80,    15.23,    11.19,    13.78
      222.0,      13.97,    15.76,    15.21,    11.17,    13.74
      223.0,      13.94,    15.73,    15.18,    11.15,    13.70
      224.0,      13.91,    15.70,    15.15,    11.13,    13.66
      225.0,      13.88,    15.66,    15.13,    11.11,    13.63
      226.0,      13.85,    15.63,    15.10,    11.09,    13.59
      227.0,      13.82,    15.59,    15.08,    11.07,    13.55
      228.0,      13.79,    15.56,    15.05,    11.05,    13.52
      229.0,      13.77,    15.52,    15.03,    11.03,    13.48
      230.0,      13.74,    15.49,    15.00,    11.01,    13.44
      231.0,      13.71,    15.46,    14.97,    10.99,    13.41
      232.0,      13.68,    15.42,    14.95,    10.97,    13.37
      233.0,      13.65,    15.39,    14.92,    10.95,    13.34
      234.0,      13.62,    15.35,    14.90,    10.94,    13.30
      235.0,      13.59,    15.32,    14.87,    10.92,    13.27
      236.0,      13.57,    15.29,    14.85,    10.90,    13.23
      237.0,      13.54,    15.25,    14.82,    10.88,    13.19
      238.0,      13.51,    15.22,    14.80,    10.86,    13.16
      239.0,      13.48,    15.19,    14.77,    10.84,    13.12
      240.0,      13.45,    15.15,    14.75,    10.82,    13.09
      241.0,      13.43,    15.12,    14.72,    10.80,    13.06
      242.0,      13.40,    15.09,    14.70,    10.78,    13.02
      243.0,      13.37,    15.06,    14.67,    10.76,    12.99
      244.0,      13.34,    15.02,    14.65,    10.74,    12.95
      245.0,      13.31,    14.99,    14.62,    10.73,    12.92
      246.0,      13.29,    14.96,    14.60,    10.71,    12.89
      247.0,      13.26,    14.93,    14.57,    10.69,    12.85
      248.0,      13.23,    14.89,    14.55,    10.67,    12.82
      249.0,      13.21,    14.86,    14.52,    10.65,    12.79
      250.0,      13.18,    14.83,    14.50,    10.63,    12.75
      251.0,      13.15,    14.80,    14.48,    10.61,    12.72
      252.0,      13.12,    14.76,    14.45,    10.60,    12.69
      253.0,      13.10,    14.73,    14.43,    10.58,    12.65
      254.0,      13.07,    14.70,    14.40,    10.56,    12.62
      255.0,      13.04,    14.67,    14.38,    10.54,    12.59
      256.0,      13.02,    14.64,    14.35,    10.52,    12.56
      257.0,      12.99,    14.60,    14.33,    10.51,    12.52
      258.0,      12.96,    14.57,    14.31,    10.49,    12.49
      259.0,      12.94,    14.54,    14.28,    10.47,    12.46
      260.0,      12.91,    14.51,    14.26,    10.45,    12.43
      261.0,      12.89,    14.48,    14.23,    10.43,    12.40
      262.0,      12.86,    14.45,    14.21,    10.41,    12.37
      263.0,      12.83,    14.42,    14.18,    10.40,    12.33
      264.0,      12.81,    14.39,    14.16,    10.38,    12.30
      265.0,      12.78,    14.35,    14.14,    10.36,    12.27
      266.0,      12.75,    14.32,    14.11,    10.34,    12.24
      267.0,      12.73,    14.29,    14.09,    10.33,    12.21
      268.0,      12.70,    14.26,    14.07,    10.31,    12.18
      269.0,      12.68,    14.23,    14.04,    10.29,    12.15
      270.0,      12.65,    14.20,    14.02,    10.27,    12.12
      271.0,      12.63,    14.17,    13.99,    10.26,    12.09
      272.0,      12.60,    14.14,    13.97,    10.24,    12.06
      273.0,      12.58,    14.11,    13.95,    10.22,    12.03
      274.0,      12.55,    14.08,    13.92,    10.20,    12.00
      275.0,      12.52,    14.05,    13.90,    10.19,    11.97
      276.0,      12.50,    14.02,    13.88,    10.17,    11.94
      277.0,      12.47,    13.99,    13.85,    10.15,    11.91
      278.0,      12.45,    13.96,    13.83,    10.13,    11.88
      279.0,      12.42,    13.93,    13.81,    10.12,    11.85
      280.0,      12.40,    13.90,    13.78,    10.10,    11.82
      281.0,      12.37,    13.87,    13.76,    10.08,    11.79
      282.0,      12.35,    13.84,    13.74,    10.06,    11.76
      283.0,      12.32,    13.81,    13.71,    10.05,    11.73
      284.0,      12.30,    13.78,    13.69,    10.03,    11.70
      285.0,      12.27,    13.75,    13.67,    10.01,    11.67
      286.0,      12.25,    13.72,    13.64,    10.00,    11.64
      287.0,      12.23,    13.69,    13.62,     9.98,    11.61
      288.0,      12.20,    13.66,    13.60,     9.96,    11.58
      289.0,      12.18,    13.63,    13.58,     9.94,    11.56
      290.0,      12.15,    13.60,    13.55,     9.93,    11.53
      291.0,      12.13,    13.57,    13.53,     9.91,    11.50
      292.0,      12.10,    13.54,    13.51,     9.89,    11.47
      293.0,      12.08,    13.51,    13.48,     9.88,    11.44
      294.0,      12.06,    13.48,    13.46,     9.86,    11.41
      295.0,      12.03,    13.46,    13.44,     9.84,    11.39
      296.0,      12.01,    13.43,    13.42,     9.83,    11.36
      297.0,      11.98,    13.40,    13.39,     9.81,    11.33
      298.0,      11.96,    13.37,    13.37,     9.79,    11.30
      299.0,      11.94,    13.34,    13.35,     9.78,    11.28
      300.0,      11.91,    13.31,    13.33,     9.76,    11.25
      301.0,      11.89,    13.28,    13.30,     9.74,    11.22
      302.0,      11.86,    13.26,    13.28,     9.73,    11.19
      303.0,      11.84,    13.23,    13.26,     9.71,    11.17
      304.0,      11.82,    13.20,    13.24,     9.69,    11.14
      305.0,      11.79,    13.17,    13.21,     9.68,    11.11
      306.0,      11.77,    13.14,    13.19,     9.66,    11.08
      307.0,      11.75,    13.11,    13.17,     9.65,    11.06
      308.0,      11.72,    13.09,    13.15,     9.63,    11.03
      309.0,      11.70,    13.06,    13.12,     9.61,    11.00
      310.0,      11.68,    13.03,    13.10,     9.60,    10.98
