Radius (km), Mean (m/s), NE (m/s), SE (m/s), SW (m/s), NW (m/s)
        0.0,       0.00,     0.00,     0.00,     0.00,     0.00
        1.0,       2.23,     2.23,     2.23,     2.23,     2.23
        2.0,       3.62,     3.62,     3.62,     3.62,     3.62
        3.0,       4.80,     4.80,     4.80,     4.80,     4.80
        4.0,       5.87,     5.87,     5.87,     5.87,     5.87
        5.0,       6.86,     6.86,     6.86,     6.86,     6.86
        6.0,       7.79,     7.79,     7.79,     7.79,     7.79
        7.0,       8.67,     8.67,     8.67,     8.67,     8.67
        8.0,       9.52,     9.52,     9.52,     9.52,     9.52
        9.0,      10.33,    10.33,    10.33,    10.33,    10.33
       10.0,      11.12,    11.12,    11.12,    11.12,    11.12
       11.0,      11.89,    11.89,    11.89,    11.89,    11.89
       12.0,      12.63,    12.63,    12.63,    12.63,    12.63
       13.0,      13.36,    13.36,    13.36,    13.36,    13.36
       14.0,      14.07,    14.07,    14.07,    14.07,    14.07
       15.0,      14.76,    14.76,    14.76,    14.76,    14.76
       16.0,      15.44,    15.44,    15.44,    15.44,    15.44
       17.0,      16.11,    16.11,    16.11,    16.11,    16.11
       18.0,      16.77,    16.77,    16.77,    16.77,    16.77
       19.0,      17.41,    17.41,    17.41,    17.41,    17.41
       20.0,      18.05,    18.05,    18.05,    18.05,    18.05
       21.0,      18.68,    18.68,    18.68,    18.68,    18.68
       22.0,      19.31,    19.32,    19.31,    19.30,    19.33
       23.0,      19.98,    19.99,    19.98,    19.94,    20.00
       24.0,      20.70,    20.72,    20.71,    20.63,    20.73
       25.0,      21.48,    21.54,    21.50,    21.37,    21.51
       26.0,      22.33,    22.43,    22.37,    22.18,    22.35
       27.0,      23.24,    23.38,    23.29,    23.05,    23.22
       28.0,      24.16,    24.36,    24.24,    23.96,    24.10
       29.0,      25.07,    25.31,    25.16,    24.85,    24.95
       30.0,      25.91,    26.18,    26.01,    25.70,    25.73
       31.0,      26.63,    26.93,    26.74,    26.44,    26.40
       32.0,      27.21,    27.51,    27.32,    27.05,    26.95
       33.0,      27.62,    27.90,    27.72,    27.50,    27.35
       34.0,      27.86,    28.10,    27.95,    27.79,    27.62
       35.0,      27.95,    28.12,    28.01,    27.91,    27.76
       36.0,      27.90,    28.00,    27.94,    27.89,    27.79
       37.0,      27.76,    27.76,    27.76,    27.76,    27.76
       38.0,      27.56,    27.47,    27.53,    27.56,    27.67
       39.0,      27.32,    27.14,    27.26,    27.33,    27.57
       40.0,      27.08,    26.80,    26.99,    27.08,    27.46
       41.0,      26.85,    26.48,    26.73,    26.84,    27.35
       42.0,      26.63,    26.17,    26.48,    26.61,    27.25
       43.0,      26.42,    25.87,    26.24,    26.40,    27.15
       44.0,      26.21,    25.59,    26.01,    26.20,    27.06
       45.0,      26.02,    25.31,    25.79,    26.00,    26.96
       46.0,      25.83,    25.04,    25.58,    25.81,    26.87
       47.0,      25.64,    24.78,    25.37,    25.63,    26.77
       48.0,      25.46,    24.52,    25.17,    25.45,    26.68
       49.0,      25.28,    24.27,    24.97,    25.28,    26.59
       50.0,      25.11,    24.03,    24.78,    25.11,    26.50
       51.0,      24.94,    23.80,    24.60,    24.95,    26.41
       52.0,      24.78,    23.57,    24.42,    24.80,    26.33
       53.0,      24.62,    23.34,    24.24,    24.64,    26.24
       54.0,      24.46,    23.13,    24.07,    24.50,    26.16
       55.0,      24.31,    22.92,    23.91,    24.35,    26.07
       56.0,      24.17,    22.71,    23.75,    24.21,    25.99
       57.0,      24.02,    22.51,    23.59,    24.08,    25.91
       58.0,      23.88,    22.32,    23.44,    23.95,    25.82
       59.0,      23.75,    22.13,    23.30,    23.82,    25.74
       60.0,      23.61,    21.94,    23.15,    23.70,    25.66
       61.0,      23.49,    21.76,    23.01,    23.58,    25.59
       62.0,      23.36,    21.59,    22.88,    23.46,    25.51
       63.0,      23.24,    21.42,    22.75,    23.35,    25.43
       64.0,      23.12,    21.26,    22.62,    23.24,    25.36
       65.0,      23.00,    21.09,    22.50,    23.13,    25.28
       66.0,      22.89,    20.94,    22.38,    23.02,    25.21
       67.0,      22.77,    20.79,    22.26,    22.92,    25.13
       68.0,      22.67,    20.64,    22.14,    22.82,    25.06
       69.0,      22.56,    20.49,    22.03,    22.72,    24.99
       70.0,      22.46,    20.35,    21.92,    22.63,    24.92
       71.0,      22.35,    20.21,    21.82,    22.54,    24.85
       72.0,      22.26,    20.08,    21.72,    22.45,    24.78
       73.0,      22.16,    19.95,    21.62,    22.36,    24.71
       74.0,      22.06,    19.82,    21.52,    22.27,    24.64
       75.0,      21.97,    19.70,    21.42,    22.19,    24.58
       76.0,      21.88,    19.58,    21.33,    22.11,    24.51
       77.0,      21.79,    19.46,    21.24,    22.03,    24.45
       78.0,      21.71,    19.35,    21.15,    21.95,    24.38
       79.0,      21.62,    19.24,    21.06,    21.87,    24.32
       80.0,      21.54,    19.13,    20.98,    21.79,    24.25
       81.0,      21.46,    19.02,    20.90,    21.72,    24.19
       82.0,      21.38,    18.92,    20.82,    21.65,    24.13
       83.0,      21.30,    18.82,    20.74,    21.58,    24.07
       84.0,      21.22,    18.72,    20.67,    21.51,    24.01
       85.0,      21.15,    18.62,    20.59,    21.44,    23.95
       86.0,      21.08,    18.53,    20.52,    21.37,    23.89
       87.0,      21.01,    18.44,    20.45,    21.31,    23.83
       88.0,      20.94,    18.35,    20.38,    21.25,    23.77
       89.0,      20.87,    18.26,    20.31,    21.18,    23.71
       90.0,      20.80,    18.18,    20.24,    21.12,    23.66
       91.0,      20.73,    18.09,    20.18,    21.06,    23.60
       92.0,      20.67,    18.01,    20.12,    21.00,    23.54
       93.0,      20.60,    17.93,    20.05,    20.94,    23.49
       94.0,      20.54,    17.86,    19.99,    20.88,    23.43
       95.0,      20.48,    17.78,    19.93,    20.83,    23.38
       96.0,      20.42,    17.71,    19.87,    20.77,    23.33
       97.0,      20.36,    17.63,    19.82,    20.72,    23.27
       98.0,      20.30,    17.56,    19.76,    20.66,    23.22
       99.0,      20.25,    17.50,    19.71,    20.61,    23.17
      100.0,      20.19,    17.43,    19.65,    20.56,    23.12
      101.0,      20.13,    17.36,    19.60,    20.50,    23.07
      102.0,      20.08,    17.30,    19.55,    20.45,    23.02
      103.0,      20.03,    17.24,    19.50,    20.40,    22.97
      104.0,      19.97,    17.18,    19.45,    20.35,    22.92
      105.0,      19.92,    17.12,    19.40,    20.30,    22.87
      106.0,      19.87,    17.06,    19.35,    20.25,    22.82
      107.0,      19.82,    17.00,    19.31,    20.21,    22.77
      108.0,      19.77,    16.94,    19.26,    20.16,    22.72
      109.0,      19.72,    16.89,    19.21,    20.11,    22.68
      110.0,      19.67,    16.83,    19.17,    20.07,    22.63
      111.0,      19.63,    16.78,    19.13,    20.02,    22.58
      112.0,      19.58,    16.73,    19.08,    19.98,    22.54
      113.0,      19.54,    16.68,    19.04,    19.93,    22.49
      114.0,      19.49,    16.63,    19.00,    19.89,    22.44
      115.0,      19.45,    16.58,    18.96,    19.84,    22.40
      116.0,      19.40,    16.53,    18.92,    19.80,    22.36
      117.0,      19.36,    16.49,    18.88,    19.76,    22.31
      118.0,      19.32,    16.44,    18.84,    19.71,    22.27
      119.0,      19.27,    16.40,    18.80,    19.67,    22.22
      120.0,      19.23,    16.35,    18.76,    19.63,    22.18
      121.0,      19.19,    16.31,    18.73,    19.59,    22.14
      122.0,      19.15,    16.27,    18.69,    19.55,    22.10
      123.0,      19.11,    16.23,    18.65,    19.51,    22.06
      124.0,      19.07,    16.19,    18.62,    19.47,    22.01
      125.0,      19.03,    16.15,    18.58,    19.43,    21.97
      126.0,      18.99,    16.11,    18.55,    19.39,    21.93
      127.0,      18.95,    16.07,    18.51,    19.35,    21.89
      128.0,      18.92,    16.03,    18.48,    19.31,    21.85
      129.0,      18.88,    16.00,    18.44,    19.27,    21.81
      130.0,      18.84,    15.96,    18.41,    19.23,    21.77
      131.0,      18.81,    15.92,    18.38,    19.19,    21.73
      132.0,      18.77,    15.89,    18.35,    19.15,    21.69
      133.0,      18.73,    15.85,    18.31,    19.11,    21.66
      134.0,      18.70,    15.82,    18.28,    19.08,    21.62
      135.0,      18.66,    15.79,    18.25,    19.04,    21.58
      136.0,      18.63,    15.75,    18.22,    19.00,    21.54
      137.0,      18.60,    15.72,    18.19,    18.96,    21.51
      138.0,      18.56,    15.69,    18.16,    18.93,    21.47
      139.0,      18.53,    15.66,    18.13,    18.89,    21.43
      140.0,      18.49,    15.63,    18.10,    18.86,    21.39
      141.0,      18.46,    15.60,    18.07,    18.82,    21.36
      142.0,      18.43,    15.57,    18.04,    18.78,    21.32
      143.0,      18.40,    15.54,    18.01,    18.75,    21.29
      144.0,      18.36,    15.51,    17.98,    18.71,    21.25
      145.0,      18.33,    15.48,    17.96,    18.68,    21.22
      146.0,      18.30,    15.45,    17.93,    18.64,    21.18
      147.0,      18.27,    15.42,    17.90,    18.61,    21.15
      148.0,      18.24,    15.40,    17.87,    18.57,    21.11
      149.0,      18.21,    15.37,    17.84,    18.54,    21.08
      150.0,      18.18,    15.34,    17.82,    18.50,    21.04
      151.0,      18.15,    15.32,    17.79,    18.47,    21.01
      152.0,      18.12,    15.29,    17.76,    18.43,    20.98
      153.0,      18.09,    15.26,    17.74,    18.40,    20.94
      154.0,      18.06,    15.24,    17.71,    18.36,    20.91
      155.0,      18.03,    15.21,    17.69,    18.33,    20.88
      156.0,      18.00,    15.19,    17.66,    18.30,    20.85
      157.0,      17.97,    15.17,    17.63,    18.26,    20.81
      158.0,      17.94,    15.14,    17.61,    18.23,    20.78
      159.0,      17.91,    15.12,    17.58,    18.20,    20.75
      160.0,      17.88,    15.09,    17.56,    18.16,    20.72
      161.0,      17.85,    15.07,    17.53,    18.13,    20.69
      162.0,      17.83,    15.05,    17.51,    18.10,    20.65
      163.0,      17.80,    15.03,    17.48,    18.06,    20.62
      164.0,      17.77,    15.00,    17.46,    18.03,    20.59
      165.0,      17.74,    14.98,    17.43,    18.00,    20.56
      166.0,      17.72,    14.96,    17.41,    17.96,    20.53
      167.0,      17.69,    14.94,    17.39,    17.93,    20.50
      168.0,      17.66,    14.91,    17.36,    17.90,    20.47
      169.0,      17.63,    14.89,    17.34,    17.87,    20.44
      170.0,      17.61,    14.87,    17.31,    17.83,    20.41
      171.0,      17.58,    14.85,    17.29,    17.80,    20.38
      172.0,      17.55,    14.83,    17.27,    17.77,    20.35
      173.0,      17.53,    14.81,    17.24,    17.74,    20.32
      174.0,      17.50,    14.79,    17.22,    17.71,    20.29
      175.0,      17.48,    14.77,    17.20,    17.67,    20.26
      176.0,      17.45,    14.75,    17.17,    17.64,    20.24
      177.0,      17.42,    14.73,    17.15,    17.61,    20.21
      178.0,      17.40,    14.71,    17.13,    17.58,    20.18
      179.0,      17.37,    14.69,    17.11,    17.55,    20.15
      180.0,      17.35,    14.67,    17.08,    17.52,    20.12
      181.0,      17.32,    14.65,    17.06,    17.49,    20.09
      182.0,      17.30,    14.63,    17.04,    17.45,    20.07
      183.0,      17.27,    14.61,    17.02,    17.42,    20.04
      184.0,      17.25,    14.60,    16.99,    17.39,    20.01
      185.0,      17.22,    14.58,    16.97,    17.36,    19.98
      186.0,      17.20,    14.56,    16.95,    17.33,    19.96
      187.0,      17.17,    14.54,    16.93,    17.30,    19.93
      188.0,      17.15,    14.52,    16.90,    17.27,    19.90
      189.0,      17.12,    14.50,    16.88,    17.24,    19.87
      190.0,      17.10,    14.49,    16.86,    17.21,    19.85
      191.0,      17.08,    14.47,    16.84,    17.18,    19.82
      192.0,      17.05,    14.45,    16.82,    17.15,    19.79
      193.0,      17.03,    14.43,    16.80,    17.12,    19.77
      194.0,      17.00,    14.42,    16.77,    17.09,    19.74
      195.0,      16.98,    14.40,    16.75,    17.06,    19.72
      196.0,      16.96,    14.38,    16.73,    17.03,    19.69
      197.0,      16.93,    14.36,    16.71,    17.00,    19.66
      198.0,      16.91,    14.35,    16.69,    16.97,    19.64
      199.0,      16.89,    14.33,    16.67,    16.94,    19.61
      200.0,      16.86,    14.31,    16.65,    16.91,    19.59
      201.0,      16.84,    14.30,    16.63,    16.88,    19.56
      202.0,      16.82,    14.28,    16.60,    16.85,    19.54
      203.0,      16.79,    14.26,    16.58,    16.82,    19.51
      204.0,      16.77,    14.25,    16.56,    16.79,    19.49
      205.0,      16.75,    14.23,    16.54,    16.76,    19.46
      206.0,      16.72,    14.21,    16.52,    16.73,    19.44
      207.0,      16.70,    14.20,    16.50,    16.70,    19.41
      208.0,      16.68,    14.18,    16.48,    16.67,    19.39
      209.0,      16.66,    14.16,    16.46,    16.64,    19.36
      210.0,      16.63,    14.15,    16.44,    16.61,    19.34
      211.0,      16.61,    14.13,    16.42,    16.58,    19.31
      212.0,      16.59,    14.12,    16.40,    16.55,    19.29
      213.0,      16.57,    14.10,    16.38,    16.52,    19.26
      214.0,      16.54,    14.08,    16.36,    16.49,    19.24
      215.0,      16.52,    14.07,    16.34,    16.46,    19.22
      216.0,      16.50,    14.05,    16.32,    16.43,    19.19
      217.0,      16.48,    14.04,    16.30,    16.41,    19.17
      218.0,      16.46,    14.02,    16.28,    16.38,    19.15
      219.0,      16.43,    14.01,    16.26,    16.35,    19.12
      220.0,      16.41,    13.99,    16.24,    16.32,    19.10
      221.0,      16.39,    13.98,    16.22,    16.29,    19.08
      222.0,      16.37,    13.96,    16.20,    16.26,    19.05
      223.0,      16.35,    13.95,    16.18,    16.23,    19.03
      224.0,      16.32,    13.93,    16.16,    16.21,    19.01
      225.0,      16.30,    13.92,    16.14,    16.18,    18.98
      226.0,      16.28,    13.90,    16.12,    16.15,    18.96
      227.0,      16.26,    13.88,    16.10,    16.12,    18.94
      228.0,      16.24,    13.87,    16.08,    16.09,    18.91
      229.0,      16.22,    13.85,    16.06,    16.06,    18.89
      230.0,      16.19,    13.84,    16.04,    16.04,    18.87
      231.0,      16.17,    13.83,    16.02,    16.01,    18.85
      232.0,      16.15,    13.81,    16.00,    15.98,    18.82
      233.0,      16.13,    13.80,    15.98,    15.95,    18.80
      234.0,      16.11,    13.78,    15.96,    15.92,    18.78
      235.0,      16.09,    13.77,    15.94,    15.90,    18.76
      236.0,      16.07,    13.75,    15.92,    15.87,    18.73
      237.0,      16.05,    13.74,    15.90,    15.84,    18.71
      238.0,      16.03,    13.72,    15.88,    15.81,    18.69
      239.0,      16.00,    13.71,    15.86,    15.78,    18.67
      240.0,      15.98,    13.69,    15.84,    15.76,    18.65
      241.0,      15.96,    13.68,    15.82,    15.73,    18.62
      242.0,      15.94,    13.66,    15.80,    15.70,    18.60
      243.0,      15.92,    13.65,    15.78,    15.67,    18.58
      244.0,      15.90,    13.64,    15.76,    15.65,    18.56
      245.0,      15.88,    13.62,    15.74,    15.62,    18.54
      246.0,      15.86,    13.61,    15.72,    15.59,    18.52
      247.0,      15.84,    13.59,    15.71,    15.56,    18.49
      248.0,      15.82,    13.58,    15.69,    15.54,    18.47
      249.0,      15.80,    13.56,    15.67,    15.51,    18.45
      250.0,      15.78,    13.55,    15.65,    15.48,    18.43
      251.0,      15.76,    13.54,    15.63,    15.46,    18.41
      252.0,      15.74,    13.52,    15.61,    15.43,    18.39
      253.0,      15.72,    13.51,    15.59,    15.40,    18.37
      254.0,      15.70,    13.49,    15.57,    15.37,    18.35
      255.0,      15.68,    13.48,    15.55,    15.35,    18.33
      256.0,      15.66,    13.47,    15.53,    15.32,    18.30
      257.0,      15.64,    13.45,    15.52,    15.29,    18.28
      258.0,      15.62,    13.44,    15.50,    15.27,    18.26
      259.0,      15.60,    13.42,    15.48,    15.24,    18.24
      260.0,      15.58,    13.41,    15.46,    15.21,    18.22
      261.0,      15.56,    13.40,    15.44,    15.19,    18.20
      262.0,      15.54,    13.38,    15.42,    15.16,    18.18
      263.0,      15.52,    13.37,    15.40,    15.13,    18.16
      264.0,      15.50,    13.36,    15.38,    15.11,    18.14
      265.0,      15.48,    13.34,    15.37,    15.08,    18.12
      266.0,      15.46,    13.33,    15.35,    15.05,    18.10
      267.0,      15.44,    13.31,    15.33,    15.03,    18.08
      268.0,      15.42,    13.30,    15.31,    15.00,    18.06
      269.0,      15.40,    13.29,    15.29,    14.98,    18.04
      270.0,      15.38,    13.27,    15.27,    14.95,    18.02
      271.0,      15.36,    13.26,    15.25,    14.92,    18.00
      272.0,      15.34,    13.25,    15.24,    14.90,    17.98
      273.0,      15.32,    13.23,    15.22,    14.87,    17.96
      274.0,      15.30,    13.22,    15.20,    14.84,    17.94
      275.0,      15.28,    13.21,    15.18,    14.82,    17.92
      276.0,      15.26,    13.19,    15.16,    14.79,    17.90
      277.0,      15.24,    13.18,    15.14,    14.77,    17.88
      278.0,      15.22,    13.17,    15.12,    14.74,    17.86
      279.0,      15.20,    13.15,    15.11,    14.72,    17.84
      280.0,      15.18,    13.14,    15.09,    14.69,    17.82
      281.0,      15.16,    13.13,    15.07,    14.66,    17.80
      282.0,      15.15,    13.11,    15.05,    14.64,    17.78
      283.0,      15.13,    13.10,    15.03,    14.61,    17.76
      284.0,      15.11,    13.09,    15.02,    14.59,    17.74
      285.0,      15.09,    13.07,    15.00,    14.56,    17.72
      286.0,      15.07,    13.06,    14.98,    14.54,    17.70
      287.0,      15.05,    13.05,    14.96,    14.51,    17.68
      288.0,      15.03,    13.03,    14.94,    14.49,    17.66
      289.0,      15.01,    13.02,    14.92,    14.46,    17.64
      290.0,      14.99,    13.01,    14.91,    14.43,    17.62
      291.0,      14.97,    12.99,    14.89,    14.41,    17.61
      292.0,      14.96,    12.98,    14.87,    14.38,    17.59
      293.0,      14.94,    12.97,    14.85,    14.36,    17.57
      294.0,      14.92,    12.95,    14.83,    14.33,    17.55
      295.0,      14.90,    12.94,    14.82,    14.31,    17.53
      296.0,      14.88,    12.93,    14.80,    14.28,    17.51
      297.0,      14.86,    12.91,    14.78,    14.26,    17.49
      298.0,      14.84,    12.90,    14.76,    14.23,    17.47
      299.0,      14.82,    12.89,    14.75,    14.21,    17.45
      300.0,      14.81,    12.87,    14.73,    14.18,    17.43
      301.0,      14.79,    12.86,    14.71,    14.16,    17.42
      302.0,      14.77,    12.85,    14.69,    14.13,    17.40
      303.0,      14.75,    12.84,    14.67,    14.11,    17.38
      304.0,      14.73,    12.82,    14.66,    14.08,    17.36
      305.0,      14.71,    12.81,    14.64,    14.06,    17.34
      306.0,      14.69,    12.80,    14.62,    14.04,    17.32
      307.0,      14.68,    12.78,    14.60,    14.01,    17.30
      308.0,      14.66,    12.77,    14.59,    13.99,    17.29
      309.0,      14.64,    12.76,    14.57,    13.96,    17.27
      310.0,      14.62,    12.75,    14.55,    13.94,    17.25
