Radius (km), Mean (m/s), NE (m/s), SE (m/s), SW (m/s), NW (m/s)
        0.0,       0.00,     0.00,     0.00,     0.00,     0.00
        1.0,       1.13,     1.12,     1.12,     1.12,     1.19
        2.0,       1.69,     1.67,     1.67,     1.67,     1.73
        3.0,       2.13,     2.12,     2.12,     2.12,     2.16
        4.0,       2.51,     2.50,     2.50,     2.50,     2.53
        5.0,       2.85,     2.85,     2.85,     2.85,     2.86
        6.0,       3.17,     3.17,     3.17,     3.17,     3.16
        7.0,       3.46,     3.47,     3.47,     3.47,     3.44
        8.0,       3.74,     3.75,     3.75,     3.75,     3.71
        9.0,       4.00,     4.01,     4.01,     4.01,     3.95
       10.0,       4.25,     4.26,     4.26,     4.26,     4.19
       11.0,       4.48,     4.51,     4.51,     4.51,     4.41
       12.0,       4.71,     4.74,     4.74,     4.74,     4.63
       13.0,       4.94,     4.97,     4.97,     4.97,     4.83
       14.0,       5.15,     5.19,     5.19,     5.19,     5.04
       15.0,       5.36,     5.40,     5.40,     5.40,     5.23
       16.0,       5.56,     5.61,     5.61,     5.61,     5.42
       17.0,       5.76,     5.81,     5.81,     5.81,     5.60
       18.0,       5.95,     6.01,     6.01,     6.01,     5.78
       19.0,       6.14,     6.20,     6.20,     6.20,     5.95
       20.0,       6.32,     6.39,     6.39,     6.39,     6.12
       21.0,       6.50,     6.57,     6.57,     6.57,     6.29
       22.0,       6.67,     6.75,     6.75,     6.75,     6.45
       23.0,       6.85,     6.93,     6.93,     6.93,     6.61
       24.0,       7.02,     7.10,     7.10,     7.10,     6.77
       25.0,       7.18,     7.27,     7.27,     7.27,     6.92
       26.0,       7.35,     7.44,     7.44,     7.44,     7.07
       27.0,       7.51,     7.60,     7.60,     7.60,     7.22
       28.0,       7.67,     7.77,     7.77,     7.77,     7.36
       29.0,       7.82,     7.93,     7.93,     7.93,     7.50
       30.0,       7.98,     8.09,     8.09,     8.09,     7.65
       31.0,       8.13,     8.24,     8.24,     8.24,     7.78
       32.0,       8.28,     8.39,     8.39,     8.39,     7.92
       33.0,       8.42,     8.55,     8.55,     8.55,     8.06
       34.0,       8.57,     8.70,     8.70,     8.70,     8.19
       35.0,       8.71,     8.84,     8.84,     8.84,     8.32
       36.0,       8.86,     8.99,     8.99,     8.99,     8.45
       37.0,       9.00,     9.14,     9.14,     9.14,     8.58
       38.0,       9.13,     9.28,     9.28,     9.28,     8.70
       39.0,       9.27,     9.42,     9.42,     9.42,     8.83
       40.0,       9.41,     9.56,     9.56,     9.56,     8.95
       41.0,       9.54,     9.70,     9.70,     9.70,     9.07
       42.0,       9.67,     9.83,     9.83,     9.83,     9.19
       43.0,       9.81,     9.97,     9.97,     9.97,     9.31
       44.0,       9.94,    10.10,    10.10,    10.10,     9.43
       45.0,      10.07,    10.24,    10.24,    10.24,     9.55
       46.0,      10.19,    10.37,    10.37,    10.37,     9.66
       47.0,      10.32,    10.50,    10.50,    10.50,     9.78
       48.0,      10.45,    10.63,    10.63,    10.63,     9.89
       49.0,      10.57,    10.76,    10.76,    10.76,    10.00
       50.0,      10.69,    10.89,    10.89,    10.89,    10.12
       51.0,      10.82,    11.01,    11.01,    11.01,    10.23
       52.0,      10.94,    11.14,    11.14,    11.14,    10.34
       53.0,      11.06,    11.26,    11.26,    11.26,    10.44
       54.0,      11.18,    11.38,    11.38,    11.38,    10.55
       55.0,      11.29,    11.51,    11.51,    11.51,    10.66
       56.0,      11.41,    11.63,    11.63,    11.63,    10.76
       57.0,      11.53,    11.75,    11.75,    11.75,    10.87
       58.0,      11.64,    11.87,    11.87,    11.87,    10.97
       59.0,      11.76,    11.99,    11.99,    11.99,    11.08
       60.0,      11.87,    12.10,    12.10,    12.10,    11.18
       61.0,      11.99,    12.22,    12.22,    12.22,    11.28
       62.0,      12.10,    12.34,    12.34,    12.34,    11.38
       63.0,      12.21,    12.45,    12.45,    12.45,    11.48
       64.0,      12.32,    12.57,    12.57,    12.57,    11.58
       65.0,      12.43,    12.68,    12.68,    12.68,    11.68
       66.0,      12.54,    12.80,    12.80,    12.80,    11.78
       67.0,      12.65,    12.91,    12.91,    12.91,    11.88
       68.0,      12.76,    13.02,    13.02,    13.02,    11.97
       69.0,      12.87,    13.13,    13.13,    13.13,    12.07
       70.0,      12.97,    13.24,    13.24,    13.24,    12.16
       71.0,      13.08,    13.35,    13.35,    13.35,    12.26
       72.0,      13.18,    13.46,    13.46,    13.46,    12.35
       73.0,      13.29,    13.57,    13.57,    13.57,    12.45
       74.0,      13.39,    13.68,    13.68,    13.68,    12.54
       75.0,      13.50,    13.78,    13.78,    13.78,    12.63
       76.0,      13.60,    13.89,    13.89,    13.89,    12.72
       77.0,      13.70,    14.00,    14.00,    14.00,    12.82
       78.0,      13.80,    14.10,    14.10,    14.10,    12.91
       79.0,      13.90,    14.21,    14.21,    14.21,    13.00
       80.0,      14.01,    14.31,    14.31,    14.31,    13.09
       81.0,      14.11,    14.42,    14.42,    14.42,    13.18
       82.0,      14.21,    14.52,    14.52,    14.52,    13.27
       83.0,      14.30,    14.62,    14.62,    14.62,    13.35
       84.0,      14.40,    14.72,    14.72,    14.72,    13.44
       85.0,      14.50,    14.83,    14.83,    14.83,    13.53
       86.0,      14.60,    14.93,    14.93,    14.93,    13.62
       87.0,      14.70,    15.03,    15.03,    15.03,    13.70
       88.0,      14.79,    15.13,    15.13,    15.13,    13.79
       89.0,      14.89,    15.23,    15.23,    15.23,    13.87
       90.0,      14.99,    15.33,    15.33,    15.33,    13.96
       91.0,      15.08,    15.43,    15.43,    15.43,    14.04
       92.0,      15.18,    15.52,    15.52,    15.52,    14.13
       93.0,      15.27,    15.62,    15.62,    15.62,    14.21
       94.0,      15.36,    15.72,    15.72,    15.72,    14.30
       95.0,      15.46,    15.82,    15.82,    15.82,    14.38
       96.0,      15.55,    15.91,    15.91,    15.91,    14.46
       97.0,      15.64,    16.01,    16.01,    16.01,    14.54
       98.0,      15.74,    16.11,    16.11,    16.11,    14.63
       99.0,      15.83,    16.20,    16.20,    16.20,    14.71
      100.0,      15.92,    16.30,    16.30,    16.30,    14.79
      101.0,      16.01,    16.39,    16.39,    16.39,    14.87
      102.0,      16.10,    16.49,    16.49,    16.49,    14.95
      103.0,      16.19,    16.58,    16.58,    16.58,    15.03
      104.0,      16.28,    16.67,    16.67,    16.67,    15.11
      105.0,      16.37,    16.77,    16.77,    16.77,    15.19
      106.0,      16.46,    16.86,    16.86,    16.86,    15.27
      107.0,      16.55,    16.95,    16.95,    16.95,    15.35
      108.0,      16.64,    17.04,    17.04,    17.04,    15.43
      109.0,      16.73,    17.14,    17.14,    17.14,    15.51
      110.0,      16.82,    17.23,    17.23,    17.23,    15.58
      111.0,      16.90,    17.32,    17.32,    17.32,    15.66
      112.0,      16.99,    17.41,    17.41,    17.41,    15.74
      113.0,      17.08,    17.50,    17.50,    17.50,    15.81
      114.0,      17.16,    17.59,    17.59,    17.59,    15.89
      115.0,      17.25,    17.68,    17.68,    17.68,    15.97
      116.0,      17.34,    17.77,    17.77,    17.77,    16.04
      117.0,      17.42,    17.86,    17.86,    17.86,    16.12
      118.0,      17.51,    17.95,    17.95,    17.95,    16.19
      119.0,      17.59,    18.03,    18.03,    18.03,    16.27
      120.0,      17.68,    18.12,    18.12,    18.12,    16.34
      121.0,      17.76,    18.21,    18.21,    18.21,    16.42
      122.0,      17.85,    18.30,    18.30,    18.30,    16.49
      123.0,      17.93,    18.38,    18.38,    18.38,    16.57
      124.0,      18.01,    18.47,    18.47,    18.47,    16.64
      125.0,      18.10,    18.56,    18.56,    18.56,    16.71
      126.0,      18.18,    18.64,    18.64,    18.64,    16.79
      127.0,      18.26,    18.73,    18.73,    18.73,    16.86
      128.0,      18.35,    18.82,    18.82,    18.82,    16.93
      129.0,      18.43,    18.90,    18.90,    18.90,    17.00
      130.0,      18.51,    18.99,    18.99,    18.99,    17.08
      131.0,      18.59,    19.07,    19.07,    19.07,    17.15
      132.0,      18.67,    19.16,    19.16,    19.16,    17.22
      133.0,      18.75,    19.24,    19.24,    19.24,    17.29
      134.0,      18.83,    19.32,    19.32,    19.32,    17.36
      135.0,      18.91,    19.41,    19.41,    19.41,    17.43
      136.0,      19.00,    19.49,    19.49,    19.49,    17.50
      137.0,      19.08,    19.58,    19.58,    19.58,    17.57
      138.0,      19.16,    19.66,    19.66,    19.66,    17.64
      139.0,      19.23,    19.74,    19.74,    19.74,    17.71
      140.0,      19.31,    19.82,    19.82,    19.82,    17.78
      141.0,      19.39,    19.91,    19.91,    19.91,    17.85
      142.0,      19.47,    19.99,    19.99,    19.99,    17.92
      143.0,      19.55,    20.07,    20.07,    20.07,    17.99
      144.0,      19.63,    20.15,    20.15,    20.15,    18.06
      145.0,      19.71,    20.23,    20.23,    20.23,    18.13
      146.0,      19.79,    20.31,    20.31,    20.31,    18.20
      147.0,      19.86,    20.40,    20.40,    20.40,    18.27
      148.0,      19.94,    20.48,    20.48,    20.48,    18.33
      149.0,      20.02,    20.56,    20.56,    20.56,    18.40
      150.0,      20.09,    20.64,    20.64,    20.64,    18.47
      151.0,      20.17,    20.72,    20.72,    20.72,    18.54
      152.0,      20.25,    20.80,    20.80,    20.80,    18.60
      153.0,      20.32,    20.88,    20.88,    20.88,    18.67
      154.0,      20.40,    20.96,    20.96,    20.96,    18.74
      155.0,      20.49,    21.04,    21.05,    21.05,    18.81
      156.0,      20.59,    21.15,    21.15,    21.15,    18.90
      157.0,      20.70,    21.27,    21.27,    21.26,    19.00
      158.0,      20.84,    21.42,    21.40,    21.40,    19.12
      159.0,      20.98,    21.60,    21.55,    21.54,    19.24
      160.0,      21.14,    21.78,    21.70,    21.68,    19.38
      161.0,      21.28,    21.96,    21.84,    21.82,    19.50
      162.0,      21.40,    22.10,    21.96,    21.93,    19.61
      163.0,      21.48,    22.20,    22.04,    22.01,    19.68
      164.0,      21.52,    22.23,    22.08,    22.05,    19.71
      165.0,      21.50,    22.18,    22.07,    22.05,    19.69
      166.0,      21.43,    22.06,    22.01,    22.00,    19.63
      167.0,      21.31,    21.88,    21.91,    21.91,    19.53
      168.0,      21.15,    21.63,    21.77,    21.79,    19.40
      169.0,      20.96,    21.34,    21.62,    21.66,    19.24
      170.0,      20.77,    21.04,    21.45,    21.51,    19.07
      171.0,      20.57,    20.73,    21.29,    21.36,    18.90
      172.0,      20.38,    20.43,    21.13,    21.22,    18.74
      173.0,      20.20,    20.15,    20.98,    21.09,    18.59
      174.0,      20.04,    19.89,    20.84,    20.97,    18.45
      175.0,      19.88,    19.65,    20.71,    20.85,    18.31
      176.0,      19.73,    19.42,    20.58,    20.74,    18.18
      177.0,      19.59,    19.19,    20.46,    20.63,    18.06
      178.0,      19.45,    18.98,    20.34,    20.53,    17.94
      179.0,      19.31,    18.77,    20.23,    20.43,    17.83
      180.0,      19.18,    18.57,    20.12,    20.33,    17.72
      181.0,      19.06,    18.38,    20.01,    20.24,    17.61
      182.0,      18.94,    18.20,    19.91,    20.14,    17.51
      183.0,      18.82,    18.02,    19.81,    20.06,    17.41
      184.0,      18.71,    17.85,    19.71,    19.97,    17.31
      185.0,      18.60,    17.69,    19.62,    19.89,    17.22
      186.0,      18.50,    17.53,    19.53,    19.81,    17.12
      187.0,      18.40,    17.37,    19.44,    19.73,    17.04
      188.0,      18.30,    17.23,    19.36,    19.65,    16.95
      189.0,      18.20,    17.08,    19.28,    19.58,    16.87
      190.0,      18.11,    16.95,    19.20,    19.51,    16.79
      191.0,      18.02,    16.81,    19.12,    19.44,    16.72
      192.0,      17.94,    16.68,    19.05,    19.37,    16.64
      193.0,      17.85,    16.56,    18.97,    19.30,    16.57
      194.0,      17.77,    16.44,    18.90,    19.24,    16.50
      195.0,      17.69,    16.33,    18.84,    19.18,    16.43
      196.0,      17.62,    16.22,    18.77,    19.12,    16.37
      197.0,      17.54,    16.11,    18.71,    19.06,    16.30
      198.0,      17.47,    16.00,    18.64,    19.01,    16.24
      199.0,      17.40,    15.90,    18.58,    18.95,    16.18
      200.0,      17.34,    15.81,    18.52,    18.90,    16.12
      201.0,      17.27,    15.71,    18.47,    18.84,    16.07
      202.0,      17.21,    15.62,    18.41,    18.79,    16.01
      203.0,      17.15,    15.54,    18.36,    18.74,    15.96
      204.0,      17.09,    15.45,    18.30,    18.70,    15.91
      205.0,      17.03,    15.37,    18.25,    18.65,    15.86
      206.0,      16.98,    15.29,    18.20,    18.60,    15.81
      207.0,      16.92,    15.22,    18.15,    18.56,    15.76
      208.0,      16.87,    15.14,    18.11,    18.51,    15.72
      209.0,      16.82,    15.07,    18.06,    18.47,    15.67
      210.0,      16.77,    15.00,    18.02,    18.43,    15.63
      211.0,      16.72,    14.93,    17.97,    18.39,    15.58
      212.0,      16.67,    14.87,    17.93,    18.35,    15.54
      213.0,      16.63,    14.81,    17.89,    18.31,    15.50
      214.0,      16.58,    14.75,    17.85,    18.27,    15.46
      215.0,      16.54,    14.69,    17.81,    18.23,    15.42
      216.0,      16.50,    14.63,    17.77,    18.20,    15.39
      217.0,      16.45,    14.57,    17.73,    18.16,    15.35
      218.0,      16.41,    14.52,    17.69,    18.13,    15.31
      219.0,      16.37,    14.47,    17.66,    18.09,    15.28
      220.0,      16.34,    14.42,    17.62,    18.06,    15.25
      221.0,      16.30,    14.37,    17.58,    18.03,    15.21
      222.0,      16.26,    14.32,    17.55,    17.99,    15.18
      223.0,      16.23,    14.27,    17.52,    17.96,    15.15
      224.0,      16.19,    14.23,    17.48,    17.93,    15.12
      225.0,      16.16,    14.18,    17.45,    17.90,    15.09
      226.0,      16.12,    14.14,    17.42,    17.87,    15.06
      227.0,      16.09,    14.10,    17.39,    17.84,    15.03
      228.0,      16.06,    14.06,    17.36,    17.81,    15.00
      229.0,      16.03,    14.02,    17.33,    17.78,    14.97
      230.0,      15.99,    13.98,    17.30,    17.75,    14.94
      231.0,      15.96,    13.94,    17.27,    17.73,    14.92
      232.0,      15.93,    13.91,    17.24,    17.70,    14.89
      233.0,      15.91,    13.87,    17.21,    17.67,    14.86
      234.0,      15.88,    13.84,    17.19,    17.65,    14.84
      235.0,      15.85,    13.80,    17.16,    17.62,    14.81
      236.0,      15.82,    13.77,    17.13,    17.59,    14.79
      237.0,      15.79,    13.74,    17.11,    17.57,    14.76
      238.0,      15.77,    13.71,    17.08,    17.54,    14.74
      239.0,      15.74,    13.68,    17.05,    17.52,    14.72
      240.0,      15.72,    13.65,    17.03,    17.49,    14.69
      241.0,      15.69,    13.62,    17.00,    17.47,    14.67
      242.0,      15.67,    13.59,    16.98,    17.45,    14.65
      243.0,      15.64,    13.56,    16.96,    17.42,    14.63
      244.0,      15.62,    13.53,    16.93,    17.40,    14.60
      245.0,      15.59,    13.51,    16.91,    17.38,    14.58
      246.0,      15.57,    13.48,    16.88,    17.35,    14.56
      247.0,      15.55,    13.45,    16.86,    17.33,    14.54
      248.0,      15.52,    13.43,    16.84,    17.31,    14.52
      249.0,      15.50,    13.40,    16.82,    17.28,    14.50
      250.0,      15.48,    13.38,    16.79,    17.26,    14.48
      251.0,      15.46,    13.36,    16.77,    17.24,    14.46
      252.0,      15.44,    13.33,    16.75,    17.22,    14.44
      253.0,      15.41,    13.31,    16.73,    17.20,    14.42
      254.0,      15.39,    13.29,    16.71,    17.18,    14.40
      255.0,      15.37,    13.27,    16.69,    17.16,    14.38
      256.0,      15.35,    13.24,    16.67,    17.14,    14.36
      257.0,      15.33,    13.22,    16.64,    17.11,    14.34
      258.0,      15.31,    13.20,    16.62,    17.09,    14.33
      259.0,      15.29,    13.18,    16.60,    17.07,    14.31
      260.0,      15.27,    13.16,    16.58,    17.05,    14.29
      261.0,      15.25,    13.14,    16.56,    17.03,    14.27
      262.0,      15.23,    13.12,    16.54,    17.01,    14.25
      263.0,      15.21,    13.10,    16.52,    16.99,    14.24
      264.0,      15.19,    13.08,    16.50,    16.97,    14.22
      265.0,      15.18,    13.06,    16.48,    16.95,    14.20
      266.0,      15.16,    13.04,    16.47,    16.94,    14.18
      267.0,      15.14,    13.02,    16.45,    16.92,    14.17
      268.0,      15.12,    13.01,    16.43,    16.90,    14.15
      269.0,      15.10,    12.99,    16.41,    16.88,    14.13
      270.0,      15.08,    12.97,    16.39,    16.86,    14.12
      271.0,      15.07,    12.95,    16.37,    16.84,    14.10
      272.0,      15.05,    12.93,    16.35,    16.82,    14.08
      273.0,      15.03,    12.92,    16.33,    16.80,    14.07
      274.0,      15.01,    12.90,    16.31,    16.78,    14.05
      275.0,      15.00,    12.88,    16.30,    16.77,    14.04
      276.0,      14.98,    12.87,    16.28,    16.75,    14.02
      277.0,      14.96,    12.85,    16.26,    16.73,    14.00
      278.0,      14.94,    12.83,    16.24,    16.71,    13.99
      279.0,      14.93,    12.82,    16.22,    16.69,    13.97
      280.0,      14.91,    12.80,    16.21,    16.67,    13.96
      281.0,      14.89,    12.79,    16.19,    16.66,    13.94
      282.0,      14.88,    12.77,    16.17,    16.64,    13.93
      283.0,      14.86,    12.75,    16.15,    16.62,    13.91
      284.0,      14.84,    12.74,    16.14,    16.60,    13.89
      285.0,      14.83,    12.72,    16.12,    16.58,    13.88
      286.0,      14.81,    12.71,    16.10,    16.57,    13.86
      287.0,      14.79,    12.69,    16.08,    16.55,    13.85
      288.0,      14.78,    12.68,    16.07,    16.53,    13.83
      289.0,      14.76,    12.66,    16.05,    16.51,    13.82
      290.0,      14.74,    12.65,    16.03,    16.50,    13.80
      291.0,      14.73,    12.63,    16.01,    16.48,    13.79
      292.0,      14.71,    12.62,    16.00,    16.46,    13.77
      293.0,      14.70,    12.60,    15.98,    16.44,    13.76
      294.0,      14.68,    12.59,    15.96,    16.43,    13.74
      295.0,      14.67,    12.57,    15.95,    16.41,    13.73
      296.0,      14.65,    12.56,    15.93,    16.39,    13.72
      297.0,      14.63,    12.55,    15.91,    16.38,    13.70
      298.0,      14.62,    12.53,    15.90,    16.36,    13.69
      299.0,      14.60,    12.52,    15.88,    16.34,    13.67
      300.0,      14.59,    12.50,    15.86,    16.32,    13.66
      301.0,      14.57,    12.49,    15.85,    16.31,    13.64
      302.0,      14.56,    12.48,    15.83,    16.29,    13.63
      303.0,      14.54,    12.46,    15.81,    16.27,    13.61
      304.0,      14.53,    12.45,    15.80,    16.26,    13.60
      305.0,      14.51,    12.43,    15.78,    16.24,    13.59
      306.0,      14.50,    12.42,    15.76,    16.22,    13.57
      307.0,      14.48,    12.41,    15.75,    16.21,    13.56
      308.0,      14.46,    12.39,    15.73,    16.19,    13.54
      309.0,      14.45,    12.38,    15.72,    16.17,    13.53
      310.0,      14.43,    12.37,    15.70,    16.16,    13.52
