Radius (km), Mean (m/s), NE (m/s), SE (m/s), SW (m/s), NW (m/s)
        0.0,       0.00,     0.00,     0.00,     0.00,     0.00
        1.0,       1.30,     1.42,     1.41,     1.31,     1.09
        2.0,       2.05,     2.15,     2.15,     2.06,     1.83
        3.0,       2.66,     2.75,     2.75,     2.68,     2.47
        4.0,       3.21,     3.28,     3.28,     3.24,     3.05
        5.0,       3.71,     3.75,     3.75,     3.75,     3.60
        6.0,       4.18,     4.19,     4.19,     4.23,     4.13
        7.0,       4.63,     4.60,     4.61,     4.68,     4.63
        8.0,       5.05,     4.98,     5.00,     5.11,     5.11
        9.0,       5.45,     5.35,     5.37,     5.52,     5.57
       10.0,       5.84,     5.70,     5.73,     5.91,     6.03
       11.0,       6.22,     6.04,     6.07,     6.29,     6.47
       12.0,       6.58,     6.37,     6.40,     6.66,     6.90
       13.0,       6.94,     6.68,     6.72,     7.02,     7.32
       14.0,       7.28,     6.99,     7.03,     7.37,     7.74
       15.0,       7.62,     7.29,     7.33,     7.71,     8.14
       16.0,       7.95,     7.58,     7.63,     8.04,     8.54
       17.0,       8.27,     7.86,     7.91,     8.37,     8.94
       18.0,       8.59,     8.14,     8.19,     8.69,     9.32
       19.0,       8.90,     8.41,     8.47,     9.00,     9.71
       20.0,       9.20,     8.67,     8.74,     9.31,    10.08
       21.0,       9.50,     8.93,     9.00,     9.61,    10.45
       22.0,       9.80,     9.19,     9.26,     9.91,    10.82
       23.0,      10.09,     9.44,     9.52,    10.20,    11.18
       24.0,      10.37,     9.69,     9.77,    10.49,    11.54
       25.0,      10.65,     9.93,    10.01,    10.78,    11.90
       26.0,      10.93,    10.17,    10.25,    11.06,    12.25
       27.0,      11.21,    10.40,    10.49,    11.33,    12.60
       28.0,      11.48,    10.63,    10.73,    11.61,    12.94
       29.0,      11.75,    10.86,    10.96,    11.88,    13.28
       30.0,      12.01,    11.09,    11.19,    12.14,    13.62
       31.0,      12.27,    11.31,    11.42,    12.41,    13.96
       32.0,      12.53,    11.53,    11.64,    12.67,    14.29
       33.0,      12.79,    11.75,    11.86,    12.93,    14.62
       34.0,      13.04,    11.96,    12.08,    13.18,    14.95
       35.0,      13.29,    12.17,    12.29,    13.44,    15.27
       36.0,      13.54,    12.38,    12.51,    13.69,    15.60
       37.0,      13.79,    12.59,    12.72,    13.93,    15.92
       38.0,      14.03,    12.79,    12.93,    14.18,    16.24
       39.0,      14.28,    13.00,    13.13,    14.42,    16.55
       40.0,      14.52,    13.20,    13.34,    14.66,    16.87
       41.0,      14.75,    13.39,    13.54,    14.90,    17.18
       42.0,      14.99,    13.59,    13.74,    15.14,    17.49
       43.0,      15.22,    13.79,    13.94,    15.38,    17.80
       44.0,      15.46,    13.98,    14.13,    15.61,    18.10
       45.0,      15.69,    14.17,    14.33,    15.84,    18.41
       46.0,      15.92,    14.36,    14.52,    16.07,    18.71
       47.0,      16.14,    14.55,    14.71,    16.30,    19.01
       48.0,      16.37,    14.74,    14.90,    16.53,    19.31
       49.0,      16.59,    14.92,    15.09,    16.75,    19.61
       50.0,      16.82,    15.10,    15.28,    16.97,    19.90
       51.0,      17.04,    15.29,    15.47,    17.20,    20.20
       52.0,      17.26,    15.47,    15.65,    17.42,    20.49
       53.0,      17.47,    15.65,    15.83,    17.63,    20.78
       54.0,      17.69,    15.82,    16.01,    17.85,    21.07
       55.0,      17.91,    16.00,    16.19,    18.07,    21.36
       56.0,      18.12,    16.18,    16.37,    18.28,    21.65
       57.0,      18.33,    16.35,    16.55,    18.50,    21.94
       58.0,      18.55,    16.52,    16.73,    18.71,    22.22
       59.0,      18.76,    16.70,    16.90,    18.92,    22.51
       60.0,      18.97,    16.87,    17.08,    19.13,    22.79
       61.0,      19.17,    17.04,    17.25,    19.34,    23.07
       62.0,      19.38,    17.20,    17.42,    19.54,    23.35
       63.0,      19.59,    17.37,    17.59,    19.75,    23.63
       64.0,      19.79,    17.54,    17.76,    19.95,    23.91
       65.0,      19.99,    17.70,    17.93,    20.16,    24.18
       66.0,      20.20,    17.87,    18.10,    20.36,    24.46
       67.0,      20.40,    18.03,    18.27,    20.56,    24.73
       68.0,      20.60,    18.19,    18.43,    20.76,    25.01
       69.0,      20.80,    18.36,    18.60,    20.96,    25.28
       70.0,      21.00,    18.52,    18.76,    21.16,    25.55
       71.0,      21.19,    18.68,    18.92,    21.36,    25.82
       72.0,      21.39,    18.83,    19.08,    21.56,    26.09
       73.0,      21.59,    18.99,    19.25,    21.75,    26.36
       74.0,      21.78,    19.15,    19.41,    21.95,    26.63
       75.0,      21.98,    19.31,    19.57,    22.14,    26.89
       76.0,      22.17,    19.46,    19.72,    22.33,    27.16
       77.0,      22.36,    19.62,    19.88,    22.53,    27.42
       78.0,      22.55,    19.77,    20.04,    22.72,    27.69
       79.0,      22.75,    19.92,    20.20,    22.92,    27.97
       80.0,      22.96,    20.08,    20.37,    23.13,    28.28
       81.0,      23.20,    20.24,    20.56,    23.37,    28.64
       82.0,      23.48,    20.42,    20.78,    23.66,    29.06
       83.0,      23.79,    20.62,    21.03,    23.99,    29.54
       84.0,      24.14,    20.85,    21.30,    24.34,    30.06
       85.0,      24.50,    21.10,    21.58,    24.71,    30.59
       86.0,      24.84,    21.35,    21.86,    25.06,    31.08
       87.0,      25.14,    21.59,    22.10,    25.37,    31.51
       88.0,      25.38,    21.80,    22.29,    25.61,    31.82
       89.0,      25.53,    21.95,    22.42,    25.75,    31.99
       90.0,      25.58,    22.04,    22.47,    25.79,    32.02
       91.0,      25.53,    22.06,    22.44,    25.72,    31.90
       92.0,      25.39,    22.00,    22.34,    25.56,    31.65
       93.0,      25.17,    21.88,    22.18,    25.32,    31.30
       94.0,      24.90,    21.70,    21.98,    25.03,    30.89
       95.0,      24.60,    21.48,    21.76,    24.71,    30.44
       96.0,      24.29,    21.25,    21.53,    24.39,    29.99
       97.0,      23.99,    21.01,    21.31,    24.08,    29.55
       98.0,      23.70,    20.79,    21.10,    23.78,    29.14
       99.0,      23.43,    20.57,    20.90,    23.50,    28.75
      100.0,      23.17,    20.37,    20.71,    23.23,    28.38
      101.0,      22.93,    20.19,    20.53,    22.98,    28.03
      102.0,      22.70,    20.01,    20.36,    22.74,    27.69
      103.0,      22.47,    19.84,    20.19,    22.50,    27.36
      104.0,      22.26,    19.67,    20.03,    22.28,    27.05
      105.0,      22.05,    19.51,    19.88,    22.06,    26.74
      106.0,      21.85,    19.36,    19.73,    21.85,    26.45
      107.0,      21.65,    19.21,    19.58,    21.65,    26.17
      108.0,      21.46,    19.06,    19.45,    21.45,    25.90
      109.0,      21.28,    18.92,    19.31,    21.27,    25.64
      110.0,      21.11,    18.78,    19.18,    21.08,    25.38
      111.0,      20.94,    18.65,    19.05,    20.91,    25.14
      112.0,      20.78,    18.52,    18.93,    20.74,    24.91
      113.0,      20.62,    18.40,    18.81,    20.58,    24.68
      114.0,      20.47,    18.28,    18.70,    20.42,    24.46
      115.0,      20.32,    18.16,    18.59,    20.27,    24.25
      116.0,      20.18,    18.04,    18.48,    20.12,    24.05
      117.0,      20.04,    17.93,    18.38,    19.98,    23.86
      118.0,      19.90,    17.82,    18.28,    19.84,    23.67
      119.0,      19.78,    17.72,    18.18,    19.71,    23.49
      120.0,      19.65,    17.62,    18.09,    19.58,    23.31
      121.0,      19.53,    17.52,    18.00,    19.46,    23.14
      122.0,      19.41,    17.42,    17.91,    19.34,    22.98
      123.0,      19.30,    17.33,    17.83,    19.23,    22.82
      124.0,      19.19,    17.24,    17.74,    19.11,    22.67
      125.0,      19.09,    17.15,    17.66,    19.01,    22.52
      126.0,      18.98,    17.06,    17.59,    18.90,    22.38
      127.0,      18.88,    16.98,    17.51,    18.80,    22.25
      128.0,      18.79,    16.90,    17.44,    18.70,    22.11
      129.0,      18.69,    16.82,    17.37,    18.61,    21.99
      130.0,      18.60,    16.74,    17.30,    18.52,    21.86
      131.0,      18.52,    16.66,    17.23,    18.43,    21.74
      132.0,      18.43,    16.59,    17.17,    18.34,    21.63
      133.0,      18.35,    16.52,    17.10,    18.26,    21.52
      134.0,      18.27,    16.45,    17.04,    18.18,    21.41
      135.0,      18.19,    16.38,    16.98,    18.10,    21.30
      136.0,      18.11,    16.31,    16.92,    18.03,    21.20
      137.0,      18.04,    16.24,    16.87,    17.95,    21.10
      138.0,      17.97,    16.18,    16.81,    17.88,    21.01
      139.0,      17.90,    16.11,    16.76,    17.81,    20.92
      140.0,      17.83,    16.05,    16.70,    17.75,    20.83
      141.0,      17.77,    15.99,    16.65,    17.68,    20.74
      142.0,      17.70,    15.93,    16.60,    17.62,    20.66
      143.0,      17.64,    15.87,    16.56,    17.56,    20.58
      144.0,      17.58,    15.82,    16.51,    17.50,    20.50
      145.0,      17.52,    15.76,    16.46,    17.44,    20.42
      146.0,      17.46,    15.71,    16.42,    17.38,    20.35
      147.0,      17.41,    15.65,    16.37,    17.33,    20.28
      148.0,      17.35,    15.60,    16.33,    17.27,    20.21
      149.0,      17.30,    15.55,    16.29,    17.22,    20.14
      150.0,      17.25,    15.50,    16.25,    17.17,    20.07
      151.0,      17.20,    15.45,    16.21,    17.12,    20.01
      152.0,      17.15,    15.40,    16.17,    17.07,    19.95
      153.0,      17.10,    15.35,    16.13,    17.02,    19.89
      154.0,      17.05,    15.30,    16.09,    16.98,    19.83
      155.0,      17.00,    15.26,    16.05,    16.93,    19.77
      156.0,      16.96,    15.21,    16.02,    16.89,    19.71
      157.0,      16.91,    15.16,    15.98,    16.85,    19.66
      158.0,      16.87,    15.12,    15.95,    16.81,    19.61
      159.0,      16.83,    15.08,    15.91,    16.77,    19.56
      160.0,      16.79,    15.03,    15.88,    16.73,    19.51
      161.0,      16.74,    14.99,    15.84,    16.69,    19.46
      162.0,      16.70,    14.95,    15.81,    16.65,    19.41
      163.0,      16.67,    14.91,    15.78,    16.61,    19.36
      164.0,      16.63,    14.87,    15.75,    16.58,    19.32
      165.0,      16.59,    14.82,    15.72,    16.54,    19.27
      166.0,      16.55,    14.78,    15.69,    16.50,    19.23
      167.0,      16.52,    14.75,    15.66,    16.47,    19.19
      168.0,      16.48,    14.71,    15.63,    16.44,    19.15
      169.0,      16.44,    14.67,    15.60,    16.40,    19.11
      170.0,      16.41,    14.63,    15.57,    16.37,    19.07
      171.0,      16.38,    14.59,    15.54,    16.34,    19.03
      172.0,      16.34,    14.55,    15.51,    16.31,    18.99
      173.0,      16.31,    14.52,    15.49,    16.28,    18.95
      174.0,      16.28,    14.48,    15.46,    16.25,    18.92
      175.0,      16.24,    14.45,    15.43,    16.22,    18.88
      176.0,      16.21,    14.41,    15.41,    16.19,    18.84
      177.0,      16.18,    14.37,    15.38,    16.16,    18.81
      178.0,      16.15,    14.34,    15.36,    16.13,    18.78
      179.0,      16.12,    14.30,    15.33,    16.10,    18.74
      180.0,      16.09,    14.27,    15.31,    16.08,    18.71
      181.0,      16.06,    14.24,    15.28,    16.05,    18.68
      182.0,      16.03,    14.20,    15.26,    16.02,    18.65
      183.0,      16.00,    14.17,    15.23,    16.00,    18.62
      184.0,      15.98,    14.14,    15.21,    15.97,    18.59
      185.0,      15.95,    14.10,    15.19,    15.95,    18.56
      186.0,      15.92,    14.07,    15.16,    15.92,    18.53
      187.0,      15.89,    14.04,    15.14,    15.90,    18.50
      188.0,      15.87,    14.01,    15.12,    15.87,    18.47
      189.0,      15.84,    13.97,    15.09,    15.85,    18.44
      190.0,      15.81,    13.94,    15.07,    15.83,    18.41
      191.0,      15.79,    13.91,    15.05,    15.80,    18.39
      192.0,      15.76,    13.88,    15.03,    15.78,    18.36
      193.0,      15.73,    13.85,    15.00,    15.76,    18.33
      194.0,      15.71,    13.82,    14.98,    15.73,    18.31
      195.0,      15.68,    13.79,    14.96,    15.71,    18.28
      196.0,      15.66,    13.76,    14.94,    15.69,    18.26
      197.0,      15.63,    13.72,    14.92,    15.67,    18.23
      198.0,      15.61,    13.69,    14.90,    15.64,    18.21
      199.0,      15.59,    13.66,    14.88,    15.62,    18.18
      200.0,      15.56,    13.63,    14.85,    15.60,    18.16
      201.0,      15.54,    13.61,    14.83,    15.58,    18.13
      202.0,      15.51,    13.58,    14.81,    15.56,    18.11
      203.0,      15.49,    13.55,    14.79,    15.54,    18.09
      204.0,      15.47,    13.52,    14.77,    15.52,    18.06
      205.0,      15.44,    13.49,    14.75,    15.50,    18.04
      206.0,      15.42,    13.46,    14.73,    15.48,    18.02
      207.0,      15.40,    13.43,    14.71,    15.46,    17.99
      208.0,      15.38,    13.40,    14.69,    15.44,    17.97
      209.0,      15.35,    13.37,    14.67,    15.42,    17.95
      210.0,      15.33,    13.35,    14.65,    15.40,    17.93
      211.0,      15.31,    13.32,    14.63,    15.38,    17.90
      212.0,      15.29,    13.29,    14.61,    15.36,    17.88
      213.0,      15.26,    13.26,    14.59,    15.34,    17.86
      214.0,      15.24,    13.23,    14.58,    15.32,    17.84
      215.0,      15.22,    13.21,    14.56,    15.30,    17.82
      216.0,      15.20,    13.18,    14.54,    15.28,    17.80
      217.0,      15.18,    13.15,    14.52,    15.26,    17.78
      218.0,      15.16,    13.12,    14.50,    15.24,    17.76
      219.0,      15.13,    13.10,    14.48,    15.22,    17.74
      220.0,      15.11,    13.07,    14.46,    15.20,    17.71
      221.0,      15.09,    13.04,    14.44,    15.19,    17.69
      222.0,      15.07,    13.01,    14.42,    15.17,    17.67
      223.0,      15.05,    12.99,    14.41,    15.15,    17.65
      224.0,      15.03,    12.96,    14.39,    15.13,    17.63
      225.0,      15.01,    12.93,    14.37,    15.11,    17.61
      226.0,      14.99,    12.91,    14.35,    15.10,    17.59
      227.0,      14.97,    12.88,    14.33,    15.08,    17.57
      228.0,      14.95,    12.85,    14.31,    15.06,    17.56
      229.0,      14.93,    12.83,    14.30,    15.04,    17.54
      230.0,      14.90,    12.80,    14.28,    15.02,    17.52
      231.0,      14.88,    12.78,    14.26,    15.01,    17.50
      232.0,      14.86,    12.75,    14.24,    14.99,    17.48
      233.0,      14.84,    12.72,    14.22,    14.97,    17.46
      234.0,      14.82,    12.70,    14.21,    14.95,    17.44
      235.0,      14.80,    12.67,    14.19,    14.94,    17.42
      236.0,      14.78,    12.65,    14.17,    14.92,    17.40
      237.0,      14.76,    12.62,    14.15,    14.90,    17.38
      238.0,      14.74,    12.59,    14.13,    14.88,    17.36
      239.0,      14.72,    12.57,    14.12,    14.87,    17.35
      240.0,      14.70,    12.54,    14.10,    14.85,    17.33
      241.0,      14.69,    12.52,    14.08,    14.83,    17.31
      242.0,      14.67,    12.49,    14.06,    14.82,    17.29
      243.0,      14.65,    12.47,    14.05,    14.80,    17.27
      244.0,      14.63,    12.44,    14.03,    14.78,    17.25
      245.0,      14.61,    12.42,    14.01,    14.76,    17.24
      246.0,      14.59,    12.39,    13.99,    14.75,    17.22
      247.0,      14.57,    12.37,    13.98,    14.73,    17.20
      248.0,      14.55,    12.34,    13.96,    14.71,    17.18
      249.0,      14.53,    12.32,    13.94,    14.70,    17.16
      250.0,      14.51,    12.29,    13.93,    14.68,    17.14
      251.0,      14.49,    12.27,    13.91,    14.66,    17.13
      252.0,      14.47,    12.24,    13.89,    14.65,    17.11
      253.0,      14.45,    12.22,    13.87,    14.63,    17.09
      254.0,      14.43,    12.19,    13.86,    14.61,    17.07
      255.0,      14.42,    12.17,    13.84,    14.60,    17.06
      256.0,      14.40,    12.15,    13.82,    14.58,    17.04
      257.0,      14.38,    12.12,    13.81,    14.56,    17.02
      258.0,      14.36,    12.10,    13.79,    14.55,    17.00
      259.0,      14.34,    12.07,    13.77,    14.53,    16.98
      260.0,      14.32,    12.05,    13.76,    14.52,    16.97
      261.0,      14.30,    12.02,    13.74,    14.50,    16.95
      262.0,      14.28,    12.00,    13.72,    14.48,    16.93
      263.0,      14.27,    11.98,    13.70,    14.47,    16.91
      264.0,      14.25,    11.95,    13.69,    14.45,    16.90
      265.0,      14.23,    11.93,    13.67,    14.43,    16.88
      266.0,      14.21,    11.90,    13.65,    14.42,    16.86
      267.0,      14.19,    11.88,    13.64,    14.40,    16.85
      268.0,      14.17,    11.86,    13.62,    14.39,    16.83
      269.0,      14.15,    11.83,    13.60,    14.37,    16.81
      270.0,      14.14,    11.81,    13.59,    14.35,    16.79
      271.0,      14.12,    11.79,    13.57,    14.34,    16.78
      272.0,      14.10,    11.76,    13.55,    14.32,    16.76
      273.0,      14.08,    11.74,    13.54,    14.31,    16.74
      274.0,      14.06,    11.72,    13.52,    14.29,    16.73
      275.0,      14.05,    11.69,    13.51,    14.27,    16.71
      276.0,      14.03,    11.67,    13.49,    14.26,    16.69
      277.0,      14.01,    11.65,    13.47,    14.24,    16.67
      278.0,      13.99,    11.62,    13.46,    14.23,    16.66
      279.0,      13.97,    11.60,    13.44,    14.21,    16.64
      280.0,      13.95,    11.58,    13.42,    14.20,    16.62
      281.0,      13.94,    11.55,    13.41,    14.18,    16.61
      282.0,      13.92,    11.53,    13.39,    14.16,    16.59
      283.0,      13.90,    11.51,    13.37,    14.15,    16.57
      284.0,      13.88,    11.48,    13.36,    14.13,    16.56
      285.0,      13.87,    11.46,    13.34,    14.12,    16.54
      286.0,      13.85,    11.44,    13.33,    14.10,    16.52
      287.0,      13.83,    11.42,    13.31,    14.09,    16.51
      288.0,      13.81,    11.39,    13.29,    14.07,    16.49
      289.0,      13.79,    11.37,    13.28,    14.06,    16.47
      290.0,      13.78,    11.35,    13.26,    14.04,    16.46
      291.0,      13.76,    11.33,    13.25,    14.02,    16.44
      292.0,      13.74,    11.30,    13.23,    14.01,    16.42
      293.0,      13.72,    11.28,    13.21,    13.99,    16.41
      294.0,      13.71,    11.26,    13.20,    13.98,    16.39
      295.0,      13.69,    11.24,    13.18,    13.96,    16.37
      296.0,      13.67,    11.21,    13.17,    13.95,    16.36
      297.0,      13.65,    11.19,    13.15,    13.93,    16.34
      298.0,      13.64,    11.17,    13.13,    13.92,    16.32
      299.0,      13.62,    11.15,    13.12,    13.90,    16.31
      300.0,      13.60,    11.12,    13.10,    13.89,    16.29
      301.0,      13.58,    11.10,    13.09,    13.87,    16.27
      302.0,      13.57,    11.08,    13.07,    13.86,    16.26
      303.0,      13.55,    11.06,    13.05,    13.84,    16.24
      304.0,      13.53,    11.04,    13.04,    13.82,    16.23
      305.0,      13.51,    11.01,    13.02,    13.81,    16.21
      306.0,      13.50,    10.99,    13.01,    13.79,    16.19
      307.0,      13.48,    10.97,    12.99,    13.78,    16.18
      308.0,      13.46,    10.95,    12.98,    13.76,    16.16
      309.0,      13.45,    10.93,    12.96,    13.75,    16.14
      310.0,      13.43,    10.91,    12.94,    13.73,    16.13
