Radius (km), Mean (m/s), NE (m/s), SE (m/s), SW (m/s), NW (m/s)
        0.0,       0.00,     0.00,     0.00,     0.00,     0.00
        1.0,       2.23,     2.23,     2.23,     2.23,     2.23
        2.0,       3.62,     3.62,     3.62,     3.62,     3.62
        3.0,       4.80,     4.80,     4.80,     4.80,     4.80
        4.0,       5.87,     5.87,     5.87,     5.87,     5.87
        5.0,       6.86,     6.86,     6.86,     6.86,     6.86
        6.0,       7.79,     7.79,     7.79,     7.79,     7.79
        7.0,       8.68,     8.68,     8.68,     8.68,     8.68
        8.0,       9.53,     9.53,     9.53,     9.53,     9.53
        9.0,      10.34,    10.34,    10.34,    10.34,    10.34
       10.0,      11.13,    11.13,    11.13,    11.13,    11.13
       11.0,      11.90,    11.90,    11.90,    11.90,    11.90
       12.0,      12.64,    12.64,    12.64,    12.64,    12.64
       13.0,      13.37,    13.37,    13.37,    13.37,    13.37
       14.0,      14.08,    14.08,    14.08,    14.08,    14.08
       15.0,      14.77,    14.77,    14.77,    14.77,    14.77
       16.0,      15.45,    15.45,    15.45,    15.45,    15.45
       17.0,      16.12,    16.12,    16.12,    16.12,    16.12
       18.0,      16.77,    16.77,    16.77,    16.77,    16.77
       19.0,      17.42,    17.42,    17.42,    17.42,    17.42
       20.0,      18.05,    18.05,    18.05,    18.05,    18.05
       21.0,      18.68,    18.68,    18.68,    18.68,    18.69
       22.0,      19.32,    19.32,    19.32,    19.31,    19.33
       23.0,      19.98,    19.99,    19.99,    19.95,    20.00
       24.0,      20.70,    20.73,    20.71,    20.65,    20.72
       25.0,      21.49,    21.55,    21.51,    21.40,    21.50
       26.0,      22.35,    22.44,    22.39,    22.23,    22.34
       27.0,      23.26,    23.40,    23.32,    23.12,    23.20
       28.0,      24.19,    24.38,    24.27,    24.04,    24.08
       29.0,      25.10,    25.34,    25.20,    24.95,    24.92
       30.0,      25.94,    26.21,    26.05,    25.81,    25.70
       31.0,      26.67,    26.96,    26.79,    26.56,    26.37
       32.0,      27.25,    27.54,    27.36,    27.16,    26.92
       33.0,      27.65,    27.92,    27.76,    27.60,    27.33
       34.0,      27.89,    28.12,    27.98,    27.87,    27.60
       35.0,      27.97,    28.14,    28.03,    27.96,    27.74
       36.0,      27.91,    28.00,    27.95,    27.92,    27.79
       37.0,      27.76,    27.77,    27.76,    27.76,    27.76
       38.0,      27.55,    27.46,    27.51,    27.53,    27.68
       39.0,      27.30,    27.12,    27.23,    27.27,    27.58
       40.0,      27.05,    26.78,    26.95,    27.00,    27.48
       41.0,      26.81,    26.45,    26.68,    26.73,    27.38
       42.0,      26.58,    26.13,    26.42,    26.48,    27.29
       43.0,      26.36,    25.83,    26.17,    26.25,    27.20
       44.0,      26.15,    25.54,    25.93,    26.02,    27.11
       45.0,      25.95,    25.25,    25.70,    25.81,    27.02
       46.0,      25.75,    24.98,    25.48,    25.60,    26.93
       47.0,      25.55,    24.71,    25.27,    25.40,    26.84
       48.0,      25.37,    24.45,    25.06,    25.20,    26.76
       49.0,      25.18,    24.19,    24.86,    25.01,    26.67
       50.0,      25.01,    23.95,    24.66,    24.83,    26.59
       51.0,      24.83,    23.71,    24.47,    24.65,    26.50
       52.0,      24.67,    23.48,    24.29,    24.48,    26.42
       53.0,      24.50,    23.25,    24.11,    24.31,    26.34
       54.0,      24.34,    23.03,    23.93,    24.15,    26.26
       55.0,      24.19,    22.82,    23.77,    24.00,    26.18
       56.0,      24.04,    22.61,    23.60,    23.84,    26.10
       57.0,      23.89,    22.41,    23.45,    23.70,    26.02
       58.0,      23.75,    22.21,    23.29,    23.56,    25.94
       59.0,      23.61,    22.02,    23.14,    23.42,    25.87
       60.0,      23.48,    21.84,    23.00,    23.29,    25.79
       61.0,      23.35,    21.66,    22.86,    23.16,    25.72
       62.0,      23.22,    21.48,    22.72,    23.03,    25.64
       63.0,      23.09,    21.31,    22.59,    22.91,    25.57
       64.0,      22.97,    21.14,    22.46,    22.79,    25.50
       65.0,      22.85,    20.98,    22.34,    22.67,    25.42
       66.0,      22.74,    20.82,    22.22,    22.56,    25.35
       67.0,      22.63,    20.67,    22.10,    22.45,    25.28
       68.0,      22.52,    20.52,    21.99,    22.35,    25.21
       69.0,      22.41,    20.38,    21.88,    22.24,    25.14
       70.0,      22.31,    20.24,    21.77,    22.14,    25.07
       71.0,      22.20,    20.10,    21.66,    22.05,    25.01
       72.0,      22.10,    19.97,    21.56,    21.95,    24.94
       73.0,      22.01,    19.84,    21.46,    21.86,    24.87
       74.0,      21.91,    19.71,    21.37,    21.77,    24.81
       75.0,      21.82,    19.59,    21.27,    21.68,    24.74
       76.0,      21.73,    19.47,    21.18,    21.60,    24.68
       77.0,      21.64,    19.35,    21.09,    21.51,    24.61
       78.0,      21.56,    19.23,    21.00,    21.43,    24.55
       79.0,      21.47,    19.12,    20.92,    21.35,    24.49
       80.0,      21.39,    19.02,    20.84,    21.27,    24.43
       81.0,      21.31,    18.91,    20.76,    21.20,    24.36
       82.0,      21.23,    18.81,    20.68,    21.12,    24.30
       83.0,      21.15,    18.71,    20.60,    21.05,    24.24
       84.0,      21.08,    18.61,    20.53,    20.98,    24.18
       85.0,      21.00,    18.52,    20.46,    20.91,    24.12
       86.0,      20.93,    18.42,    20.39,    20.84,    24.07
       87.0,      20.86,    18.33,    20.32,    20.78,    24.01
       88.0,      20.79,    18.24,    20.25,    20.71,    23.95
       89.0,      20.72,    18.16,    20.18,    20.65,    23.89
       90.0,      20.65,    18.07,    20.12,    20.59,    23.84
       91.0,      20.59,    17.99,    20.06,    20.53,    23.78
       92.0,      20.52,    17.91,    19.99,    20.47,    23.73
       93.0,      20.46,    17.84,    19.93,    20.41,    23.67
       94.0,      20.40,    17.76,    19.88,    20.35,    23.62
       95.0,      20.34,    17.69,    19.82,    20.29,    23.56
       96.0,      20.28,    17.61,    19.76,    20.24,    23.51
       97.0,      20.22,    17.54,    19.71,    20.18,    23.46
       98.0,      20.16,    17.47,    19.65,    20.13,    23.40
       99.0,      20.11,    17.41,    19.60,    20.08,    23.35
      100.0,      20.05,    17.34,    19.55,    20.02,    23.30
      101.0,      20.00,    17.28,    19.50,    19.97,    23.25
      102.0,      19.95,    17.21,    19.45,    19.92,    23.20
      103.0,      19.89,    17.15,    19.40,    19.87,    23.15
      104.0,      19.84,    17.09,    19.35,    19.82,    23.10
      105.0,      19.79,    17.03,    19.30,    19.78,    23.05
      106.0,      19.74,    16.98,    19.26,    19.73,    23.00
      107.0,      19.69,    16.92,    19.21,    19.68,    22.95
      108.0,      19.64,    16.86,    19.17,    19.64,    22.90
      109.0,      19.60,    16.81,    19.13,    19.59,    22.85
      110.0,      19.55,    16.76,    19.08,    19.55,    22.81
      111.0,      19.50,    16.71,    19.04,    19.50,    22.76
      112.0,      19.46,    16.66,    19.00,    19.46,    22.71
      113.0,      19.41,    16.61,    18.96,    19.41,    22.67
      114.0,      19.37,    16.56,    18.92,    19.37,    22.62
      115.0,      19.32,    16.51,    18.88,    19.33,    22.58
      116.0,      19.28,    16.47,    18.84,    19.29,    22.53
      117.0,      19.24,    16.42,    18.80,    19.25,    22.49
      118.0,      19.20,    16.38,    18.77,    19.21,    22.44
      119.0,      19.16,    16.33,    18.73,    19.17,    22.40
      120.0,      19.12,    16.29,    18.69,    19.13,    22.35
      121.0,      19.08,    16.25,    18.66,    19.09,    22.31
      122.0,      19.04,    16.21,    18.62,    19.05,    22.27
      123.0,      19.00,    16.17,    18.59,    19.01,    22.22
      124.0,      18.96,    16.13,    18.55,    18.97,    22.18
      125.0,      18.92,    16.09,    18.52,    18.93,    22.14
      126.0,      18.88,    16.05,    18.48,    18.90,    22.10
      127.0,      18.85,    16.01,    18.45,    18.86,    22.06
      128.0,      18.81,    15.98,    18.42,    18.82,    22.02
      129.0,      18.77,    15.94,    18.39,    18.79,    21.98
      130.0,      18.74,    15.91,    18.35,    18.75,    21.93
      131.0,      18.70,    15.87,    18.32,    18.71,    21.89
      132.0,      18.67,    15.84,    18.29,    18.68,    21.85
      133.0,      18.63,    15.80,    18.26,    18.64,    21.81
      134.0,      18.60,    15.77,    18.23,    18.61,    21.78
      135.0,      18.56,    15.74,    18.20,    18.57,    21.74
      136.0,      18.53,    15.71,    18.17,    18.54,    21.70
      137.0,      18.49,    15.67,    18.14,    18.50,    21.66
      138.0,      18.46,    15.64,    18.11,    18.47,    21.62
      139.0,      18.43,    15.61,    18.08,    18.43,    21.58
      140.0,      18.40,    15.58,    18.06,    18.40,    21.55
      141.0,      18.36,    15.55,    18.03,    18.37,    21.51
      142.0,      18.33,    15.53,    18.00,    18.33,    21.47
      143.0,      18.30,    15.50,    17.97,    18.30,    21.43
      144.0,      18.27,    15.47,    17.94,    18.27,    21.40
      145.0,      18.24,    15.44,    17.92,    18.23,    21.36
      146.0,      18.21,    15.41,    17.89,    18.20,    21.32
      147.0,      18.18,    15.39,    17.86,    18.17,    21.29
      148.0,      18.15,    15.36,    17.84,    18.14,    21.25
      149.0,      18.12,    15.33,    17.81,    18.10,    21.22
      150.0,      18.09,    15.31,    17.78,    18.07,    21.18
      151.0,      18.06,    15.28,    17.76,    18.04,    21.15
      152.0,      18.03,    15.26,    17.73,    18.01,    21.11
      153.0,      18.00,    15.23,    17.71,    17.98,    21.08
      154.0,      17.97,    15.21,    17.68,    17.95,    21.04
      155.0,      17.94,    15.18,    17.65,    17.91,    21.01
      156.0,      17.91,    15.16,    17.63,    17.88,    20.98
      157.0,      17.88,    15.14,    17.60,    17.85,    20.94
      158.0,      17.86,    15.11,    17.58,    17.82,    20.91
      159.0,      17.83,    15.09,    17.55,    17.79,    20.88
      160.0,      17.80,    15.07,    17.53,    17.76,    20.84
      161.0,      17.77,    15.04,    17.51,    17.73,    20.81
      162.0,      17.74,    15.02,    17.48,    17.70,    20.78
      163.0,      17.72,    15.00,    17.46,    17.67,    20.74
      164.0,      17.69,    14.98,    17.43,    17.64,    20.71
      165.0,      17.66,    14.96,    17.41,    17.61,    20.68
      166.0,      17.64,    14.93,    17.39,    17.58,    20.65
      167.0,      17.61,    14.91,    17.36,    17.55,    20.62
      168.0,      17.58,    14.89,    17.34,    17.52,    20.59
      169.0,      17.56,    14.87,    17.32,    17.49,    20.55
      170.0,      17.53,    14.85,    17.29,    17.46,    20.52
      171.0,      17.51,    14.83,    17.27,    17.43,    20.49
      172.0,      17.48,    14.81,    17.25,    17.40,    20.46
      173.0,      17.45,    14.79,    17.22,    17.37,    20.43
      174.0,      17.43,    14.77,    17.20,    17.34,    20.40
      175.0,      17.40,    14.75,    17.18,    17.31,    20.37
      176.0,      17.38,    14.73,    17.16,    17.28,    20.34
      177.0,      17.35,    14.71,    17.13,    17.25,    20.31
      178.0,      17.33,    14.69,    17.11,    17.23,    20.28
      179.0,      17.30,    14.67,    17.09,    17.20,    20.25
      180.0,      17.28,    14.65,    17.07,    17.17,    20.22
      181.0,      17.25,    14.64,    17.04,    17.14,    20.19
      182.0,      17.23,    14.62,    17.02,    17.11,    20.16
      183.0,      17.20,    14.60,    17.00,    17.08,    20.13
      184.0,      17.18,    14.58,    16.98,    17.05,    20.10
      185.0,      17.15,    14.56,    16.96,    17.03,    20.08
      186.0,      17.13,    14.54,    16.93,    17.00,    20.05
      187.0,      17.11,    14.53,    16.91,    16.97,    20.02
      188.0,      17.08,    14.51,    16.89,    16.94,    19.99
      189.0,      17.06,    14.49,    16.87,    16.91,    19.96
      190.0,      17.03,    14.47,    16.85,    16.88,    19.93
      191.0,      17.01,    14.45,    16.83,    16.86,    19.91
      192.0,      16.99,    14.44,    16.80,    16.83,    19.88
      193.0,      16.96,    14.42,    16.78,    16.80,    19.85
      194.0,      16.94,    14.40,    16.76,    16.77,    19.82
      195.0,      16.92,    14.39,    16.74,    16.75,    19.80
      196.0,      16.89,    14.37,    16.72,    16.72,    19.77
      197.0,      16.87,    14.35,    16.70,    16.69,    19.74
      198.0,      16.85,    14.34,    16.68,    16.66,    19.71
      199.0,      16.82,    14.32,    16.66,    16.64,    19.69
      200.0,      16.80,    14.30,    16.64,    16.61,    19.66
      201.0,      16.78,    14.29,    16.61,    16.58,    19.63
      202.0,      16.76,    14.27,    16.59,    16.55,    19.61
      203.0,      16.73,    14.25,    16.57,    16.53,    19.58
      204.0,      16.71,    14.24,    16.55,    16.50,    19.56
      205.0,      16.69,    14.22,    16.53,    16.47,    19.53
      206.0,      16.67,    14.20,    16.51,    16.44,    19.50
      207.0,      16.64,    14.19,    16.49,    16.42,    19.48
      208.0,      16.62,    14.17,    16.47,    16.39,    19.45
      209.0,      16.60,    14.16,    16.45,    16.36,    19.43
      210.0,      16.58,    14.14,    16.43,    16.34,    19.40
      211.0,      16.55,    14.12,    16.41,    16.31,    19.37
      212.0,      16.53,    14.11,    16.39,    16.28,    19.35
      213.0,      16.51,    14.09,    16.37,    16.26,    19.32
      214.0,      16.49,    14.08,    16.35,    16.23,    19.30
      215.0,      16.47,    14.06,    16.33,    16.20,    19.27
      216.0,      16.44,    14.05,    16.31,    16.18,    19.25
      217.0,      16.42,    14.03,    16.29,    16.15,    19.22
      218.0,      16.40,    14.02,    16.27,    16.12,    19.20
      219.0,      16.38,    14.00,    16.25,    16.10,    19.17
      220.0,      16.36,    13.98,    16.23,    16.07,    19.15
      221.0,      16.34,    13.97,    16.21,    16.05,    19.13
      222.0,      16.32,    13.95,    16.19,    16.02,    19.10
      223.0,      16.29,    13.94,    16.17,    15.99,    19.08
      224.0,      16.27,    13.92,    16.15,    15.97,    19.05
      225.0,      16.25,    13.91,    16.13,    15.94,    19.03
      226.0,      16.23,    13.89,    16.11,    15.91,    19.00
      227.0,      16.21,    13.88,    16.09,    15.89,    18.98
      228.0,      16.19,    13.86,    16.07,    15.86,    18.96
      229.0,      16.17,    13.85,    16.05,    15.84,    18.93
      230.0,      16.15,    13.84,    16.03,    15.81,    18.91
      231.0,      16.13,    13.82,    16.01,    15.79,    18.89
      232.0,      16.10,    13.81,    15.99,    15.76,    18.86
      233.0,      16.08,    13.79,    15.97,    15.73,    18.84
      234.0,      16.06,    13.78,    15.95,    15.71,    18.82
      235.0,      16.04,    13.76,    15.93,    15.68,    18.79
      236.0,      16.02,    13.75,    15.91,    15.66,    18.77
      237.0,      16.00,    13.73,    15.89,    15.63,    18.75
      238.0,      15.98,    13.72,    15.87,    15.61,    18.72
      239.0,      15.96,    13.70,    15.85,    15.58,    18.70
      240.0,      15.94,    13.69,    15.83,    15.55,    18.68
      241.0,      15.92,    13.68,    15.81,    15.53,    18.65
      242.0,      15.90,    13.66,    15.79,    15.50,    18.63
      243.0,      15.88,    13.65,    15.78,    15.48,    18.61
      244.0,      15.86,    13.63,    15.76,    15.45,    18.59
      245.0,      15.84,    13.62,    15.74,    15.43,    18.56
      246.0,      15.82,    13.60,    15.72,    15.40,    18.54
      247.0,      15.80,    13.59,    15.70,    15.38,    18.52
      248.0,      15.78,    13.58,    15.68,    15.35,    18.50
      249.0,      15.76,    13.56,    15.66,    15.33,    18.47
      250.0,      15.74,    13.55,    15.64,    15.30,    18.45
      251.0,      15.72,    13.53,    15.62,    15.28,    18.43
      252.0,      15.70,    13.52,    15.60,    15.25,    18.41
      253.0,      15.68,    13.51,    15.58,    15.23,    18.39
      254.0,      15.66,    13.49,    15.57,    15.20,    18.36
      255.0,      15.64,    13.48,    15.55,    15.18,    18.34
      256.0,      15.62,    13.46,    15.53,    15.15,    18.32
      257.0,      15.60,    13.45,    15.51,    15.13,    18.30
      258.0,      15.58,    13.44,    15.49,    15.11,    18.28
      259.0,      15.56,    13.42,    15.47,    15.08,    18.26
      260.0,      15.54,    13.41,    15.45,    15.06,    18.24
      261.0,      15.52,    13.39,    15.43,    15.03,    18.21
      262.0,      15.50,    13.38,    15.42,    15.01,    18.19
      263.0,      15.48,    13.37,    15.40,    14.98,    18.17
      264.0,      15.46,    13.35,    15.38,    14.96,    18.15
      265.0,      15.44,    13.34,    15.36,    14.93,    18.13
      266.0,      15.42,    13.33,    15.34,    14.91,    18.11
      267.0,      15.40,    13.31,    15.32,    14.89,    18.09
      268.0,      15.38,    13.30,    15.30,    14.86,    18.07
      269.0,      15.36,    13.29,    15.28,    14.84,    18.04
      270.0,      15.34,    13.27,    15.27,    14.81,    18.02
      271.0,      15.32,    13.26,    15.25,    14.79,    18.00
      272.0,      15.31,    13.25,    15.23,    14.76,    17.98
      273.0,      15.29,    13.23,    15.21,    14.74,    17.96
      274.0,      15.27,    13.22,    15.19,    14.72,    17.94
      275.0,      15.25,    13.20,    15.17,    14.69,    17.92
      276.0,      15.23,    13.19,    15.16,    14.67,    17.90
      277.0,      15.21,    13.18,    15.14,    14.65,    17.88
      278.0,      15.19,    13.16,    15.12,    14.62,    17.86
      279.0,      15.17,    13.15,    15.10,    14.60,    17.84
      280.0,      15.15,    13.14,    15.08,    14.57,    17.82
      281.0,      15.13,    13.12,    15.06,    14.55,    17.80
      282.0,      15.12,    13.11,    15.05,    14.53,    17.78
      283.0,      15.10,    13.10,    15.03,    14.50,    17.76
      284.0,      15.08,    13.08,    15.01,    14.48,    17.74
      285.0,      15.06,    13.07,    14.99,    14.46,    17.72
      286.0,      15.04,    13.06,    14.97,    14.43,    17.70
      287.0,      15.02,    13.04,    14.95,    14.41,    17.68
      288.0,      15.00,    13.03,    14.94,    14.39,    17.66
      289.0,      14.98,    13.02,    14.92,    14.36,    17.64
      290.0,      14.97,    13.01,    14.90,    14.34,    17.62
      291.0,      14.95,    12.99,    14.88,    14.32,    17.60
      292.0,      14.93,    12.98,    14.86,    14.29,    17.58
      293.0,      14.91,    12.97,    14.85,    14.27,    17.56
      294.0,      14.89,    12.95,    14.83,    14.25,    17.54
      295.0,      14.87,    12.94,    14.81,    14.22,    17.52
      296.0,      14.85,    12.93,    14.79,    14.20,    17.50
      297.0,      14.84,    12.91,    14.77,    14.18,    17.48
      298.0,      14.82,    12.90,    14.76,    14.15,    17.46
      299.0,      14.80,    12.89,    14.74,    14.13,    17.44
      300.0,      14.78,    12.87,    14.72,    14.11,    17.42
      301.0,      14.76,    12.86,    14.70,    14.08,    17.40
      302.0,      14.74,    12.85,    14.69,    14.06,    17.38
      303.0,      14.73,    12.84,    14.67,    14.04,    17.36
      304.0,      14.71,    12.82,    14.65,    14.02,    17.34
      305.0,      14.69,    12.81,    14.63,    13.99,    17.32
      306.0,      14.67,    12.80,    14.61,    13.97,    17.30
      307.0,      14.65,    12.78,    14.60,    13.95,    17.29
      308.0,      14.64,    12.77,    14.58,    13.92,    17.27
      309.0,      14.62,    12.76,    14.56,    13.90,    17.25
      310.0,      14.60,    12.75,    14.54,    13.88,    17.23
