Radius (km), Mean (m/s), NE (m/s), SE (m/s), SW (m/s), NW (m/s)
        0.0,       0.00,     0.00,     0.00,     0.00,     0.00
        1.0,       1.08,     1.07,     1.09,     1.05,     1.11
        2.0,       1.63,     1.62,     1.64,     1.60,     1.66
        3.0,       2.07,     2.06,     2.08,     2.04,     2.10
        4.0,       2.46,     2.45,     2.47,     2.43,     2.48
        5.0,       2.81,     2.80,     2.81,     2.79,     2.82
        6.0,       3.13,     3.12,     3.13,     3.11,     3.13
        7.0,       3.42,     3.42,     3.43,     3.42,     3.43
        8.0,       3.71,     3.71,     3.71,     3.71,     3.70
        9.0,       3.97,     3.98,     3.97,     3.98,     3.96
       10.0,       4.23,     4.24,     4.22,     4.25,     4.21
       11.0,       4.48,     4.49,     4.47,     4.50,     4.45
       12.0,       4.71,     4.73,     4.70,     4.74,     4.68
       13.0,       4.94,     4.96,     4.93,     4.98,     4.90
       14.0,       5.16,     5.18,     5.15,     5.21,     5.12
       15.0,       5.38,     5.40,     5.36,     5.43,     5.32
       16.0,       5.59,     5.61,     5.57,     5.65,     5.53
       17.0,       5.79,     5.82,     5.77,     5.86,     5.72
       18.0,       5.99,     6.02,     5.96,     6.07,     5.92
       19.0,       6.19,     6.22,     6.16,     6.27,     6.10
       20.0,       6.38,     6.41,     6.34,     6.47,     6.29
       21.0,       6.57,     6.60,     6.53,     6.67,     6.47
       22.0,       6.75,     6.79,     6.71,     6.86,     6.64
       23.0,       6.93,     6.97,     6.89,     7.05,     6.82
       24.0,       7.11,     7.15,     7.06,     7.23,     6.99
       25.0,       7.28,     7.32,     7.23,     7.41,     7.15
       26.0,       7.45,     7.50,     7.40,     7.59,     7.32
       27.0,       7.62,     7.67,     7.56,     7.77,     7.48
       28.0,       7.79,     7.84,     7.73,     7.94,     7.64
       29.0,       7.95,     8.00,     7.89,     8.11,     7.80
       30.0,       8.11,     8.17,     8.05,     8.28,     7.95
       31.0,       8.27,     8.33,     8.20,     8.45,     8.10
       32.0,       8.43,     8.49,     8.36,     8.61,     8.25
       33.0,       8.58,     8.65,     8.51,     8.78,     8.40
       34.0,       8.74,     8.80,     8.66,     8.94,     8.55
       35.0,       8.89,     8.96,     8.81,     9.09,     8.69
       36.0,       9.04,     9.11,     8.95,     9.25,     8.83
       37.0,       9.18,     9.26,     9.10,     9.41,     8.97
       38.0,       9.33,     9.41,     9.24,     9.56,     9.11
       39.0,       9.48,     9.55,     9.39,     9.71,     9.25
       40.0,       9.62,     9.70,     9.53,     9.86,     9.39
       41.0,       9.76,     9.84,     9.66,    10.01,     9.52
       42.0,       9.90,     9.99,     9.80,    10.16,     9.66
       43.0,      10.04,    10.13,     9.94,    10.31,     9.79
       44.0,      10.18,    10.27,    10.07,    10.45,     9.92
       45.0,      10.31,    10.41,    10.21,    10.60,    10.05
       46.0,      10.45,    10.54,    10.34,    10.74,    10.18
       47.0,      10.58,    10.68,    10.47,    10.88,    10.31
       48.0,      10.72,    10.81,    10.60,    11.02,    10.43
       49.0,      10.85,    10.95,    10.73,    11.16,    10.56
       50.0,      10.98,    11.08,    10.86,    11.30,    10.68
       51.0,      11.11,    11.21,    10.98,    11.43,    10.80
       52.0,      11.24,    11.34,    11.11,    11.57,    10.93
       53.0,      11.37,    11.47,    11.24,    11.70,    11.05
       54.0,      11.49,    11.60,    11.36,    11.84,    11.17
       55.0,      11.62,    11.73,    11.48,    11.97,    11.29
       56.0,      11.74,    11.86,    11.60,    12.10,    11.41
       57.0,      11.87,    11.98,    11.73,    12.23,    11.52
       58.0,      11.99,    12.11,    11.85,    12.36,    11.64
       59.0,      12.11,    12.23,    11.96,    12.49,    11.75
       60.0,      12.23,    12.36,    12.08,    12.62,    11.87
       61.0,      12.35,    12.48,    12.20,    12.75,    11.98
       62.0,      12.47,    12.60,    12.32,    12.88,    12.10
       63.0,      12.59,    12.72,    12.43,    13.00,    12.21
       64.0,      12.71,    12.84,    12.55,    13.13,    12.32
       65.0,      12.83,    12.96,    12.66,    13.25,    12.43
       66.0,      12.94,    13.08,    12.78,    13.37,    12.54
       67.0,      13.06,    13.20,    12.89,    13.50,    12.65
       68.0,      13.17,    13.31,    13.00,    13.62,    12.76
       69.0,      13.29,    13.43,    13.12,    13.74,    12.87
       70.0,      13.40,    13.55,    13.23,    13.86,    12.98
       71.0,      13.52,    13.66,    13.34,    13.98,    13.08
       72.0,      13.63,    13.78,    13.45,    14.10,    13.19
       73.0,      13.74,    13.89,    13.56,    14.22,    13.30
       74.0,      13.85,    14.00,    13.66,    14.34,    13.40
       75.0,      13.96,    14.12,    13.77,    14.45,    13.50
       76.0,      14.07,    14.23,    13.88,    14.57,    13.61
       77.0,      14.18,    14.34,    13.99,    14.69,    13.71
       78.0,      14.29,    14.45,    14.09,    14.80,    13.81
       79.0,      14.40,    14.56,    14.20,    14.92,    13.92
       80.0,      14.51,    14.67,    14.30,    15.03,    14.02
       81.0,      14.61,    14.78,    14.41,    15.15,    14.12
       82.0,      14.72,    14.89,    14.51,    15.26,    14.22
       83.0,      14.83,    15.00,    14.62,    15.37,    14.32
       84.0,      14.93,    15.11,    14.72,    15.49,    14.42
       85.0,      15.04,    15.21,    14.82,    15.60,    14.52
       86.0,      15.14,    15.32,    14.92,    15.71,    14.62
       87.0,      15.25,    15.43,    15.03,    15.82,    14.71
       88.0,      15.35,    15.53,    15.13,    15.93,    14.81
       89.0,      15.45,    15.64,    15.23,    16.04,    14.91
       90.0,      15.56,    15.74,    15.33,    16.15,    15.01
       91.0,      15.66,    15.85,    15.43,    16.26,    15.10
       92.0,      15.76,    15.95,    15.53,    16.37,    15.20
       93.0,      15.86,    16.05,    15.62,    16.47,    15.29
       94.0,      15.96,    16.16,    15.72,    16.58,    15.39
       95.0,      16.06,    16.26,    15.82,    16.69,    15.48
       96.0,      16.16,    16.36,    15.92,    16.80,    15.58
       97.0,      16.26,    16.46,    16.02,    16.90,    15.67
       98.0,      16.36,    16.56,    16.11,    17.01,    15.76
       99.0,      16.46,    16.66,    16.21,    17.11,    15.86
      100.0,      16.56,    16.76,    16.30,    17.22,    15.95
      101.0,      16.66,    16.86,    16.40,    17.32,    16.04
      102.0,      16.75,    16.96,    16.49,    17.43,    16.13
      103.0,      16.85,    17.06,    16.59,    17.53,    16.22
      104.0,      16.95,    17.16,    16.68,    17.63,    16.31
      105.0,      17.04,    17.26,    16.78,    17.74,    16.41
      106.0,      17.14,    17.36,    16.87,    17.84,    16.50
      107.0,      17.24,    17.45,    16.96,    17.94,    16.59
      108.0,      17.33,    17.55,    17.06,    18.04,    16.67
      109.0,      17.43,    17.65,    17.15,    18.14,    16.76
      110.0,      17.52,    17.75,    17.24,    18.24,    16.85
      111.0,      17.62,    17.84,    17.33,    18.35,    16.94
      112.0,      17.71,    17.94,    17.42,    18.45,    17.03
      113.0,      17.80,    18.03,    17.52,    18.55,    17.12
      114.0,      17.90,    18.13,    17.61,    18.65,    17.20
      115.0,      17.99,    18.22,    17.70,    18.74,    17.29
      116.0,      18.08,    18.32,    17.79,    18.84,    17.38
      117.0,      18.17,    18.41,    17.88,    18.94,    17.46
      118.0,      18.27,    18.51,    17.97,    19.04,    17.55
      119.0,      18.36,    18.60,    18.06,    19.14,    17.64
      120.0,      18.45,    18.69,    18.14,    19.24,    17.72
      121.0,      18.54,    18.79,    18.23,    19.33,    17.81
      122.0,      18.63,    18.88,    18.32,    19.43,    17.89
      123.0,      18.72,    18.97,    18.41,    19.53,    17.98
      124.0,      18.81,    19.06,    18.50,    19.62,    18.06
      125.0,      18.90,    19.15,    18.58,    19.72,    18.15
      126.0,      18.99,    19.24,    18.67,    19.82,    18.23
      127.0,      19.08,    19.34,    18.76,    19.91,    18.31
      128.0,      19.17,    19.43,    18.84,    20.01,    18.40
      129.0,      19.26,    19.52,    18.93,    20.10,    18.48
      130.0,      19.35,    19.61,    19.02,    20.20,    18.56
      131.0,      19.43,    19.70,    19.10,    20.29,    18.64
      132.0,      19.52,    19.79,    19.19,    20.38,    18.73
      133.0,      19.61,    19.88,    19.27,    20.48,    18.81
      134.0,      19.70,    19.97,    19.36,    20.57,    18.89
      135.0,      19.78,    20.05,    19.44,    20.66,    18.97
      136.0,      19.87,    20.14,    19.53,    20.76,    19.05
      137.0,      19.96,    20.23,    19.61,    20.85,    19.13
      138.0,      20.04,    20.32,    19.69,    20.94,    19.21
      139.0,      20.13,    20.41,    19.78,    21.03,    19.29
      140.0,      20.21,    20.49,    19.86,    21.13,    19.38
      141.0,      20.30,    20.58,    19.94,    21.22,    19.45
      142.0,      20.38,    20.67,    20.03,    21.31,    19.53
      143.0,      20.47,    20.76,    20.11,    21.40,    19.61
      144.0,      20.55,    20.84,    20.19,    21.49,    19.69
      145.0,      20.64,    20.93,    20.27,    21.58,    19.77
      146.0,      20.72,    21.01,    20.36,    21.67,    19.85
      147.0,      20.81,    21.10,    20.44,    21.76,    19.93
      148.0,      20.89,    21.19,    20.52,    21.85,    20.01
      149.0,      20.97,    21.27,    20.60,    21.94,    20.09
      150.0,      21.06,    21.36,    20.68,    22.03,    20.16
      151.0,      21.14,    21.44,    20.76,    22.12,    20.24
      152.0,      21.22,    21.53,    20.84,    22.21,    20.32
      153.0,      21.31,    21.61,    20.92,    22.30,    20.40
      154.0,      21.39,    21.70,    21.00,    22.39,    20.47
      155.0,      21.48,    21.78,    21.09,    22.49,    20.56
      156.0,      21.57,    21.87,    21.18,    22.59,    20.64
      157.0,      21.68,    21.97,    21.28,    22.72,    20.74
      158.0,      21.79,    22.08,    21.38,    22.85,    20.84
      159.0,      21.91,    22.19,    21.49,    23.00,    20.95
      160.0,      22.03,    22.30,    21.60,    23.15,    21.06
      161.0,      22.14,    22.41,    21.70,    23.29,    21.17
      162.0,      22.25,    22.52,    21.80,    23.41,    21.27
      163.0,      22.33,    22.60,    21.88,    23.50,    21.35
      164.0,      22.39,    22.67,    21.94,    23.55,    21.40
      165.0,      22.42,    22.72,    21.98,    23.56,    21.44
      166.0,      22.43,    22.74,    22.00,    23.53,    21.44
      167.0,      22.41,    22.74,    22.00,    23.46,    21.42
      168.0,      22.37,    22.72,    21.98,    23.37,    21.39
      169.0,      22.31,    22.69,    21.96,    23.25,    21.34
      170.0,      22.25,    22.65,    21.93,    23.13,    21.28
      171.0,      22.18,    22.61,    21.89,    23.00,    21.22
      172.0,      22.11,    22.56,    21.86,    22.88,    21.16
      173.0,      22.05,    22.52,    21.82,    22.76,    21.10
      174.0,      21.99,    22.48,    21.79,    22.65,    21.05
      175.0,      21.94,    22.45,    21.77,    22.54,    21.00
      176.0,      21.88,    22.41,    21.74,    22.44,    20.95
      177.0,      21.83,    22.37,    21.71,    22.34,    20.90
      178.0,      21.78,    22.34,    21.68,    22.24,    20.85
      179.0,      21.73,    22.30,    21.65,    22.14,    20.81
      180.0,      21.68,    22.27,    21.63,    22.05,    20.76
      181.0,      21.63,    22.23,    21.60,    21.96,    20.71
      182.0,      21.58,    22.20,    21.57,    21.87,    20.67
      183.0,      21.53,    22.16,    21.54,    21.78,    20.62
      184.0,      21.48,    22.13,    21.52,    21.69,    20.58
      185.0,      21.43,    22.09,    21.49,    21.61,    20.53
      186.0,      21.38,    22.06,    21.46,    21.52,    20.49
      187.0,      21.34,    22.02,    21.43,    21.44,    20.45
      188.0,      21.29,    21.99,    21.41,    21.36,    20.40
      189.0,      21.25,    21.95,    21.38,    21.29,    20.36
      190.0,      21.20,    21.92,    21.35,    21.21,    20.32
      191.0,      21.16,    21.89,    21.33,    21.13,    20.28
      192.0,      21.11,    21.85,    21.30,    21.06,    20.24
      193.0,      21.07,    21.82,    21.27,    20.99,    20.20
      194.0,      21.03,    21.78,    21.24,    20.92,    20.16
      195.0,      20.98,    21.75,    21.22,    20.85,    20.12
      196.0,      20.94,    21.71,    21.19,    20.78,    20.08
      197.0,      20.90,    21.68,    21.16,    20.72,    20.04
      198.0,      20.86,    21.65,    21.14,    20.65,    20.00
      199.0,      20.82,    21.61,    21.11,    20.59,    19.97
      200.0,      20.78,    21.58,    21.08,    20.52,    19.93
      201.0,      20.74,    21.55,    21.06,    20.46,    19.89
      202.0,      20.70,    21.51,    21.03,    20.40,    19.86
      203.0,      20.66,    21.48,    21.00,    20.34,    19.82
      204.0,      20.62,    21.44,    20.98,    20.28,    19.78
      205.0,      20.58,    21.41,    20.95,    20.23,    19.75
      206.0,      20.55,    21.38,    20.92,    20.17,    19.71
      207.0,      20.51,    21.34,    20.90,    20.12,    19.68
      208.0,      20.47,    21.31,    20.87,    20.06,    19.64
      209.0,      20.44,    21.28,    20.85,    20.01,    19.61
      210.0,      20.40,    21.24,    20.82,    19.96,    19.57
      211.0,      20.36,    21.21,    20.79,    19.90,    19.54
      212.0,      20.33,    21.18,    20.77,    19.85,    19.51
      213.0,      20.29,    21.15,    20.74,    19.80,    19.47
      214.0,      20.26,    21.11,    20.72,    19.76,    19.44
      215.0,      20.22,    21.08,    20.69,    19.71,    19.41
      216.0,      20.19,    21.05,    20.66,    19.66,    19.37
      217.0,      20.15,    21.02,    20.64,    19.61,    19.34
      218.0,      20.12,    20.98,    20.61,    19.57,    19.31
      219.0,      20.09,    20.95,    20.59,    19.52,    19.28
      220.0,      20.05,    20.92,    20.56,    19.48,    19.25
      221.0,      20.02,    20.89,    20.54,    19.44,    19.22
      222.0,      19.99,    20.85,    20.51,    19.39,    19.19
      223.0,      19.95,    20.82,    20.48,    19.35,    19.16
      224.0,      19.92,    20.79,    20.46,    19.31,    19.13
      225.0,      19.89,    20.76,    20.43,    19.27,    19.09
      226.0,      19.86,    20.73,    20.41,    19.23,    19.06
      227.0,      19.82,    20.69,    20.38,    19.19,    19.04
      228.0,      19.79,    20.66,    20.36,    19.15,    19.01
      229.0,      19.76,    20.63,    20.33,    19.11,    18.98
      230.0,      19.73,    20.60,    20.31,    19.07,    18.95
      231.0,      19.70,    20.57,    20.28,    19.04,    18.92
      232.0,      19.67,    20.53,    20.26,    19.00,    18.89
      233.0,      19.64,    20.50,    20.23,    18.96,    18.86
      234.0,      19.61,    20.47,    20.21,    18.93,    18.83
      235.0,      19.58,    20.44,    20.18,    18.89,    18.80
      236.0,      19.55,    20.41,    20.16,    18.86,    18.78
      237.0,      19.52,    20.38,    20.13,    18.82,    18.75
      238.0,      19.49,    20.35,    20.11,    18.79,    18.72
      239.0,      19.46,    20.32,    20.08,    18.75,    18.69
      240.0,      19.43,    20.28,    20.06,    18.72,    18.67
      241.0,      19.40,    20.25,    20.03,    18.69,    18.64
      242.0,      19.37,    20.22,    20.01,    18.66,    18.61
      243.0,      19.35,    20.19,    19.98,    18.62,    18.59
      244.0,      19.32,    20.16,    19.96,    18.59,    18.56
      245.0,      19.29,    20.13,    19.93,    18.56,    18.53
      246.0,      19.26,    20.10,    19.91,    18.53,    18.51
      247.0,      19.23,    20.07,    19.88,    18.50,    18.48
      248.0,      19.21,    20.04,    19.86,    18.47,    18.45
      249.0,      19.18,    20.01,    19.84,    18.44,    18.43
      250.0,      19.15,    19.98,    19.81,    18.41,    18.40
      251.0,      19.12,    19.95,    19.79,    18.38,    18.38
      252.0,      19.10,    19.92,    19.76,    18.35,    18.35
      253.0,      19.07,    19.89,    19.74,    18.32,    18.33
      254.0,      19.04,    19.86,    19.71,    18.30,    18.30
      255.0,      19.01,    19.83,    19.69,    18.27,    18.28
      256.0,      18.99,    19.80,    19.67,    18.24,    18.25
      257.0,      18.96,    19.77,    19.64,    18.21,    18.23
      258.0,      18.93,    19.74,    19.62,    18.19,    18.20
      259.0,      18.91,    19.71,    19.59,    18.16,    18.18
      260.0,      18.88,    19.68,    19.57,    18.13,    18.15
      261.0,      18.86,    19.65,    19.55,    18.11,    18.13
      262.0,      18.83,    19.62,    19.52,    18.08,    18.10
      263.0,      18.80,    19.59,    19.50,    18.05,    18.08
      264.0,      18.78,    19.56,    19.47,    18.03,    18.05
      265.0,      18.75,    19.53,    19.45,    18.00,    18.03
      266.0,      18.73,    19.50,    19.43,    17.98,    18.01
      267.0,      18.70,    19.47,    19.40,    17.95,    17.98
      268.0,      18.68,    19.44,    19.38,    17.93,    17.96
      269.0,      18.65,    19.41,    19.36,    17.90,    17.94
      270.0,      18.63,    19.38,    19.33,    17.88,    17.91
      271.0,      18.60,    19.35,    19.31,    17.85,    17.89
      272.0,      18.58,    19.32,    19.29,    17.83,    17.87
      273.0,      18.55,    19.29,    19.26,    17.81,    17.84
      274.0,      18.53,    19.26,    19.24,    17.78,    17.82
      275.0,      18.50,    19.24,    19.22,    17.76,    17.80
      276.0,      18.48,    19.21,    19.19,    17.74,    17.77
      277.0,      18.45,    19.18,    19.17,    17.71,    17.75
      278.0,      18.43,    19.15,    19.15,    17.69,    17.73
      279.0,      18.40,    19.12,    19.12,    17.67,    17.71
      280.0,      18.38,    19.09,    19.10,    17.65,    17.68
      281.0,      18.36,    19.06,    19.08,    17.62,    17.66
      282.0,      18.33,    19.03,    19.05,    17.60,    17.64
      283.0,      18.31,    19.01,    19.03,    17.58,    17.62
      284.0,      18.28,    18.98,    19.01,    17.56,    17.59
      285.0,      18.26,    18.95,    18.98,    17.53,    17.57
      286.0,      18.24,    18.92,    18.96,    17.51,    17.55
      287.0,      18.21,    18.89,    18.94,    17.49,    17.53
      288.0,      18.19,    18.86,    18.92,    17.47,    17.51
      289.0,      18.17,    18.84,    18.89,    17.45,    17.48
      290.0,      18.14,    18.81,    18.87,    17.43,    17.46
      291.0,      18.12,    18.78,    18.85,    17.41,    17.44
      292.0,      18.09,    18.75,    18.82,    17.38,    17.42
      293.0,      18.07,    18.72,    18.80,    17.36,    17.40
      294.0,      18.05,    18.70,    18.78,    17.34,    17.38
      295.0,      18.03,    18.67,    18.76,    17.32,    17.35
      296.0,      18.00,    18.64,    18.73,    17.30,    17.33
      297.0,      17.98,    18.61,    18.71,    17.28,    17.31
      298.0,      17.96,    18.58,    18.69,    17.26,    17.29
      299.0,      17.93,    18.56,    18.67,    17.24,    17.27
      300.0,      17.91,    18.53,    18.65,    17.22,    17.25
      301.0,      17.89,    18.50,    18.62,    17.20,    17.23
      302.0,      17.87,    18.47,    18.60,    17.18,    17.20
      303.0,      17.84,    18.45,    18.58,    17.16,    17.18
      304.0,      17.82,    18.42,    18.56,    17.14,    17.16
      305.0,      17.80,    18.39,    18.53,    17.12,    17.14
      306.0,      17.78,    18.36,    18.51,    17.10,    17.12
      307.0,      17.75,    18.34,    18.49,    17.08,    17.10
      308.0,      17.73,    18.31,    18.47,    17.06,    17.08
      309.0,      17.71,    18.28,    18.45,    17.04,    17.06
      310.0,      17.69,    18.26,    18.42,    17.02,    17.04
