Radius (km), Mean (m/s), NE (m/s), SE (m/s), SW (m/s), NW (m/s)
        0.0,       0.00,     0.00,     0.00,     0.00,     0.00
        1.0,       1.57,     1.60,     1.56,     1.58,     1.56
        2.0,       2.34,     2.35,     2.33,     2.34,     2.33
        3.0,       2.95,     2.95,     2.95,     2.95,     2.95
        4.0,       3.48,     3.47,     3.48,     3.48,     3.48
        5.0,       3.95,     3.93,     3.96,     3.95,     3.96
        6.0,       4.39,     4.35,     4.40,     4.39,     4.40
        7.0,       4.79,     4.75,     4.82,     4.79,     4.82
        8.0,       5.17,     5.11,     5.20,     5.17,     5.20
        9.0,       5.53,     5.46,     5.57,     5.53,     5.57
       10.0,       5.88,     5.79,     5.92,     5.87,     5.92
       11.0,       6.21,     6.11,     6.25,     6.20,     6.25
       12.0,       6.52,     6.42,     6.58,     6.52,     6.58
       13.0,       6.83,     6.71,     6.89,     6.82,     6.89
       14.0,       7.12,     7.00,     7.19,     7.12,     7.19
       15.0,       7.41,     7.27,     7.48,     7.40,     7.48
       16.0,       7.69,     7.54,     7.77,     7.68,     7.77
       17.0,       7.96,     7.80,     8.05,     7.95,     8.05
       18.0,       8.22,     8.05,     8.32,     8.21,     8.32
       19.0,       8.48,     8.30,     8.58,     8.47,     8.58
       20.0,       8.74,     8.54,     8.84,     8.72,     8.84
       21.0,       8.98,     8.78,     9.09,     8.97,     9.09
       22.0,       9.23,     9.01,     9.34,     9.21,     9.34
       23.0,       9.46,     9.24,     9.58,     9.45,     9.58
       24.0,       9.70,     9.46,     9.82,     9.68,     9.82
       25.0,       9.93,     9.68,    10.06,     9.91,    10.06
       26.0,      10.15,     9.89,    10.29,    10.13,    10.29
       27.0,      10.37,    10.10,    10.52,    10.35,    10.52
       28.0,      10.59,    10.31,    10.74,    10.57,    10.74
       29.0,      10.80,    10.51,    10.96,    10.78,    10.96
       30.0,      11.02,    10.72,    11.18,    11.00,    11.18
       31.0,      11.22,    10.91,    11.39,    11.20,    11.39
       32.0,      11.43,    11.11,    11.60,    11.41,    11.60
       33.0,      11.63,    11.30,    11.81,    11.61,    11.81
       34.0,      11.83,    11.49,    12.02,    11.81,    12.02
       35.0,      12.03,    11.68,    12.22,    12.01,    12.22
       36.0,      12.23,    11.87,    12.42,    12.20,    12.42
       37.0,      12.42,    12.05,    12.62,    12.39,    12.62
       38.0,      12.61,    12.23,    12.82,    12.58,    12.82
       39.0,      12.80,    12.41,    13.01,    12.77,    13.01
       40.0,      12.99,    12.59,    13.20,    12.96,    13.20
       41.0,      13.17,    12.76,    13.39,    13.14,    13.39
       42.0,      13.35,    12.94,    13.58,    13.32,    13.58
       43.0,      13.54,    13.11,    13.77,    13.50,    13.77
       44.0,      13.71,    13.28,    13.95,    13.68,    13.95
       45.0,      13.89,    13.45,    14.13,    13.86,    14.13
       46.0,      14.07,    13.61,    14.31,    14.04,    14.31
       47.0,      14.24,    13.78,    14.49,    14.21,    14.49
       48.0,      14.41,    13.94,    14.67,    14.38,    14.67
       49.0,      14.59,    14.10,    14.85,    14.55,    14.85
       50.0,      14.76,    14.26,    15.02,    14.72,    15.02
       51.0,      14.92,    14.42,    15.19,    14.89,    15.19
       52.0,      15.09,    14.58,    15.37,    15.05,    15.37
       53.0,      15.26,    14.73,    15.54,    15.22,    15.54
       54.0,      15.42,    14.89,    15.70,    15.38,    15.70
       55.0,      15.58,    15.04,    15.87,    15.54,    15.87
       56.0,      15.74,    15.20,    16.04,    15.70,    16.04
       57.0,      15.90,    15.35,    16.20,    15.86,    16.20
       58.0,      16.06,    15.50,    16.37,    16.02,    16.37
       59.0,      16.22,    15.65,    16.53,    16.18,    16.53
       60.0,      16.38,    15.79,    16.69,    16.33,    16.69
       61.0,      16.53,    15.94,    16.85,    16.49,    16.85
       62.0,      16.69,    16.09,    17.01,    16.64,    17.01
       63.0,      16.84,    16.23,    17.17,    16.80,    17.17
       64.0,      16.99,    16.37,    17.33,    16.95,    17.33
       65.0,      17.15,    16.52,    17.48,    17.10,    17.48
       66.0,      17.30,    16.66,    17.64,    17.25,    17.64
       67.0,      17.45,    16.80,    17.79,    17.40,    17.79
       68.0,      17.59,    16.94,    17.95,    17.54,    17.95
       69.0,      17.74,    17.08,    18.10,    17.69,    18.10
       70.0,      17.89,    17.22,    18.25,    17.84,    18.25
       71.0,      18.03,    17.35,    18.40,    17.98,    18.40
       72.0,      18.18,    17.49,    18.55,    18.13,    18.55
       73.0,      18.32,    17.63,    18.70,    18.27,    18.70
       74.0,      18.47,    17.76,    18.85,    18.41,    18.85
       75.0,      18.61,    17.89,    18.99,    18.55,    18.99
       76.0,      18.75,    18.03,    19.14,    18.69,    19.14
       77.0,      18.89,    18.16,    19.28,    18.84,    19.28
       78.0,      19.03,    18.29,    19.43,    18.98,    19.43
       79.0,      19.17,    18.43,    19.58,    19.12,    19.58
       80.0,      19.32,    18.57,    19.73,    19.27,    19.73
       81.0,      19.49,    18.72,    19.90,    19.43,    19.90
       82.0,      19.67,    18.89,    20.08,    19.60,    20.09
       83.0,      19.86,    19.08,    20.27,    19.79,    20.30
       84.0,      20.07,    19.29,    20.48,    19.99,    20.53
       85.0,      20.28,    19.49,    20.68,    20.18,    20.76
       86.0,      20.49,    19.70,    20.88,    20.38,    20.99
       87.0,      20.67,    19.88,    21.06,    20.55,    21.20
       88.0,      20.83,    20.02,    21.21,    20.69,    21.37
       89.0,      20.94,    20.13,    21.33,    20.81,    21.49
       90.0,      21.01,    20.19,    21.41,    20.88,    21.55
       91.0,      21.04,    20.20,    21.46,    20.93,    21.56
       92.0,      21.02,    20.17,    21.46,    20.93,    21.51
       93.0,      20.97,    20.10,    21.45,    20.92,    21.41
       94.0,      20.90,    20.01,    21.41,    20.88,    21.28
       95.0,      20.81,    19.91,    21.36,    20.84,    21.14
       96.0,      20.72,    19.79,    21.31,    20.79,    20.98
       97.0,      20.62,    19.68,    21.25,    20.74,    20.82
       98.0,      20.53,    19.58,    21.20,    20.69,    20.67
       99.0,      20.45,    19.48,    21.15,    20.64,    20.53
      100.0,      20.37,    19.38,    21.11,    20.60,    20.39
      101.0,      20.29,    19.28,    21.06,    20.56,    20.26
      102.0,      20.21,    19.19,    21.02,    20.51,    20.13
      103.0,      20.14,    19.10,    20.97,    20.47,    20.00
      104.0,      20.06,    19.01,    20.93,    20.43,    19.87
      105.0,      19.99,    18.92,    20.88,    20.39,    19.75
      106.0,      19.91,    18.84,    20.84,    20.35,    19.62
      107.0,      19.84,    18.75,    20.80,    20.31,    19.50
      108.0,      19.77,    18.67,    20.75,    20.27,    19.39
      109.0,      19.70,    18.59,    20.71,    20.23,    19.27
      110.0,      19.63,    18.51,    20.67,    20.19,    19.16
      111.0,      19.56,    18.43,    20.63,    20.15,    19.04
      112.0,      19.49,    18.35,    20.58,    20.11,    18.93
      113.0,      19.43,    18.27,    20.54,    20.07,    18.83
      114.0,      19.36,    18.20,    20.50,    20.04,    18.72
      115.0,      19.30,    18.12,    20.46,    20.00,    18.62
      116.0,      19.24,    18.05,    20.42,    19.96,    18.51
      117.0,      19.17,    17.98,    20.38,    19.92,    18.41
      118.0,      19.11,    17.91,    20.34,    19.89,    18.31
      119.0,      19.05,    17.84,    20.30,    19.85,    18.22
      120.0,      18.99,    17.77,    20.26,    19.81,    18.12
      121.0,      18.93,    17.71,    20.22,    19.78,    18.03
      122.0,      18.88,    17.64,    20.18,    19.74,    17.94
      123.0,      18.82,    17.58,    20.14,    19.71,    17.84
      124.0,      18.76,    17.52,    20.11,    19.67,    17.76
      125.0,      18.71,    17.45,    20.07,    19.64,    17.67
      126.0,      18.65,    17.39,    20.03,    19.60,    17.58
      127.0,      18.60,    17.33,    19.99,    19.57,    17.50
      128.0,      18.54,    17.27,    19.96,    19.53,    17.41
      129.0,      18.49,    17.22,    19.92,    19.50,    17.33
      130.0,      18.44,    17.16,    19.88,    19.46,    17.25
      131.0,      18.39,    17.10,    19.85,    19.43,    17.17
      132.0,      18.34,    17.05,    19.81,    19.40,    17.09
      133.0,      18.29,    16.99,    19.77,    19.37,    17.02
      134.0,      18.24,    16.94,    19.74,    19.33,    16.94
      135.0,      18.19,    16.89,    19.70,    19.30,    16.87
      136.0,      18.14,    16.83,    19.67,    19.27,    16.79
      137.0,      18.09,    16.78,    19.63,    19.24,    16.72
      138.0,      18.05,    16.73,    19.60,    19.20,    16.65
      139.0,      18.00,    16.68,    19.56,    19.17,    16.58
      140.0,      17.95,    16.63,    19.53,    19.14,    16.51
      141.0,      17.91,    16.59,    19.49,    19.11,    16.44
      142.0,      17.86,    16.54,    19.46,    19.08,    16.38
      143.0,      17.82,    16.49,    19.43,    19.05,    16.31
      144.0,      17.78,    16.45,    19.39,    19.02,    16.25
      145.0,      17.73,    16.40,    19.36,    18.99,    16.19
      146.0,      17.69,    16.36,    19.33,    18.96,    16.12
      147.0,      17.65,    16.31,    19.29,    18.93,    16.06
      148.0,      17.61,    16.27,    19.26,    18.90,    16.00
      149.0,      17.57,    16.23,    19.23,    18.87,    15.94
      150.0,      17.53,    16.18,    19.20,    18.84,    15.88
      151.0,      17.49,    16.14,    19.17,    18.81,    15.83
      152.0,      17.45,    16.10,    19.13,    18.78,    15.77
      153.0,      17.41,    16.06,    19.10,    18.75,    15.71
      154.0,      17.37,    16.02,    19.07,    18.73,    15.66
      155.0,      17.33,    15.98,    19.04,    18.70,    15.61
      156.0,      17.29,    15.94,    19.01,    18.67,    15.55
      157.0,      17.26,    15.90,    18.98,    18.64,    15.50
      158.0,      17.22,    15.87,    18.95,    18.61,    15.45
      159.0,      17.18,    15.83,    18.92,    18.59,    15.40
      160.0,      17.15,    15.79,    18.89,    18.56,    15.35
      161.0,      17.11,    15.76,    18.86,    18.53,    15.30
      162.0,      17.07,    15.72,    18.83,    18.50,    15.25
      163.0,      17.04,    15.69,    18.80,    18.48,    15.20
      164.0,      17.00,    15.65,    18.77,    18.45,    15.15
      165.0,      16.97,    15.62,    18.74,    18.42,    15.11
      166.0,      16.94,    15.58,    18.71,    18.40,    15.06
      167.0,      16.90,    15.55,    18.68,    18.37,    15.02
      168.0,      16.87,    15.52,    18.65,    18.34,    14.97
      169.0,      16.84,    15.48,    18.62,    18.32,    14.93
      170.0,      16.80,    15.45,    18.59,    18.29,    14.88
      171.0,      16.77,    15.42,    18.56,    18.27,    14.84
      172.0,      16.74,    15.39,    18.53,    18.24,    14.80
      173.0,      16.71,    15.36,    18.51,    18.21,    14.76
      174.0,      16.68,    15.33,    18.48,    18.19,    14.72
      175.0,      16.65,    15.30,    18.45,    18.16,    14.67
      176.0,      16.62,    15.27,    18.42,    18.14,    14.63
      177.0,      16.59,    15.24,    18.40,    18.11,    14.60
      178.0,      16.56,    15.21,    18.37,    18.09,    14.56
      179.0,      16.53,    15.18,    18.34,    18.06,    14.52
      180.0,      16.50,    15.15,    18.31,    18.04,    14.48
      181.0,      16.47,    15.12,    18.29,    18.01,    14.44
      182.0,      16.44,    15.09,    18.26,    17.99,    14.41
      183.0,      16.41,    15.07,    18.23,    17.97,    14.37
      184.0,      16.38,    15.04,    18.21,    17.94,    14.33
      185.0,      16.35,    15.01,    18.18,    17.92,    14.30
      186.0,      16.32,    14.98,    18.15,    17.89,    14.26
      187.0,      16.30,    14.96,    18.13,    17.87,    14.23
      188.0,      16.27,    14.93,    18.10,    17.85,    14.19
      189.0,      16.24,    14.91,    18.07,    17.82,    14.16
      190.0,      16.21,    14.88,    18.05,    17.80,    14.13
      191.0,      16.19,    14.85,    18.02,    17.78,    14.09
      192.0,      16.16,    14.83,    18.00,    17.75,    14.06
      193.0,      16.13,    14.80,    17.97,    17.73,    14.03
      194.0,      16.11,    14.78,    17.95,    17.71,    14.00
      195.0,      16.08,    14.76,    17.92,    17.68,    13.97
      196.0,      16.06,    14.73,    17.90,    17.66,    13.94
      197.0,      16.03,    14.71,    17.87,    17.64,    13.91
      198.0,      16.01,    14.68,    17.85,    17.62,    13.88
      199.0,      15.98,    14.66,    17.82,    17.59,    13.85
      200.0,      15.96,    14.64,    17.80,    17.57,    13.82
      201.0,      15.93,    14.61,    17.77,    17.55,    13.79
      202.0,      15.91,    14.59,    17.75,    17.53,    13.76
      203.0,      15.88,    14.57,    17.72,    17.50,    13.73
      204.0,      15.86,    14.54,    17.70,    17.48,    13.70
      205.0,      15.83,    14.52,    17.68,    17.46,    13.67
      206.0,      15.81,    14.50,    17.65,    17.44,    13.65
      207.0,      15.79,    14.48,    17.63,    17.42,    13.62
      208.0,      15.76,    14.46,    17.60,    17.40,    13.59
      209.0,      15.74,    14.43,    17.58,    17.37,    13.57
      210.0,      15.72,    14.41,    17.56,    17.35,    13.54
      211.0,      15.69,    14.39,    17.53,    17.33,    13.51
      212.0,      15.67,    14.37,    17.51,    17.31,    13.49
      213.0,      15.65,    14.35,    17.49,    17.29,    13.46
      214.0,      15.62,    14.33,    17.46,    17.27,    13.44
      215.0,      15.60,    14.31,    17.44,    17.25,    13.41
      216.0,      15.58,    14.29,    17.42,    17.23,    13.39
      217.0,      15.56,    14.27,    17.39,    17.20,    13.36
      218.0,      15.54,    14.25,    17.37,    17.18,    13.34
      219.0,      15.51,    14.23,    17.35,    17.16,    13.31
      220.0,      15.49,    14.21,    17.33,    17.14,    13.29
      221.0,      15.47,    14.19,    17.30,    17.12,    13.27
      222.0,      15.45,    14.17,    17.28,    17.10,    13.24
      223.0,      15.43,    14.15,    17.26,    17.08,    13.22
      224.0,      15.41,    14.13,    17.24,    17.06,    13.20
      225.0,      15.38,    14.11,    17.21,    17.04,    13.17
      226.0,      15.36,    14.09,    17.19,    17.02,    13.15
      227.0,      15.34,    14.07,    17.17,    17.00,    13.13
      228.0,      15.32,    14.05,    17.15,    16.98,    13.11
      229.0,      15.30,    14.03,    17.13,    16.96,    13.09
      230.0,      15.28,    14.02,    17.10,    16.94,    13.06
      231.0,      15.26,    14.00,    17.08,    16.92,    13.04
      232.0,      15.24,    13.98,    17.06,    16.90,    13.02
      233.0,      15.22,    13.96,    17.04,    16.88,    13.00
      234.0,      15.20,    13.94,    17.02,    16.86,    12.98
      235.0,      15.18,    13.93,    17.00,    16.84,    12.96
      236.0,      15.16,    13.91,    16.98,    16.82,    12.94
      237.0,      15.14,    13.89,    16.95,    16.80,    12.92
      238.0,      15.12,    13.87,    16.93,    16.78,    12.90
      239.0,      15.10,    13.85,    16.91,    16.76,    12.88
      240.0,      15.08,    13.84,    16.89,    16.74,    12.86
      241.0,      15.06,    13.82,    16.87,    16.72,    12.84
      242.0,      15.04,    13.80,    16.85,    16.70,    12.82
      243.0,      15.02,    13.78,    16.83,    16.68,    12.80
      244.0,      15.01,    13.77,    16.81,    16.67,    12.78
      245.0,      14.99,    13.75,    16.79,    16.65,    12.76
      246.0,      14.97,    13.73,    16.77,    16.63,    12.74
      247.0,      14.95,    13.72,    16.75,    16.61,    12.72
      248.0,      14.93,    13.70,    16.73,    16.59,    12.70
      249.0,      14.91,    13.68,    16.71,    16.57,    12.68
      250.0,      14.89,    13.67,    16.69,    16.55,    12.67
      251.0,      14.87,    13.65,    16.66,    16.53,    12.65
      252.0,      14.86,    13.63,    16.64,    16.51,    12.63
      253.0,      14.84,    13.62,    16.62,    16.50,    12.61
      254.0,      14.82,    13.60,    16.60,    16.48,    12.59
      255.0,      14.80,    13.58,    16.58,    16.46,    12.58
      256.0,      14.78,    13.57,    16.56,    16.44,    12.56
      257.0,      14.77,    13.55,    16.54,    16.42,    12.54
      258.0,      14.75,    13.54,    16.53,    16.40,    12.52
      259.0,      14.73,    13.52,    16.51,    16.39,    12.51
      260.0,      14.71,    13.50,    16.49,    16.37,    12.49
      261.0,      14.69,    13.49,    16.47,    16.35,    12.47
      262.0,      14.68,    13.47,    16.45,    16.33,    12.45
      263.0,      14.66,    13.46,    16.43,    16.31,    12.44
      264.0,      14.64,    13.44,    16.41,    16.29,    12.42
      265.0,      14.62,    13.43,    16.39,    16.28,    12.40
      266.0,      14.61,    13.41,    16.37,    16.26,    12.39
      267.0,      14.59,    13.40,    16.35,    16.24,    12.37
      268.0,      14.57,    13.38,    16.33,    16.22,    12.35
      269.0,      14.55,    13.36,    16.31,    16.20,    12.34
      270.0,      14.54,    13.35,    16.29,    16.19,    12.32
      271.0,      14.52,    13.33,    16.27,    16.17,    12.31
      272.0,      14.50,    13.32,    16.25,    16.15,    12.29
      273.0,      14.49,    13.30,    16.24,    16.13,    12.27
      274.0,      14.47,    13.29,    16.22,    16.12,    12.26
      275.0,      14.45,    13.27,    16.20,    16.10,    12.24
      276.0,      14.44,    13.26,    16.18,    16.08,    12.23
      277.0,      14.42,    13.24,    16.16,    16.06,    12.21
      278.0,      14.40,    13.23,    16.14,    16.05,    12.20
      279.0,      14.39,    13.21,    16.12,    16.03,    12.18
      280.0,      14.37,    13.20,    16.10,    16.01,    12.17
      281.0,      14.35,    13.19,    16.09,    15.99,    12.15
      282.0,      14.34,    13.17,    16.07,    15.98,    12.13
      283.0,      14.32,    13.16,    16.05,    15.96,    12.12
      284.0,      14.30,    13.14,    16.03,    15.94,    12.10
      285.0,      14.29,    13.13,    16.01,    15.92,    12.09
      286.0,      14.27,    13.11,    15.99,    15.91,    12.07
      287.0,      14.26,    13.10,    15.98,    15.89,    12.06
      288.0,      14.24,    13.08,    15.96,    15.87,    12.05
      289.0,      14.22,    13.07,    15.94,    15.86,    12.03
      290.0,      14.21,    13.05,    15.92,    15.84,    12.02
      291.0,      14.19,    13.04,    15.90,    15.82,    12.00
      292.0,      14.18,    13.03,    15.89,    15.80,    11.99
      293.0,      14.16,    13.01,    15.87,    15.79,    11.97
      294.0,      14.14,    13.00,    15.85,    15.77,    11.96
      295.0,      14.13,    12.98,    15.83,    15.75,    11.94
      296.0,      14.11,    12.97,    15.81,    15.74,    11.93
      297.0,      14.10,    12.96,    15.80,    15.72,    11.92
      298.0,      14.08,    12.94,    15.78,    15.70,    11.90
      299.0,      14.07,    12.93,    15.76,    15.69,    11.89
      300.0,      14.05,    12.91,    15.74,    15.67,    11.87
      301.0,      14.03,    12.90,    15.73,    15.65,    11.86
      302.0,      14.02,    12.89,    15.71,    15.64,    11.85
      303.0,      14.00,    12.87,    15.69,    15.62,    11.83
      304.0,      13.99,    12.86,    15.67,    15.60,    11.82
      305.0,      13.97,    12.85,    15.66,    15.59,    11.80
      306.0,      13.96,    12.83,    15.64,    15.57,    11.79
      307.0,      13.94,    12.82,    15.62,    15.55,    11.78
      308.0,      13.93,    12.80,    15.60,    15.54,    11.76
      309.0,      13.91,    12.79,    15.59,    15.52,    11.75
      310.0,      13.90,    12.78,    15.57,    15.50,    11.74
