Radius (km), Mean (m/s), NE (m/s), SE (m/s), SW (m/s), NW (m/s)
        0.0,       0.00,     0.00,     0.00,     0.00,     0.00
        1.0,       1.15,     1.14,     1.14,     1.16,     1.15
        2.0,       1.82,     1.82,     1.82,     1.83,     1.82
        3.0,       2.39,     2.38,     2.38,     2.40,     2.39
        4.0,       2.90,     2.89,     2.89,     2.91,     2.90
        5.0,       3.36,     3.36,     3.36,     3.37,     3.36
        6.0,       3.80,     3.79,     3.79,     3.80,     3.80
        7.0,       4.21,     4.21,     4.21,     4.21,     4.21
        8.0,       4.60,     4.60,     4.60,     4.60,     4.60
        9.0,       4.98,     4.98,     4.98,     4.98,     4.98
       10.0,       5.34,     5.34,     5.34,     5.34,     5.34
       11.0,       5.69,     5.70,     5.70,     5.68,     5.69
       12.0,       6.03,     6.04,     6.04,     6.02,     6.03
       13.0,       6.36,     6.37,     6.37,     6.35,     6.36
       14.0,       6.69,     6.70,     6.70,     6.67,     6.69
       15.0,       7.00,     7.01,     7.01,     6.98,     7.00
       16.0,       7.31,     7.32,     7.32,     7.29,     7.31
       17.0,       7.61,     7.63,     7.63,     7.59,     7.61
       18.0,       7.91,     7.92,     7.92,     7.88,     7.91
       19.0,       8.20,     8.22,     8.22,     8.17,     8.20
       20.0,       8.49,     8.50,     8.50,     8.45,     8.49
       21.0,       8.77,     8.79,     8.79,     8.73,     8.77
       22.0,       9.04,     9.07,     9.07,     9.00,     9.04
       23.0,       9.32,     9.34,     9.34,     9.27,     9.32
       24.0,       9.59,     9.61,     9.61,     9.54,     9.59
       25.0,       9.85,     9.88,     9.88,     9.80,     9.85
       26.0,      10.11,    10.14,    10.14,    10.06,    10.11
       27.0,      10.37,    10.40,    10.40,    10.31,    10.37
       28.0,      10.63,    10.66,    10.66,    10.57,    10.63
       29.0,      10.88,    10.91,    10.91,    10.81,    10.88
       30.0,      11.13,    11.16,    11.16,    11.06,    11.13
       31.0,      11.37,    11.41,    11.41,    11.30,    11.37
       32.0,      11.62,    11.65,    11.65,    11.54,    11.62
       33.0,      11.86,    11.90,    11.90,    11.78,    11.86
       34.0,      12.10,    12.14,    12.14,    12.02,    12.10
       35.0,      12.33,    12.38,    12.38,    12.25,    12.33
       36.0,      12.57,    12.61,    12.61,    12.48,    12.57
       37.0,      12.80,    12.85,    12.85,    12.71,    12.80
       38.0,      13.03,    13.08,    13.08,    12.94,    13.03
       39.0,      13.26,    13.31,    13.31,    13.16,    13.26
       40.0,      13.48,    13.53,    13.53,    13.39,    13.49
       41.0,      13.71,    13.76,    13.76,    13.61,    13.71
       42.0,      13.93,    13.98,    13.98,    13.83,    13.93
       43.0,      14.15,    14.21,    14.21,    14.04,    14.15
       44.0,      14.37,    14.43,    14.43,    14.26,    14.37
       45.0,      14.59,    14.65,    14.65,    14.47,    14.59
       46.0,      14.80,    14.86,    14.86,    14.69,    14.80
       47.0,      15.02,    15.08,    15.08,    14.90,    15.02
       48.0,      15.23,    15.29,    15.29,    15.11,    15.23
       49.0,      15.44,    15.51,    15.51,    15.31,    15.44
       50.0,      15.65,    15.72,    15.72,    15.52,    15.65
       51.0,      15.86,    15.93,    15.93,    15.73,    15.86
       52.0,      16.07,    16.14,    16.14,    15.93,    16.07
       53.0,      16.27,    16.34,    16.34,    16.13,    16.27
       54.0,      16.48,    16.55,    16.55,    16.33,    16.48
       55.0,      16.68,    16.76,    16.76,    16.53,    16.68
       56.0,      16.88,    16.96,    16.96,    16.73,    16.88
       57.0,      17.08,    17.16,    17.16,    16.93,    17.08
       58.0,      17.28,    17.36,    17.36,    17.13,    17.28
       59.0,      17.48,    17.56,    17.56,    17.32,    17.48
       60.0,      17.68,    17.76,    17.76,    17.52,    17.68
       61.0,      17.88,    17.96,    17.96,    17.71,    17.88
       62.0,      18.07,    18.16,    18.16,    17.90,    18.07
       63.0,      18.27,    18.35,    18.35,    18.09,    18.27
       64.0,      18.46,    18.55,    18.55,    18.28,    18.46
       65.0,      18.65,    18.74,    18.74,    18.47,    18.65
       66.0,      18.84,    18.93,    18.93,    18.66,    18.84
       67.0,      19.03,    19.13,    19.13,    18.85,    19.03
       68.0,      19.22,    19.32,    19.32,    19.03,    19.22
       69.0,      19.41,    19.51,    19.51,    19.22,    19.41
       70.0,      19.60,    19.70,    19.70,    19.40,    19.60
       71.0,      19.78,    19.88,    19.88,    19.59,    19.78
       72.0,      19.97,    20.07,    20.07,    19.77,    19.97
       73.0,      20.16,    20.26,    20.26,    19.95,    20.16
       74.0,      20.34,    20.44,    20.44,    20.13,    20.34
       75.0,      20.52,    20.63,    20.63,    20.31,    20.52
       76.0,      20.70,    20.81,    20.81,    20.49,    20.71
       77.0,      20.89,    20.99,    20.99,    20.67,    20.89
       78.0,      21.07,    21.18,    21.18,    20.85,    21.07
       79.0,      21.25,    21.36,    21.36,    21.02,    21.25
       80.0,      21.43,    21.54,    21.54,    21.20,    21.43
       81.0,      21.61,    21.72,    21.72,    21.38,    21.61
       82.0,      21.78,    21.90,    21.90,    21.55,    21.78
       83.0,      21.96,    22.08,    22.08,    21.73,    21.96
       84.0,      22.14,    22.26,    22.26,    21.90,    22.14
       85.0,      22.31,    22.43,    22.43,    22.07,    22.31
       86.0,      22.49,    22.61,    22.61,    22.24,    22.49
       87.0,      22.66,    22.79,    22.79,    22.41,    22.66
       88.0,      22.84,    22.96,    22.96,    22.58,    22.84
       89.0,      23.01,    23.14,    23.14,    22.75,    23.01
       90.0,      23.18,    23.31,    23.31,    22.92,    23.18
       91.0,      23.35,    23.48,    23.48,    23.09,    23.35
       92.0,      23.52,    23.66,    23.66,    23.26,    23.52
       93.0,      23.69,    23.83,    23.83,    23.43,    23.69
       94.0,      23.86,    24.00,    24.00,    23.60,    23.86
       95.0,      24.03,    24.17,    24.17,    23.76,    24.03
       96.0,      24.20,    24.34,    24.34,    23.93,    24.20
       97.0,      24.37,    24.51,    24.51,    24.09,    24.37
       98.0,      24.55,    24.69,    24.69,    24.27,    24.55
       99.0,      24.74,    24.87,    24.90,    24.46,    24.74
      100.0,      24.96,    25.08,    25.13,    24.68,    24.95
      101.0,      25.20,    25.31,    25.39,    24.93,    25.19
      102.0,      25.48,    25.57,    25.68,    25.20,    25.45
      103.0,      25.76,    25.84,    25.99,    25.50,    25.73
      104.0,      26.05,    26.11,    26.30,    25.79,    26.02
      105.0,      26.32,    26.36,    26.57,    26.07,    26.28
      106.0,      26.55,    26.59,    26.81,    26.30,    26.51
      107.0,      26.72,    26.76,    26.97,    26.47,    26.68
      108.0,      26.82,    26.88,    27.06,    26.56,    26.79
      109.0,      26.85,    26.93,    27.07,    26.57,    26.83
      110.0,      26.81,    26.92,    27.00,    26.51,    26.79
      111.0,      26.70,    26.86,    26.87,    26.38,    26.70
      112.0,      26.55,    26.75,    26.69,    26.21,    26.56
      113.0,      26.37,    26.61,    26.47,    26.00,    26.39
      114.0,      26.17,    26.46,    26.25,    25.77,    26.21
      115.0,      25.98,    26.31,    26.03,    25.55,    26.02
      116.0,      25.79,    26.16,    25.81,    25.33,    25.84
      117.0,      25.61,    26.02,    25.61,    25.13,    25.67
      118.0,      25.44,    25.90,    25.42,    24.94,    25.51
      119.0,      25.28,    25.77,    25.24,    24.76,    25.36
      120.0,      25.13,    25.65,    25.07,    24.58,    25.22
      121.0,      24.98,    25.54,    24.90,    24.41,    25.08
      122.0,      24.84,    25.43,    24.74,    24.25,    24.94
      123.0,      24.70,    25.32,    24.58,    24.09,    24.81
      124.0,      24.57,    25.21,    24.43,    23.94,    24.68
      125.0,      24.44,    25.11,    24.29,    23.80,    24.56
      126.0,      24.31,    25.01,    24.15,    23.65,    24.44
      127.0,      24.19,    24.91,    24.01,    23.52,    24.32
      128.0,      24.07,    24.82,    23.88,    23.38,    24.21
      129.0,      23.96,    24.73,    23.75,    23.26,    24.10
      130.0,      23.85,    24.64,    23.63,    23.13,    24.00
      131.0,      23.74,    24.55,    23.51,    23.01,    23.89
      132.0,      23.64,    24.47,    23.39,    22.90,    23.79
      133.0,      23.54,    24.39,    23.28,    22.78,    23.70
      134.0,      23.44,    24.30,    23.18,    22.68,    23.60
      135.0,      23.35,    24.23,    23.07,    22.57,    23.51
      136.0,      23.25,    24.15,    22.97,    22.47,    23.42
      137.0,      23.16,    24.08,    22.87,    22.37,    23.34
      138.0,      23.08,    24.00,    22.78,    22.27,    23.25
      139.0,      22.99,    23.93,    22.69,    22.18,    23.17
      140.0,      22.91,    23.86,    22.60,    22.09,    23.09
      141.0,      22.83,    23.80,    22.51,    22.00,    23.02
      142.0,      22.75,    23.73,    22.43,    21.92,    22.94
      143.0,      22.68,    23.67,    22.34,    21.83,    22.87
      144.0,      22.60,    23.60,    22.27,    21.75,    22.80
      145.0,      22.53,    23.54,    22.19,    21.68,    22.73
      146.0,      22.46,    23.48,    22.11,    21.60,    22.66
      147.0,      22.40,    23.42,    22.04,    21.53,    22.59
      148.0,      22.33,    23.36,    21.97,    21.46,    22.53
      149.0,      22.27,    23.31,    21.90,    21.39,    22.47
      150.0,      22.20,    23.25,    21.84,    21.32,    22.40
      151.0,      22.14,    23.20,    21.77,    21.25,    22.34
      152.0,      22.08,    23.14,    21.71,    21.19,    22.29
      153.0,      22.02,    23.09,    21.65,    21.13,    22.23
      154.0,      21.97,    23.04,    21.59,    21.07,    22.17
      155.0,      21.91,    22.99,    21.53,    21.01,    22.12
      156.0,      21.86,    22.94,    21.47,    20.95,    22.06
      157.0,      21.80,    22.89,    21.42,    20.89,    22.01
      158.0,      21.75,    22.84,    21.36,    20.84,    21.96
      159.0,      21.70,    22.79,    21.31,    20.78,    21.91
      160.0,      21.65,    22.75,    21.26,    20.73,    21.86
      161.0,      21.60,    22.70,    21.21,    20.68,    21.81
      162.0,      21.55,    22.66,    21.16,    20.63,    21.76
      163.0,      21.51,    22.61,    21.11,    20.58,    21.72
      164.0,      21.46,    22.57,    21.07,    20.53,    21.67
      165.0,      21.42,    22.53,    21.02,    20.49,    21.63
      166.0,      21.37,    22.48,    20.98,    20.44,    21.58
      167.0,      21.33,    22.44,    20.93,    20.40,    21.54
      168.0,      21.28,    22.40,    20.89,    20.35,    21.50
      169.0,      21.24,    22.36,    20.85,    20.31,    21.45
      170.0,      21.20,    22.32,    20.81,    20.27,    21.41
      171.0,      21.16,    22.28,    20.77,    20.23,    21.37
      172.0,      21.12,    22.24,    20.73,    20.19,    21.33
      173.0,      21.08,    22.20,    20.69,    20.15,    21.29
      174.0,      21.04,    22.16,    20.65,    20.11,    21.25
      175.0,      21.01,    22.12,    20.62,    20.07,    21.21
      176.0,      20.97,    22.09,    20.58,    20.03,    21.18
      177.0,      20.93,    22.05,    20.54,    20.00,    21.14
      178.0,      20.90,    22.01,    20.51,    19.96,    21.10
      179.0,      20.86,    21.98,    20.47,    19.92,    21.07
      180.0,      20.83,    21.94,    20.44,    19.89,    21.03
      181.0,      20.79,    21.91,    20.41,    19.85,    21.00
      182.0,      20.76,    21.87,    20.37,    19.82,    20.96
      183.0,      20.72,    21.84,    20.34,    19.79,    20.93
      184.0,      20.69,    21.80,    20.31,    19.75,    20.89
      185.0,      20.66,    21.77,    20.28,    19.72,    20.86
      186.0,      20.62,    21.73,    20.25,    19.69,    20.82
      187.0,      20.59,    21.70,    20.22,    19.66,    20.79
      188.0,      20.56,    21.67,    20.19,    19.63,    20.76
      189.0,      20.53,    21.63,    20.16,    19.60,    20.73
      190.0,      20.50,    21.60,    20.13,    19.57,    20.70
      191.0,      20.47,    21.57,    20.10,    19.54,    20.66
      192.0,      20.44,    21.53,    20.07,    19.51,    20.63
      193.0,      20.41,    21.50,    20.04,    19.48,    20.60
      194.0,      20.38,    21.47,    20.02,    19.45,    20.57
      195.0,      20.35,    21.44,    19.99,    19.42,    20.54
      196.0,      20.32,    21.41,    19.96,    19.39,    20.51
      197.0,      20.29,    21.38,    19.93,    19.36,    20.48
      198.0,      20.26,    21.34,    19.91,    19.34,    20.45
      199.0,      20.23,    21.31,    19.88,    19.31,    20.42
      200.0,      20.20,    21.28,    19.86,    19.28,    20.39
      201.0,      20.17,    21.25,    19.83,    19.25,    20.36
      202.0,      20.15,    21.22,    19.81,    19.23,    20.33
      203.0,      20.12,    21.19,    19.78,    19.20,    20.30
      204.0,      20.09,    21.16,    19.76,    19.18,    20.28
      205.0,      20.06,    21.13,    19.73,    19.15,    20.25
      206.0,      20.04,    21.10,    19.71,    19.12,    20.22
      207.0,      20.01,    21.07,    19.68,    19.10,    20.19
      208.0,      19.98,    21.04,    19.66,    19.07,    20.16
      209.0,      19.96,    21.01,    19.63,    19.05,    20.14
      210.0,      19.93,    20.98,    19.61,    19.02,    20.11
      211.0,      19.91,    20.95,    19.59,    19.00,    20.08
      212.0,      19.88,    20.92,    19.56,    18.98,    20.05
      213.0,      19.85,    20.90,    19.54,    18.95,    20.03
      214.0,      19.83,    20.87,    19.52,    18.93,    20.00
      215.0,      19.80,    20.84,    19.49,    18.90,    19.97
      216.0,      19.78,    20.81,    19.47,    18.88,    19.95
      217.0,      19.75,    20.78,    19.45,    18.86,    19.92
      218.0,      19.73,    20.75,    19.43,    18.83,    19.89
      219.0,      19.70,    20.72,    19.40,    18.81,    19.87
      220.0,      19.68,    20.70,    19.38,    18.79,    19.84
      221.0,      19.65,    20.67,    19.36,    18.76,    19.82
      222.0,      19.63,    20.64,    19.34,    18.74,    19.79
      223.0,      19.60,    20.61,    19.32,    18.72,    19.76
      224.0,      19.58,    20.59,    19.30,    18.69,    19.74
      225.0,      19.55,    20.56,    19.27,    18.67,    19.71
      226.0,      19.53,    20.53,    19.25,    18.65,    19.69
      227.0,      19.51,    20.50,    19.23,    18.63,    19.66
      228.0,      19.48,    20.48,    19.21,    18.60,    19.64
      229.0,      19.46,    20.45,    19.19,    18.58,    19.61
      230.0,      19.43,    20.42,    19.17,    18.56,    19.59
      231.0,      19.41,    20.39,    19.15,    18.54,    19.56
      232.0,      19.39,    20.37,    19.13,    18.52,    19.54
      233.0,      19.36,    20.34,    19.11,    18.49,    19.51
      234.0,      19.34,    20.31,    19.08,    18.47,    19.49
      235.0,      19.32,    20.29,    19.06,    18.45,    19.46
      236.0,      19.29,    20.26,    19.04,    18.43,    19.44
      237.0,      19.27,    20.23,    19.02,    18.41,    19.41
      238.0,      19.25,    20.21,    19.00,    18.39,    19.39
      239.0,      19.22,    20.18,    18.98,    18.37,    19.36
      240.0,      19.20,    20.15,    18.96,    18.34,    19.34
      241.0,      19.18,    20.13,    18.94,    18.32,    19.32
      242.0,      19.15,    20.10,    18.92,    18.30,    19.29
      243.0,      19.13,    20.07,    18.90,    18.28,    19.27
      244.0,      19.11,    20.05,    18.88,    18.26,    19.24
      245.0,      19.09,    20.02,    18.86,    18.24,    19.22
      246.0,      19.06,    19.99,    18.84,    18.22,    19.20
      247.0,      19.04,    19.97,    18.82,    18.20,    19.17
      248.0,      19.02,    19.94,    18.80,    18.18,    19.15
      249.0,      18.99,    19.92,    18.78,    18.16,    19.12
      250.0,      18.97,    19.89,    18.76,    18.14,    19.10
      251.0,      18.95,    19.86,    18.74,    18.11,    19.08
      252.0,      18.93,    19.84,    18.72,    18.09,    19.05
      253.0,      18.91,    19.81,    18.71,    18.07,    19.03
      254.0,      18.88,    19.79,    18.69,    18.05,    19.01
      255.0,      18.86,    19.76,    18.67,    18.03,    18.98
      256.0,      18.84,    19.73,    18.65,    18.01,    18.96
      257.0,      18.82,    19.71,    18.63,    17.99,    18.94
      258.0,      18.79,    19.68,    18.61,    17.97,    18.91
      259.0,      18.77,    19.66,    18.59,    17.95,    18.89
      260.0,      18.75,    19.63,    18.57,    17.93,    18.87
      261.0,      18.73,    19.61,    18.55,    17.91,    18.84
      262.0,      18.71,    19.58,    18.53,    17.89,    18.82
      263.0,      18.68,    19.56,    18.51,    17.87,    18.80
      264.0,      18.66,    19.53,    18.49,    17.85,    18.77
      265.0,      18.64,    19.51,    18.48,    17.83,    18.75
      266.0,      18.62,    19.48,    18.46,    17.81,    18.73
      267.0,      18.60,    19.45,    18.44,    17.79,    18.70
      268.0,      18.58,    19.43,    18.42,    17.77,    18.68
      269.0,      18.55,    19.40,    18.40,    17.75,    18.66
      270.0,      18.53,    19.38,    18.38,    17.73,    18.64
      271.0,      18.51,    19.35,    18.36,    17.71,    18.61
      272.0,      18.49,    19.33,    18.34,    17.69,    18.59
      273.0,      18.47,    19.30,    18.33,    17.67,    18.57
      274.0,      18.45,    19.28,    18.31,    17.65,    18.55
      275.0,      18.43,    19.25,    18.29,    17.64,    18.52
      276.0,      18.40,    19.23,    18.27,    17.62,    18.50
      277.0,      18.38,    19.21,    18.25,    17.60,    18.48
      278.0,      18.36,    19.18,    18.23,    17.58,    18.46
      279.0,      18.34,    19.16,    18.21,    17.56,    18.43
      280.0,      18.32,    19.13,    18.20,    17.54,    18.41
      281.0,      18.30,    19.11,    18.18,    17.52,    18.39
      282.0,      18.28,    19.08,    18.16,    17.50,    18.37
      283.0,      18.26,    19.06,    18.14,    17.48,    18.34
      284.0,      18.23,    19.03,    18.12,    17.46,    18.32
      285.0,      18.21,    19.01,    18.10,    17.44,    18.30
      286.0,      18.19,    18.98,    18.09,    17.42,    18.28
      287.0,      18.17,    18.96,    18.07,    17.40,    18.25
      288.0,      18.15,    18.93,    18.05,    17.38,    18.23
      289.0,      18.13,    18.91,    18.03,    17.36,    18.21
      290.0,      18.11,    18.89,    18.01,    17.35,    18.19
      291.0,      18.09,    18.86,    17.99,    17.33,    18.17
      292.0,      18.07,    18.84,    17.98,    17.31,    18.14
      293.0,      18.05,    18.81,    17.96,    17.29,    18.12
      294.0,      18.02,    18.79,    17.94,    17.27,    18.10
      295.0,      18.00,    18.76,    17.92,    17.25,    18.08
      296.0,      17.98,    18.74,    17.90,    17.23,    18.06
      297.0,      17.96,    18.72,    17.89,    17.21,    18.03
      298.0,      17.94,    18.69,    17.87,    17.19,    18.01
      299.0,      17.92,    18.67,    17.85,    17.17,    17.99
      300.0,      17.90,    18.64,    17.83,    17.16,    17.97
      301.0,      17.88,    18.62,    17.81,    17.14,    17.95
      302.0,      17.86,    18.60,    17.80,    17.12,    17.92
      303.0,      17.84,    18.57,    17.78,    17.10,    17.90
      304.0,      17.82,    18.55,    17.76,    17.08,    17.88
      305.0,      17.80,    18.53,    17.74,    17.06,    17.86
      306.0,      17.78,    18.50,    17.72,    17.04,    17.84
      307.0,      17.76,    18.48,    17.71,    17.02,    17.82
      308.0,      17.74,    18.45,    17.69,    17.01,    17.79
      309.0,      17.72,    18.43,    17.67,    16.99,    17.77
      310.0,      17.70,    18.41,    17.65,    16.97,    17.75
