Radius (km), Mean (m/s), NE (m/s), SE (m/s), SW (m/s), NW (m/s)
        0.0,       0.00,     0.00,     0.00,     0.00,     0.00
        1.0,       0.93,     0.93,     0.94,     0.93,     0.93
        2.0,       1.46,     1.46,     1.47,     1.45,     1.46
        3.0,       1.89,     1.89,     1.90,     1.89,     1.89
        4.0,       2.28,     2.28,     2.29,     2.27,     2.28
        5.0,       2.63,     2.63,     2.64,     2.63,     2.63
        6.0,       2.96,     2.96,     2.97,     2.96,     2.96
        7.0,       3.27,     3.27,     3.28,     3.27,     3.27
        8.0,       3.57,     3.57,     3.57,     3.56,     3.57
        9.0,       3.85,     3.85,     3.85,     3.84,     3.85
       10.0,       4.12,     4.12,     4.12,     4.12,     4.12
       11.0,       4.38,     4.38,     4.38,     4.38,     4.38
       12.0,       4.63,     4.63,     4.63,     4.63,     4.63
       13.0,       4.88,     4.88,     4.87,     4.88,     4.88
       14.0,       5.11,     5.11,     5.11,     5.12,     5.11
       15.0,       5.35,     5.35,     5.34,     5.35,     5.35
       16.0,       5.57,     5.57,     5.57,     5.58,     5.57
       17.0,       5.80,     5.80,     5.79,     5.81,     5.80
       18.0,       6.01,     6.01,     6.00,     6.02,     6.01
       19.0,       6.23,     6.23,     6.22,     6.24,     6.23
       20.0,       6.44,     6.44,     6.42,     6.45,     6.44
       21.0,       6.64,     6.64,     6.63,     6.66,     6.64
       22.0,       6.84,     6.85,     6.83,     6.86,     6.85
       23.0,       7.04,     7.04,     7.03,     7.06,     7.04
       24.0,       7.24,     7.24,     7.22,     7.26,     7.24
       25.0,       7.43,     7.43,     7.41,     7.45,     7.43
       26.0,       7.62,     7.62,     7.60,     7.65,     7.62
       27.0,       7.81,     7.81,     7.79,     7.84,     7.81
       28.0,       8.00,     8.00,     7.97,     8.02,     8.00
       29.0,       8.18,     8.18,     8.15,     8.21,     8.18
       30.0,       8.36,     8.36,     8.33,     8.39,     8.36
       31.0,       8.54,     8.54,     8.51,     8.57,     8.54
       32.0,       8.72,     8.72,     8.68,     8.75,     8.72
       33.0,       8.89,     8.89,     8.86,     8.92,     8.89
       34.0,       9.06,     9.06,     9.03,     9.10,     9.06
       35.0,       9.23,     9.23,     9.20,     9.27,     9.23
       36.0,       9.40,     9.40,     9.37,     9.44,     9.40
       37.0,       9.57,     9.57,     9.53,     9.61,     9.57
       38.0,       9.74,     9.74,     9.70,     9.78,     9.74
       39.0,       9.90,     9.90,     9.86,     9.94,     9.90
       40.0,      10.06,    10.06,    10.02,    10.11,    10.06
       41.0,      10.23,    10.23,    10.18,    10.27,    10.23
       42.0,      10.39,    10.39,    10.34,    10.43,    10.39
       43.0,      10.55,    10.55,    10.50,    10.59,    10.55
       44.0,      10.70,    10.70,    10.65,    10.75,    10.70
       45.0,      10.86,    10.86,    10.81,    10.91,    10.86
       46.0,      11.01,    11.01,    10.96,    11.07,    11.01
       47.0,      11.17,    11.17,    11.11,    11.22,    11.17
       48.0,      11.32,    11.32,    11.26,    11.38,    11.32
       49.0,      11.47,    11.47,    11.41,    11.53,    11.47
       50.0,      11.62,    11.62,    11.56,    11.68,    11.62
       51.0,      11.77,    11.77,    11.71,    11.83,    11.77
       52.0,      11.92,    11.92,    11.86,    11.98,    11.92
       53.0,      12.07,    12.07,    12.00,    12.13,    12.07
       54.0,      12.21,    12.21,    12.15,    12.28,    12.21
       55.0,      12.36,    12.36,    12.29,    12.43,    12.36
       56.0,      12.50,    12.50,    12.43,    12.57,    12.50
       57.0,      12.65,    12.65,    12.58,    12.72,    12.65
       58.0,      12.79,    12.79,    12.72,    12.86,    12.79
       59.0,      12.93,    12.93,    12.86,    13.00,    12.93
       60.0,      13.07,    13.07,    13.00,    13.15,    13.07
       61.0,      13.21,    13.21,    13.14,    13.29,    13.21
       62.0,      13.35,    13.35,    13.27,    13.43,    13.35
       63.0,      13.49,    13.49,    13.41,    13.57,    13.49
       64.0,      13.63,    13.63,    13.55,    13.71,    13.63
       65.0,      13.76,    13.76,    13.68,    13.85,    13.76
       66.0,      13.90,    13.90,    13.82,    13.98,    13.90
       67.0,      14.04,    14.04,    13.95,    14.12,    14.04
       68.0,      14.17,    14.17,    14.08,    14.26,    14.17
       69.0,      14.31,    14.31,    14.22,    14.39,    14.31
       70.0,      14.44,    14.44,    14.35,    14.53,    14.44
       71.0,      14.57,    14.57,    14.48,    14.66,    14.57
       72.0,      14.70,    14.70,    14.61,    14.80,    14.70
       73.0,      14.83,    14.83,    14.74,    14.93,    14.83
       74.0,      14.97,    14.97,    14.87,    15.06,    14.97
       75.0,      15.10,    15.10,    15.00,    15.19,    15.10
       76.0,      15.22,    15.22,    15.13,    15.32,    15.22
       77.0,      15.35,    15.35,    15.25,    15.45,    15.35
       78.0,      15.48,    15.48,    15.38,    15.58,    15.48
       79.0,      15.61,    15.61,    15.51,    15.71,    15.61
       80.0,      15.74,    15.74,    15.63,    15.84,    15.74
       81.0,      15.86,    15.86,    15.76,    15.97,    15.86
       82.0,      15.99,    15.99,    15.88,    16.10,    15.99
       83.0,      16.11,    16.11,    16.01,    16.22,    16.11
       84.0,      16.24,    16.24,    16.13,    16.35,    16.24
       85.0,      16.36,    16.36,    16.25,    16.48,    16.36
       86.0,      16.49,    16.49,    16.37,    16.60,    16.49
       87.0,      16.61,    16.61,    16.50,    16.73,    16.61
       88.0,      16.73,    16.73,    16.62,    16.85,    16.73
       89.0,      16.86,    16.86,    16.74,    16.97,    16.86
       90.0,      16.98,    16.98,    16.86,    17.10,    16.98
       91.0,      17.10,    17.10,    16.98,    17.22,    17.10
       92.0,      17.22,    17.22,    17.10,    17.34,    17.22
       93.0,      17.34,    17.34,    17.22,    17.47,    17.34
       94.0,      17.46,    17.46,    17.34,    17.59,    17.46
       95.0,      17.58,    17.58,    17.45,    17.71,    17.58
       96.0,      17.70,    17.70,    17.57,    17.83,    17.70
       97.0,      17.82,    17.82,    17.69,    17.95,    17.82
       98.0,      17.94,    17.94,    17.81,    18.07,    17.94
       99.0,      18.05,    18.05,    17.92,    18.19,    18.05
      100.0,      18.17,    18.17,    18.04,    18.31,    18.17
      101.0,      18.29,    18.29,    18.15,    18.42,    18.29
      102.0,      18.41,    18.41,    18.27,    18.54,    18.41
      103.0,      18.52,    18.52,    18.38,    18.66,    18.52
      104.0,      18.64,    18.64,    18.50,    18.78,    18.64
      105.0,      18.75,    18.75,    18.61,    18.89,    18.75
      106.0,      18.87,    18.87,    18.72,    19.01,    18.87
      107.0,      18.98,    18.98,    18.84,    19.13,    18.98
      108.0,      19.10,    19.10,    18.95,    19.24,    19.10
      109.0,      19.21,    19.21,    19.06,    19.36,    19.21
      110.0,      19.32,    19.32,    19.18,    19.47,    19.32
      111.0,      19.44,    19.44,    19.29,    19.59,    19.44
      112.0,      19.55,    19.55,    19.40,    19.70,    19.55
      113.0,      19.66,    19.66,    19.51,    19.82,    19.66
      114.0,      19.77,    19.77,    19.62,    19.93,    19.77
      115.0,      19.89,    19.89,    19.73,    20.04,    19.89
      116.0,      20.00,    20.00,    19.84,    20.15,    20.00
      117.0,      20.11,    20.11,    19.95,    20.27,    20.11
      118.0,      20.22,    20.22,    20.06,    20.38,    20.22
      119.0,      20.33,    20.33,    20.17,    20.49,    20.33
      120.0,      20.44,    20.44,    20.28,    20.60,    20.44
      121.0,      20.55,    20.55,    20.38,    20.71,    20.55
      122.0,      20.66,    20.66,    20.49,    20.82,    20.66
      123.0,      20.77,    20.77,    20.60,    20.94,    20.77
      124.0,      20.88,    20.88,    20.71,    21.05,    20.88
      125.0,      20.98,    20.98,    20.81,    21.16,    20.98
      126.0,      21.09,    21.09,    20.92,    21.26,    21.09
      127.0,      21.20,    21.20,    21.03,    21.37,    21.20
      128.0,      21.31,    21.31,    21.13,    21.48,    21.31
      129.0,      21.42,    21.42,    21.24,    21.59,    21.42
      130.0,      21.52,    21.52,    21.34,    21.70,    21.52
      131.0,      21.63,    21.63,    21.45,    21.81,    21.63
      132.0,      21.74,    21.74,    21.55,    21.92,    21.74
      133.0,      21.84,    21.84,    21.66,    22.02,    21.84
      134.0,      21.95,    21.95,    21.76,    22.13,    21.95
      135.0,      22.05,    22.05,    21.87,    22.24,    22.05
      136.0,      22.16,    22.16,    21.97,    22.34,    22.16
      137.0,      22.26,    22.26,    22.07,    22.45,    22.26
      138.0,      22.37,    22.37,    22.18,    22.56,    22.37
      139.0,      22.47,    22.47,    22.28,    22.66,    22.47
      140.0,      22.58,    22.58,    22.38,    22.77,    22.58
      141.0,      22.68,    22.68,    22.49,    22.87,    22.68
      142.0,      22.78,    22.78,    22.59,    22.98,    22.78
      143.0,      22.89,    22.89,    22.69,    23.08,    22.89
      144.0,      22.99,    22.99,    22.79,    23.19,    22.99
      145.0,      23.09,    23.09,    22.89,    23.29,    23.09
      146.0,      23.19,    23.19,    22.99,    23.40,    23.19
      147.0,      23.30,    23.30,    23.10,    23.50,    23.30
      148.0,      23.40,    23.40,    23.20,    23.60,    23.40
      149.0,      23.50,    23.50,    23.30,    23.71,    23.50
      150.0,      23.60,    23.60,    23.40,    23.81,    23.60
      151.0,      23.70,    23.70,    23.50,    23.91,    23.70
      152.0,      23.81,    23.81,    23.60,    24.01,    23.81
      153.0,      23.91,    23.91,    23.70,    24.12,    23.91
      154.0,      24.01,    24.01,    23.79,    24.22,    24.01
      155.0,      24.11,    24.13,    23.89,    24.32,    24.11
      156.0,      24.22,    24.25,    24.00,    24.42,    24.21
      157.0,      24.34,    24.40,    24.10,    24.53,    24.33
      158.0,      24.47,    24.56,    24.22,    24.65,    24.45
      159.0,      24.61,    24.73,    24.35,    24.77,    24.58
      160.0,      24.75,    24.91,    24.48,    24.90,    24.73
      161.0,      24.90,    25.07,    24.62,    25.03,    24.87
      162.0,      25.03,    25.21,    24.75,    25.17,    25.01
      163.0,      25.14,    25.30,    24.86,    25.28,    25.12
      164.0,      25.23,    25.36,    24.95,    25.38,    25.21
      165.0,      25.27,    25.36,    25.01,    25.45,    25.26
      166.0,      25.28,    25.32,    25.04,    25.49,    25.28
      167.0,      25.25,    25.23,    25.03,    25.49,    25.25
      168.0,      25.18,    25.11,    24.98,    25.46,    25.19
      169.0,      25.09,    24.98,    24.90,    25.40,    25.10
      170.0,      24.98,    24.83,    24.81,    25.32,    24.98
      171.0,      24.87,    24.68,    24.70,    25.22,    24.86
      172.0,      24.75,    24.54,    24.59,    25.12,    24.74
      173.0,      24.63,    24.40,    24.49,    25.02,    24.62
      174.0,      24.53,    24.28,    24.38,    24.93,    24.51
      175.0,      24.43,    24.16,    24.29,    24.85,    24.41
      176.0,      24.33,    24.04,    24.20,    24.76,    24.32
      177.0,      24.24,    23.93,    24.12,    24.69,    24.23
      178.0,      24.15,    23.82,    24.03,    24.61,    24.14
      179.0,      24.06,    23.71,    23.95,    24.53,    24.05
      180.0,      23.97,    23.61,    23.87,    24.46,    23.96
      181.0,      23.89,    23.51,    23.79,    24.38,    23.88
      182.0,      23.80,    23.41,    23.71,    24.31,    23.79
      183.0,      23.72,    23.31,    23.63,    24.23,    23.71
      184.0,      23.64,    23.22,    23.55,    24.16,    23.63
      185.0,      23.56,    23.13,    23.47,    24.08,    23.55
      186.0,      23.48,    23.04,    23.39,    24.01,    23.47
      187.0,      23.40,    22.95,    23.31,    23.93,    23.40
      188.0,      23.32,    22.87,    23.24,    23.86,    23.32
      189.0,      23.25,    22.79,    23.16,    23.78,    23.25
      190.0,      23.17,    22.71,    23.09,    23.71,    23.17
      191.0,      23.10,    22.63,    23.01,    23.64,    23.10
      192.0,      23.02,    22.56,    22.94,    23.56,    23.03
      193.0,      22.95,    22.48,    22.87,    23.49,    22.96
      194.0,      22.88,    22.41,    22.80,    23.42,    22.89
      195.0,      22.81,    22.34,    22.72,    23.35,    22.82
      196.0,      22.74,    22.27,    22.65,    23.28,    22.76
      197.0,      22.67,    22.20,    22.58,    23.20,    22.69
      198.0,      22.60,    22.14,    22.51,    23.13,    22.62
      199.0,      22.53,    22.08,    22.44,    23.06,    22.56
      200.0,      22.47,    22.01,    22.37,    22.99,    22.49
      201.0,      22.40,    21.95,    22.31,    22.92,    22.43
      202.0,      22.34,    21.89,    22.24,    22.85,    22.37
      203.0,      22.27,    21.83,    22.17,    22.78,    22.31
      204.0,      22.21,    21.78,    22.10,    22.71,    22.24
      205.0,      22.15,    21.72,    22.04,    22.64,    22.18
      206.0,      22.08,    21.67,    21.97,    22.57,    22.12
      207.0,      22.02,    21.61,    21.91,    22.50,    22.06
      208.0,      21.96,    21.56,    21.84,    22.43,    22.00
      209.0,      21.90,    21.51,    21.78,    22.36,    21.95
      210.0,      21.84,    21.46,    21.71,    22.29,    21.89
      211.0,      21.78,    21.41,    21.65,    22.23,    21.83
      212.0,      21.72,    21.36,    21.59,    22.16,    21.77
      213.0,      21.66,    21.32,    21.52,    22.09,    21.72
      214.0,      21.60,    21.27,    21.46,    22.02,    21.66
      215.0,      21.55,    21.22,    21.40,    21.96,    21.61
      216.0,      21.49,    21.18,    21.34,    21.89,    21.55
      217.0,      21.43,    21.14,    21.28,    21.82,    21.50
      218.0,      21.38,    21.09,    21.22,    21.76,    21.44
      219.0,      21.32,    21.05,    21.16,    21.69,    21.39
      220.0,      21.27,    21.01,    21.10,    21.62,    21.34
      221.0,      21.21,    20.97,    21.04,    21.56,    21.28
      222.0,      21.16,    20.93,    20.98,    21.49,    21.23
      223.0,      21.10,    20.89,    20.92,    21.43,    21.18
      224.0,      21.05,    20.85,    20.86,    21.36,    21.13
      225.0,      21.00,    20.81,    20.80,    21.30,    21.08
      226.0,      20.94,    20.78,    20.75,    21.23,    21.03
      227.0,      20.89,    20.74,    20.69,    21.17,    20.98
      228.0,      20.84,    20.70,    20.63,    21.10,    20.92
      229.0,      20.79,    20.67,    20.58,    21.04,    20.87
      230.0,      20.74,    20.63,    20.52,    20.97,    20.82
      231.0,      20.69,    20.60,    20.46,    20.91,    20.78
      232.0,      20.64,    20.56,    20.41,    20.85,    20.73
      233.0,      20.59,    20.53,    20.35,    20.78,    20.68
      234.0,      20.54,    20.50,    20.30,    20.72,    20.63
      235.0,      20.49,    20.47,    20.24,    20.66,    20.58
      236.0,      20.44,    20.43,    20.19,    20.60,    20.53
      237.0,      20.39,    20.40,    20.13,    20.53,    20.48
      238.0,      20.34,    20.37,    20.08,    20.47,    20.44
      239.0,      20.29,    20.34,    20.03,    20.41,    20.39
      240.0,      20.24,    20.31,    19.97,    20.35,    20.34
      241.0,      20.19,    20.28,    19.92,    20.29,    20.29
      242.0,      20.15,    20.25,    19.87,    20.22,    20.25
      243.0,      20.10,    20.22,    19.81,    20.16,    20.20
      244.0,      20.05,    20.19,    19.76,    20.10,    20.15
      245.0,      20.01,    20.16,    19.71,    20.04,    20.11
      246.0,      19.96,    20.13,    19.66,    19.98,    20.06
      247.0,      19.91,    20.10,    19.61,    19.92,    20.02
      248.0,      19.87,    20.08,    19.56,    19.86,    19.97
      249.0,      19.82,    20.05,    19.50,    19.80,    19.93
      250.0,      19.77,    20.02,    19.45,    19.74,    19.88
      251.0,      19.73,    19.99,    19.40,    19.68,    19.84
      252.0,      19.68,    19.97,    19.35,    19.62,    19.79
      253.0,      19.64,    19.94,    19.30,    19.56,    19.75
      254.0,      19.59,    19.92,    19.25,    19.51,    19.70
      255.0,      19.55,    19.89,    19.20,    19.45,    19.66
      256.0,      19.50,    19.86,    19.15,    19.39,    19.61
      257.0,      19.46,    19.84,    19.10,    19.33,    19.57
      258.0,      19.42,    19.81,    19.06,    19.27,    19.53
      259.0,      19.37,    19.79,    19.01,    19.21,    19.48
      260.0,      19.33,    19.76,    18.96,    19.16,    19.44
      261.0,      19.29,    19.74,    18.91,    19.10,    19.39
      262.0,      19.24,    19.71,    18.86,    19.04,    19.35
      263.0,      19.20,    19.69,    18.81,    18.98,    19.31
      264.0,      19.16,    19.67,    18.77,    18.93,    19.27
      265.0,      19.11,    19.64,    18.72,    18.87,    19.22
      266.0,      19.07,    19.62,    18.67,    18.81,    19.18
      267.0,      19.03,    19.59,    18.62,    18.76,    19.14
      268.0,      18.99,    19.57,    18.58,    18.70,    19.09
      269.0,      18.94,    19.55,    18.53,    18.65,    19.05
      270.0,      18.90,    19.52,    18.48,    18.59,    19.01
      271.0,      18.86,    19.50,    18.44,    18.54,    18.97
      272.0,      18.82,    19.48,    18.39,    18.48,    18.93
      273.0,      18.78,    19.46,    18.34,    18.42,    18.88
      274.0,      18.74,    19.43,    18.30,    18.37,    18.84
      275.0,      18.69,    19.41,    18.25,    18.31,    18.80
      276.0,      18.65,    19.39,    18.21,    18.26,    18.76
      277.0,      18.61,    19.37,    18.16,    18.21,    18.72
      278.0,      18.57,    19.34,    18.12,    18.15,    18.68
      279.0,      18.53,    19.32,    18.07,    18.10,    18.64
      280.0,      18.49,    19.30,    18.03,    18.04,    18.60
      281.0,      18.45,    19.28,    17.98,    17.99,    18.55
      282.0,      18.41,    19.26,    17.94,    17.94,    18.51
      283.0,      18.37,    19.23,    17.89,    17.88,    18.47
      284.0,      18.33,    19.21,    17.85,    17.83,    18.43
      285.0,      18.29,    19.19,    17.80,    17.78,    18.39
      286.0,      18.25,    19.17,    17.76,    17.72,    18.35
      287.0,      18.21,    19.15,    17.72,    17.67,    18.31
      288.0,      18.17,    19.13,    17.67,    17.62,    18.27
      289.0,      18.13,    19.11,    17.63,    17.57,    18.23
      290.0,      18.09,    19.09,    17.59,    17.51,    18.19
      291.0,      18.06,    19.07,    17.54,    17.46,    18.15
      292.0,      18.02,    19.04,    17.50,    17.41,    18.11
      293.0,      17.98,    19.02,    17.46,    17.36,    18.07
      294.0,      17.94,    19.00,    17.41,    17.31,    18.03
      295.0,      17.90,    18.98,    17.37,    17.26,    17.99
      296.0,      17.86,    18.96,    17.33,    17.21,    17.96
      297.0,      17.82,    18.94,    17.29,    17.16,    17.92
      298.0,      17.79,    18.92,    17.24,    17.10,    17.88
      299.0,      17.75,    18.90,    17.20,    17.05,    17.84
      300.0,      17.71,    18.88,    17.16,    17.00,    17.80
      301.0,      17.67,    18.86,    17.12,    16.95,    17.76
      302.0,      17.64,    18.84,    17.08,    16.90,    17.72
      303.0,      17.60,    18.82,    17.04,    16.85,    17.68
      304.0,      17.56,    18.80,    16.99,    16.80,    17.64
      305.0,      17.52,    18.78,    16.95,    16.75,    17.61
      306.0,      17.49,    18.76,    16.91,    16.70,    17.57
      307.0,      17.45,    18.74,    16.87,    16.66,    17.53
      308.0,      17.41,    18.72,    16.83,    16.61,    17.49
      309.0,      17.38,    18.70,    16.79,    16.56,    17.45
      310.0,      17.34,    18.68,    16.75,    16.51,    17.42
