Radius (km), Mean (m/s), NE (m/s), SE (m/s), SW (m/s), NW (m/s)
        0.0,       0.00,     0.00,     0.00,     0.00,     0.00
        1.0,       1.13,     1.11,     1.12,     1.13,     1.18
        2.0,       1.69,     1.66,     1.67,     1.68,     1.73
        3.0,       2.13,     2.11,     2.12,     2.12,     2.16
        4.0,       2.51,     2.50,     2.50,     2.51,     2.53
        5.0,       2.85,     2.84,     2.85,     2.85,     2.86
        6.0,       3.17,     3.16,     3.17,     3.17,     3.17
        7.0,       3.46,     3.46,     3.46,     3.46,     3.45
        8.0,       3.73,     3.74,     3.74,     3.74,     3.71
        9.0,       4.00,     4.01,     4.01,     4.00,     3.96
       10.0,       4.24,     4.27,     4.26,     4.25,     4.20
       11.0,       4.48,     4.51,     4.50,     4.50,     4.42
       12.0,       4.71,     4.75,     4.74,     4.73,     4.64
       13.0,       4.93,     4.97,     4.96,     4.95,     4.85
       14.0,       5.15,     5.19,     5.18,     5.17,     5.05
       15.0,       5.36,     5.41,     5.39,     5.38,     5.25
       16.0,       5.56,     5.62,     5.60,     5.58,     5.44
       17.0,       5.76,     5.82,     5.80,     5.78,     5.62
       18.0,       5.95,     6.02,     6.00,     5.97,     5.80
       19.0,       6.13,     6.21,     6.19,     6.16,     5.98
       20.0,       6.32,     6.40,     6.38,     6.35,     6.15
       21.0,       6.50,     6.58,     6.56,     6.53,     6.32
       22.0,       6.67,     6.77,     6.74,     6.71,     6.48
       23.0,       6.85,     6.94,     6.92,     6.88,     6.64
       24.0,       7.02,     7.12,     7.09,     7.05,     6.80
       25.0,       7.18,     7.29,     7.26,     7.22,     6.95
       26.0,       7.35,     7.46,     7.43,     7.39,     7.11
       27.0,       7.51,     7.63,     7.59,     7.55,     7.26
       28.0,       7.66,     7.79,     7.75,     7.71,     7.40
       29.0,       7.82,     7.95,     7.91,     7.87,     7.55
       30.0,       7.97,     8.11,     8.07,     8.02,     7.69
       31.0,       8.13,     8.27,     8.23,     8.18,     7.83
       32.0,       8.28,     8.42,     8.38,     8.33,     7.97
       33.0,       8.42,     8.58,     8.53,     8.48,     8.11
       34.0,       8.57,     8.73,     8.68,     8.62,     8.24
       35.0,       8.71,     8.88,     8.83,     8.77,     8.37
       36.0,       8.85,     9.03,     8.97,     8.91,     8.50
       37.0,       8.99,     9.17,     9.12,     9.05,     8.63
       38.0,       9.13,     9.32,     9.26,     9.20,     8.76
       39.0,       9.27,     9.46,     9.40,     9.33,     8.89
       40.0,       9.41,     9.60,     9.54,     9.47,     9.01
       41.0,       9.54,     9.74,     9.68,     9.61,     9.14
       42.0,       9.67,     9.88,     9.82,     9.74,     9.26
       43.0,       9.81,    10.01,     9.95,     9.88,     9.38
       44.0,       9.94,    10.15,    10.09,    10.01,     9.50
       45.0,      10.06,    10.28,    10.22,    10.14,     9.62
       46.0,      10.19,    10.42,    10.35,    10.27,     9.74
       47.0,      10.32,    10.55,    10.48,    10.40,     9.85
       48.0,      10.44,    10.68,    10.61,    10.52,     9.97
       49.0,      10.57,    10.81,    10.74,    10.65,    10.08
       50.0,      10.69,    10.94,    10.86,    10.77,    10.19
       51.0,      10.81,    11.06,    10.99,    10.90,    10.31
       52.0,      10.94,    11.19,    11.11,    11.02,    10.42
       53.0,      11.06,    11.32,    11.24,    11.14,    10.53
       54.0,      11.18,    11.44,    11.36,    11.26,    10.64
       55.0,      11.29,    11.56,    11.48,    11.38,    10.74
       56.0,      11.41,    11.69,    11.60,    11.50,    10.85
       57.0,      11.53,    11.81,    11.72,    11.62,    10.96
       58.0,      11.64,    11.93,    11.84,    11.74,    11.06
       59.0,      11.76,    12.05,    11.96,    11.85,    11.17
       60.0,      11.87,    12.17,    12.08,    11.97,    11.27
       61.0,      11.99,    12.29,    12.20,    12.08,    11.38
       62.0,      12.10,    12.40,    12.31,    12.20,    11.48
       63.0,      12.21,    12.52,    12.43,    12.31,    11.58
       64.0,      12.32,    12.64,    12.54,    12.42,    11.68
       65.0,      12.43,    12.75,    12.65,    12.54,    11.78
       66.0,      12.54,    12.87,    12.77,    12.65,    11.88
       67.0,      12.65,    12.98,    12.88,    12.76,    11.98
       68.0,      12.76,    13.09,    12.99,    12.87,    12.08
       69.0,      12.86,    13.21,    13.10,    12.98,    12.18
       70.0,      12.97,    13.32,    13.21,    13.08,    12.27
       71.0,      13.08,    13.43,    13.32,    13.19,    12.37
       72.0,      13.18,    13.54,    13.43,    13.30,    12.47
       73.0,      13.29,    13.65,    13.54,    13.40,    12.56
       74.0,      13.39,    13.76,    13.65,    13.51,    12.66
       75.0,      13.50,    13.87,    13.75,    13.62,    12.75
       76.0,      13.60,    13.97,    13.86,    13.72,    12.84
       77.0,      13.70,    14.08,    13.96,    13.82,    12.94
       78.0,      13.80,    14.19,    14.07,    13.93,    13.03
       79.0,      13.90,    14.29,    14.17,    14.03,    13.12
       80.0,      14.01,    14.40,    14.28,    14.13,    13.21
       81.0,      14.11,    14.50,    14.38,    14.23,    13.30
       82.0,      14.21,    14.61,    14.48,    14.34,    13.39
       83.0,      14.30,    14.71,    14.59,    14.44,    13.48
       84.0,      14.40,    14.82,    14.69,    14.54,    13.57
       85.0,      14.50,    14.92,    14.79,    14.64,    13.66
       86.0,      14.60,    15.02,    14.89,    14.73,    13.75
       87.0,      14.70,    15.12,    14.99,    14.83,    13.84
       88.0,      14.79,    15.22,    15.09,    14.93,    13.92
       89.0,      14.89,    15.33,    15.19,    15.03,    14.01
       90.0,      14.99,    15.43,    15.29,    15.13,    14.10
       91.0,      15.08,    15.53,    15.39,    15.22,    14.18
       92.0,      15.18,    15.63,    15.49,    15.32,    14.27
       93.0,      15.27,    15.72,    15.58,    15.42,    14.36
       94.0,      15.36,    15.82,    15.68,    15.51,    14.44
       95.0,      15.46,    15.92,    15.78,    15.61,    14.52
       96.0,      15.55,    16.02,    15.88,    15.70,    14.61
       97.0,      15.64,    16.12,    15.97,    15.80,    14.69
       98.0,      15.74,    16.21,    16.07,    15.89,    14.78
       99.0,      15.83,    16.31,    16.16,    15.98,    14.86
      100.0,      15.92,    16.41,    16.26,    16.08,    14.94
      101.0,      16.01,    16.50,    16.35,    16.17,    15.02
      102.0,      16.10,    16.60,    16.45,    16.26,    15.11
      103.0,      16.19,    16.69,    16.54,    16.35,    15.19
      104.0,      16.28,    16.79,    16.63,    16.44,    15.27
      105.0,      16.37,    16.88,    16.72,    16.53,    15.35
      106.0,      16.46,    16.97,    16.82,    16.63,    15.43
      107.0,      16.55,    17.07,    16.91,    16.72,    15.51
      108.0,      16.64,    17.16,    17.00,    16.81,    15.59
      109.0,      16.73,    17.25,    17.09,    16.90,    15.67
      110.0,      16.82,    17.35,    17.18,    16.98,    15.75
      111.0,      16.90,    17.44,    17.27,    17.07,    15.83
      112.0,      16.99,    17.53,    17.36,    17.16,    15.91
      113.0,      17.08,    17.62,    17.45,    17.25,    15.98
      114.0,      17.16,    17.71,    17.54,    17.34,    16.06
      115.0,      17.25,    17.80,    17.63,    17.43,    16.14
      116.0,      17.34,    17.89,    17.72,    17.51,    16.22
      117.0,      17.42,    17.98,    17.81,    17.60,    16.29
      118.0,      17.51,    18.07,    17.90,    17.69,    16.37
      119.0,      17.59,    18.16,    17.99,    17.77,    16.45
      120.0,      17.68,    18.25,    18.07,    17.86,    16.52
      121.0,      17.76,    18.34,    18.16,    17.95,    16.60
      122.0,      17.85,    18.43,    18.25,    18.03,    16.67
      123.0,      17.93,    18.52,    18.34,    18.12,    16.75
      124.0,      18.01,    18.61,    18.42,    18.20,    16.82
      125.0,      18.10,    18.69,    18.51,    18.29,    16.90
      126.0,      18.18,    18.78,    18.60,    18.37,    16.97
      127.0,      18.26,    18.87,    18.68,    18.45,    17.05
      128.0,      18.34,    18.95,    18.77,    18.54,    17.12
      129.0,      18.43,    19.04,    18.85,    18.62,    17.19
      130.0,      18.51,    19.13,    18.94,    18.70,    17.27
      131.0,      18.59,    19.21,    19.02,    18.79,    17.34
      132.0,      18.67,    19.30,    19.10,    18.87,    17.41
      133.0,      18.75,    19.38,    19.19,    18.95,    17.49
      134.0,      18.83,    19.47,    19.27,    19.03,    17.56
      135.0,      18.91,    19.55,    19.36,    19.12,    17.63
      136.0,      18.99,    19.64,    19.44,    19.20,    17.70
      137.0,      19.08,    19.72,    19.52,    19.28,    17.78
      138.0,      19.15,    19.81,    19.61,    19.36,    17.85
      139.0,      19.23,    19.89,    19.69,    19.44,    17.92
      140.0,      19.31,    19.97,    19.77,    19.52,    17.99
      141.0,      19.39,    20.06,    19.85,    19.60,    18.06
      142.0,      19.47,    20.14,    19.93,    19.68,    18.13
      143.0,      19.55,    20.22,    20.02,    19.76,    18.20
      144.0,      19.63,    20.31,    20.10,    19.84,    18.27
      145.0,      19.71,    20.39,    20.18,    19.92,    18.34
      146.0,      19.79,    20.47,    20.26,    20.00,    18.41
      147.0,      19.86,    20.55,    20.34,    20.08,    18.48
      148.0,      19.94,    20.63,    20.42,    20.16,    18.55
      149.0,      20.02,    20.72,    20.50,    20.24,    18.62
      150.0,      20.09,    20.80,    20.58,    20.32,    18.69
      151.0,      20.17,    20.88,    20.66,    20.39,    18.76
      152.0,      20.25,    20.96,    20.74,    20.47,    18.82
      153.0,      20.32,    21.04,    20.82,    20.55,    18.89
      154.0,      20.40,    21.12,    20.90,    20.63,    18.96
      155.0,      20.49,    21.20,    20.99,    20.72,    19.04
      156.0,      20.58,    21.29,    21.09,    20.82,    19.12
      157.0,      20.68,    21.38,    21.20,    20.93,    19.22
      158.0,      20.80,    21.48,    21.32,    21.07,    19.33
      159.0,      20.93,    21.59,    21.46,    21.22,    19.45
      160.0,      21.06,    21.71,    21.59,    21.37,    19.58
      161.0,      21.19,    21.82,    21.72,    21.51,    19.69
      162.0,      21.29,    21.93,    21.82,    21.62,    19.79
      163.0,      21.37,    22.02,    21.90,    21.70,    19.86
      164.0,      21.42,    22.09,    21.95,    21.74,    19.90
      165.0,      21.43,    22.13,    21.95,    21.72,    19.90
      166.0,      21.39,    22.13,    21.92,    21.66,    19.85
      167.0,      21.32,    22.11,    21.86,    21.55,    19.78
      168.0,      21.23,    22.06,    21.77,    21.41,    19.68
      169.0,      21.11,    21.98,    21.66,    21.24,    19.56
      170.0,      20.98,    21.89,    21.55,    21.06,    19.43
      171.0,      20.85,    21.79,    21.44,    20.89,    19.30
      172.0,      20.73,    21.70,    21.33,    20.72,    19.17
      173.0,      20.61,    21.61,    21.22,    20.56,    19.06
      174.0,      20.50,    21.52,    21.13,    20.41,    18.95
      175.0,      20.40,    21.44,    21.04,    20.26,    18.85
      176.0,      20.30,    21.37,    20.95,    20.13,    18.75
      177.0,      20.20,    21.29,    20.87,    20.00,    18.65
      178.0,      20.11,    21.22,    20.78,    19.87,    18.56
      179.0,      20.02,    21.15,    20.71,    19.75,    18.47
      180.0,      19.93,    21.09,    20.63,    19.64,    18.39
      181.0,      19.85,    21.02,    20.55,    19.52,    18.30
      182.0,      19.77,    20.95,    20.48,    19.41,    18.22
      183.0,      19.69,    20.89,    20.41,    19.31,    18.14
      184.0,      19.61,    20.83,    20.34,    19.21,    18.07
      185.0,      19.54,    20.76,    20.28,    19.11,    17.99
      186.0,      19.46,    20.70,    20.21,    19.01,    17.92
      187.0,      19.39,    20.64,    20.15,    18.92,    17.85
      188.0,      19.32,    20.58,    20.09,    18.83,    17.79
      189.0,      19.26,    20.53,    20.03,    18.74,    17.72
      190.0,      19.19,    20.47,    19.97,    18.66,    17.66
      191.0,      19.13,    20.41,    19.92,    18.58,    17.60
      192.0,      19.06,    20.36,    19.86,    18.50,    17.54
      193.0,      19.00,    20.31,    19.81,    18.42,    17.48
      194.0,      18.94,    20.25,    19.76,    18.35,    17.43
      195.0,      18.89,    20.20,    19.70,    18.28,    17.37
      196.0,      18.83,    20.15,    19.66,    18.21,    17.32
      197.0,      18.78,    20.10,    19.61,    18.14,    17.27
      198.0,      18.72,    20.05,    19.56,    18.07,    17.22
      199.0,      18.67,    20.00,    19.51,    18.01,    17.17
      200.0,      18.62,    19.95,    19.47,    17.95,    17.12
      201.0,      18.57,    19.90,    19.43,    17.89,    17.07
      202.0,      18.52,    19.85,    19.38,    17.83,    17.03
      203.0,      18.48,    19.80,    19.34,    17.77,    16.98
      204.0,      18.43,    19.76,    19.30,    17.72,    16.94
      205.0,      18.38,    19.71,    19.26,    17.66,    16.90
      206.0,      18.34,    19.66,    19.22,    17.61,    16.86
      207.0,      18.30,    19.62,    19.18,    17.56,    16.82
      208.0,      18.25,    19.57,    19.15,    17.51,    16.78
      209.0,      18.21,    19.53,    19.11,    17.46,    16.74
      210.0,      18.17,    19.49,    19.07,    17.42,    16.70
      211.0,      18.13,    19.44,    19.04,    17.37,    16.67
      212.0,      18.09,    19.40,    19.00,    17.33,    16.63
      213.0,      18.05,    19.36,    18.97,    17.28,    16.60
      214.0,      18.01,    19.31,    18.94,    17.24,    16.56
      215.0,      17.98,    19.27,    18.90,    17.20,    16.53
      216.0,      17.94,    19.23,    18.87,    17.16,    16.50
      217.0,      17.90,    19.19,    18.84,    17.12,    16.47
      218.0,      17.87,    19.15,    18.81,    17.08,    16.44
      219.0,      17.83,    19.11,    18.78,    17.04,    16.40
      220.0,      17.80,    19.07,    18.75,    17.01,    16.37
      221.0,      17.77,    19.03,    18.72,    16.97,    16.35
      222.0,      17.73,    18.99,    18.69,    16.94,    16.32
      223.0,      17.70,    18.95,    18.66,    16.90,    16.29
      224.0,      17.67,    18.91,    18.63,    16.87,    16.26
      225.0,      17.64,    18.87,    18.60,    16.84,    16.23
      226.0,      17.60,    18.83,    18.58,    16.80,    16.21
      227.0,      17.57,    18.80,    18.55,    16.77,    16.18
      228.0,      17.54,    18.76,    18.52,    16.74,    16.15
      229.0,      17.51,    18.72,    18.50,    16.71,    16.13
      230.0,      17.48,    18.68,    18.47,    16.68,    16.10
      231.0,      17.45,    18.65,    18.44,    16.65,    16.08
      232.0,      17.43,    18.61,    18.42,    16.62,    16.05
      233.0,      17.40,    18.57,    18.39,    16.59,    16.03
      234.0,      17.37,    18.54,    18.37,    16.57,    16.00
      235.0,      17.34,    18.50,    18.34,    16.54,    15.98
      236.0,      17.31,    18.46,    18.32,    16.51,    15.96
      237.0,      17.29,    18.43,    18.30,    16.49,    15.94
      238.0,      17.26,    18.39,    18.27,    16.46,    15.91
      239.0,      17.23,    18.36,    18.25,    16.43,    15.89
      240.0,      17.21,    18.32,    18.22,    16.41,    15.87
      241.0,      17.18,    18.29,    18.20,    16.38,    15.85
      242.0,      17.15,    18.25,    18.18,    16.36,    15.83
      243.0,      17.13,    18.22,    18.16,    16.34,    15.80
      244.0,      17.10,    18.18,    18.13,    16.31,    15.78
      245.0,      17.08,    18.15,    18.11,    16.29,    15.76
      246.0,      17.05,    18.11,    18.09,    16.26,    15.74
      247.0,      17.03,    18.08,    18.07,    16.24,    15.72
      248.0,      17.00,    18.04,    18.05,    16.22,    15.70
      249.0,      16.98,    18.01,    18.02,    16.20,    15.68
      250.0,      16.95,    17.98,    18.00,    16.17,    15.66
      251.0,      16.93,    17.94,    17.98,    16.15,    15.64
      252.0,      16.91,    17.91,    17.96,    16.13,    15.62
      253.0,      16.88,    17.87,    17.94,    16.11,    15.60
      254.0,      16.86,    17.84,    17.92,    16.09,    15.58
      255.0,      16.83,    17.81,    17.90,    16.07,    15.56
      256.0,      16.81,    17.77,    17.88,    16.05,    15.55
      257.0,      16.79,    17.74,    17.86,    16.03,    15.53
      258.0,      16.76,    17.71,    17.84,    16.01,    15.51
      259.0,      16.74,    17.68,    17.82,    15.99,    15.49
      260.0,      16.72,    17.64,    17.80,    15.97,    15.47
      261.0,      16.70,    17.61,    17.78,    15.95,    15.45
      262.0,      16.67,    17.58,    17.76,    15.93,    15.44
      263.0,      16.65,    17.55,    17.74,    15.91,    15.42
      264.0,      16.63,    17.51,    17.72,    15.89,    15.40
      265.0,      16.61,    17.48,    17.70,    15.87,    15.38
      266.0,      16.59,    17.45,    17.68,    15.85,    15.37
      267.0,      16.56,    17.42,    17.66,    15.83,    15.35
      268.0,      16.54,    17.39,    17.64,    15.81,    15.33
      269.0,      16.52,    17.35,    17.62,    15.79,    15.31
      270.0,      16.50,    17.32,    17.60,    15.78,    15.30
      271.0,      16.48,    17.29,    17.58,    15.76,    15.28
      272.0,      16.46,    17.26,    17.56,    15.74,    15.26
      273.0,      16.43,    17.23,    17.54,    15.72,    15.25
      274.0,      16.41,    17.20,    17.52,    15.70,    15.23
      275.0,      16.39,    17.17,    17.51,    15.68,    15.21
      276.0,      16.37,    17.13,    17.49,    15.67,    15.20
      277.0,      16.35,    17.10,    17.47,    15.65,    15.18
      278.0,      16.33,    17.07,    17.45,    15.63,    15.16
      279.0,      16.31,    17.04,    17.43,    15.61,    15.15
      280.0,      16.29,    17.01,    17.41,    15.60,    15.13
      281.0,      16.27,    16.98,    17.39,    15.58,    15.11
      282.0,      16.25,    16.95,    17.38,    15.56,    15.10
      283.0,      16.23,    16.92,    17.36,    15.54,    15.08
      284.0,      16.20,    16.89,    17.34,    15.53,    15.06
      285.0,      16.18,    16.86,    17.32,    15.51,    15.05
      286.0,      16.16,    16.83,    17.30,    15.49,    15.03
      287.0,      16.14,    16.80,    17.28,    15.48,    15.02
      288.0,      16.12,    16.77,    17.27,    15.46,    15.00
      289.0,      16.10,    16.74,    17.25,    15.44,    14.98
      290.0,      16.08,    16.71,    17.23,    15.43,    14.97
      291.0,      16.06,    16.68,    17.21,    15.41,    14.95
      292.0,      16.04,    16.65,    17.20,    15.39,    14.94
      293.0,      16.02,    16.62,    17.18,    15.38,    14.92
      294.0,      16.00,    16.59,    17.16,    15.36,    14.91
      295.0,      15.98,    16.56,    17.14,    15.34,    14.89
      296.0,      15.96,    16.53,    17.12,    15.33,    14.87
      297.0,      15.94,    16.50,    17.11,    15.31,    14.86
      298.0,      15.92,    16.47,    17.09,    15.30,    14.84
      299.0,      15.90,    16.44,    17.07,    15.28,    14.83
      300.0,      15.88,    16.41,    17.05,    15.26,    14.81
      301.0,      15.87,    16.38,    17.04,    15.25,    14.80
      302.0,      15.85,    16.35,    17.02,    15.23,    14.78
      303.0,      15.83,    16.32,    17.00,    15.22,    14.77
      304.0,      15.81,    16.29,    16.98,    15.20,    14.75
      305.0,      15.79,    16.26,    16.97,    15.18,    14.74
      306.0,      15.77,    16.23,    16.95,    15.17,    14.72
      307.0,      15.75,    16.20,    16.93,    15.15,    14.71
      308.0,      15.73,    16.17,    16.91,    15.14,    14.69
      309.0,      15.71,    16.15,    16.90,    15.12,    14.68
      310.0,      15.69,    16.12,    16.88,    15.11,    14.66
