Radius (km), Mean (m/s), NE (m/s), SE (m/s), SW (m/s), NW (m/s)
        0.0,       0.00,     0.00,     0.00,     0.00,     0.00
        1.0,       1.47,     1.58,     1.40,     1.40,     1.52
        2.0,       2.39,     2.50,     2.31,     2.31,     2.44
        3.0,       3.16,     3.26,     3.09,     3.09,     3.21
        4.0,       3.86,     3.94,     3.81,     3.81,     3.91
        5.0,       4.51,     4.56,     4.47,     4.47,     4.55
        6.0,       5.12,     5.15,     5.10,     5.10,     5.15
        7.0,       5.70,     5.69,     5.70,     5.70,     5.71
        8.0,       6.26,     6.22,     6.28,     6.28,     6.26
        9.0,       6.79,     6.72,     6.84,     6.84,     6.78
       10.0,       7.31,     7.20,     7.38,     7.38,     7.28
       11.0,       7.81,     7.66,     7.91,     7.91,     7.77
       12.0,       8.30,     8.12,     8.42,     8.42,     8.24
       13.0,       8.78,     8.55,     8.93,     8.93,     8.71
       14.0,       9.24,     8.98,     9.42,     9.42,     9.16
       15.0,       9.70,     9.40,     9.90,     9.90,     9.60
       16.0,      10.14,     9.81,    10.37,    10.37,    10.03
       17.0,      10.58,    10.20,    10.84,    10.84,    10.45
       18.0,      11.01,    10.60,    11.29,    11.29,    10.86
       19.0,      11.43,    10.98,    11.74,    11.74,    11.27
       20.0,      11.85,    11.36,    12.19,    12.19,    11.67
       21.0,      12.26,    11.73,    12.63,    12.63,    12.06
       22.0,      12.66,    12.09,    13.06,    13.06,    12.45
       23.0,      13.06,    12.45,    13.48,    13.48,    12.83
       24.0,      13.46,    12.80,    13.91,    13.91,    13.21
       25.0,      13.84,    13.15,    14.32,    14.32,    13.58
       26.0,      14.23,    13.49,    14.73,    14.73,    13.95
       27.0,      14.61,    13.83,    15.14,    15.14,    14.31
       28.0,      14.98,    14.17,    15.55,    15.55,    14.67
       29.0,      15.35,    14.50,    15.95,    15.95,    15.02
       30.0,      15.72,    14.83,    16.34,    16.34,    15.38
       31.0,      16.08,    15.15,    16.73,    16.73,    15.72
       32.0,      16.44,    15.47,    17.12,    17.12,    16.07
       33.0,      16.80,    15.78,    17.51,    17.51,    16.40
       34.0,      17.15,    16.10,    17.89,    17.89,    16.74
       35.0,      17.50,    16.41,    18.27,    18.27,    17.07
       36.0,      17.85,    16.71,    18.64,    18.64,    17.40
       37.0,      18.20,    17.02,    19.02,    19.02,    17.73
       38.0,      18.54,    17.32,    19.39,    19.39,    18.06
       39.0,      18.88,    17.62,    19.76,    19.76,    18.38
       40.0,      19.21,    17.91,    20.12,    20.12,    18.70
       41.0,      19.55,    18.21,    20.48,    20.48,    19.01
       42.0,      19.88,    18.50,    20.84,    20.84,    19.33
       43.0,      20.21,    18.78,    21.20,    21.20,    19.64
       44.0,      20.53,    19.07,    21.56,    21.56,    19.95
       45.0,      20.86,    19.35,    21.91,    21.91,    20.26
       46.0,      21.18,    19.64,    22.26,    22.26,    20.56
       47.0,      21.50,    19.92,    22.61,    22.61,    20.87
       48.0,      21.82,    20.19,    22.96,    22.96,    21.17
       49.0,      22.13,    20.47,    23.30,    23.30,    21.47
       50.0,      22.45,    20.74,    23.64,    23.64,    21.76
       51.0,      22.76,    21.01,    23.99,    23.99,    22.06
       52.0,      23.07,    21.28,    24.32,    24.32,    22.35
       53.0,      23.38,    21.55,    24.66,    24.66,    22.64
       54.0,      23.69,    21.82,    25.00,    25.00,    22.93
       55.0,      23.99,    22.08,    25.33,    25.33,    23.22
       56.0,      24.30,    22.35,    25.66,    25.66,    23.51
       57.0,      24.60,    22.61,    25.99,    25.99,    23.79
       58.0,      24.90,    22.87,    26.32,    26.32,    24.07
       59.0,      25.20,    23.13,    26.65,    26.65,    24.36
       60.0,      25.51,    23.39,    26.98,    27.00,    24.65
       61.0,      25.84,    23.67,    27.34,    27.37,    24.97
       62.0,      26.22,    23.99,    27.74,    27.80,    25.33
       63.0,      26.65,    24.35,    28.22,    28.29,    25.75
       64.0,      27.15,    24.77,    28.78,    28.84,    26.22
       65.0,      27.70,    25.24,    29.41,    29.44,    26.72
       66.0,      28.27,    25.73,    30.08,    30.04,    27.23
       67.0,      28.82,    26.21,    30.75,    30.61,    27.72
       68.0,      29.32,    26.65,    31.35,    31.12,    28.15
       69.0,      29.71,    27.00,    31.83,    31.51,    28.49
       70.0,      29.97,    27.23,    32.14,    31.78,    28.72
       71.0,      30.08,    27.34,    32.26,    31.89,    28.82
       72.0,      30.04,    27.31,    32.18,    31.86,    28.80
       73.0,      29.86,    27.15,    31.90,    31.70,    28.67
       74.0,      29.56,    26.89,    31.46,    31.44,    28.45
       75.0,      29.18,    26.55,    30.90,    31.11,    28.18
       76.0,      28.76,    26.16,    30.27,    30.75,    27.87
       77.0,      28.32,    25.75,    29.61,    30.37,    27.55
       78.0,      27.89,    25.35,    28.95,    30.01,    27.23
       79.0,      27.47,    24.97,    28.33,    29.66,    26.94
       80.0,      27.09,    24.61,    27.75,    29.33,    26.66
       81.0,      26.72,    24.27,    27.19,    29.02,    26.39
       82.0,      26.37,    23.95,    26.67,    28.72,    26.14
       83.0,      26.03,    23.63,    26.17,    28.44,    25.90
       84.0,      25.71,    23.33,    25.69,    28.16,    25.66
       85.0,      25.40,    23.04,    25.22,    27.89,    25.43
       86.0,      25.10,    22.76,    24.78,    27.64,    25.21
       87.0,      24.81,    22.49,    24.35,    27.39,    25.00
       88.0,      24.53,    22.22,    23.93,    27.15,    24.80
       89.0,      24.26,    21.97,    23.54,    26.92,    24.60
       90.0,      24.00,    21.73,    23.15,    26.70,    24.41
       91.0,      23.75,    21.49,    22.79,    26.48,    24.23
       92.0,      23.50,    21.26,    22.43,    26.27,    24.05
       93.0,      23.27,    21.04,    22.09,    26.07,    23.88
       94.0,      23.05,    20.83,    21.76,    25.88,    23.72
       95.0,      22.83,    20.62,    21.45,    25.70,    23.56
       96.0,      22.62,    20.42,    21.14,    25.52,    23.40
       97.0,      22.42,    20.23,    20.85,    25.34,    23.26
       98.0,      22.23,    20.05,    20.57,    25.18,    23.11
       99.0,      22.04,    19.87,    20.30,    25.02,    22.97
      100.0,      21.86,    19.69,    20.04,    24.86,    22.84
      101.0,      21.68,    19.53,    19.78,    24.71,    22.71
      102.0,      21.51,    19.37,    19.54,    24.56,    22.59
      103.0,      21.35,    19.21,    19.31,    24.42,    22.47
      104.0,      21.19,    19.06,    19.09,    24.29,    22.35
      105.0,      21.04,    18.91,    18.87,    24.16,    22.24
      106.0,      20.90,    18.77,    18.66,    24.03,    22.13
      107.0,      20.75,    18.63,    18.46,    23.91,    22.02
      108.0,      20.62,    18.50,    18.27,    23.79,    21.92
      109.0,      20.49,    18.37,    18.08,    23.67,    21.82
      110.0,      20.36,    18.25,    17.90,    23.56,    21.72
      111.0,      20.23,    18.13,    17.73,    23.45,    21.63
      112.0,      20.12,    18.01,    17.56,    23.35,    21.54
      113.0,      20.00,    17.90,    17.40,    23.25,    21.45
      114.0,      19.89,    17.79,    17.25,    23.15,    21.37
      115.0,      19.78,    17.68,    17.10,    23.05,    21.29
      116.0,      19.68,    17.58,    16.95,    22.96,    21.21
      117.0,      19.57,    17.48,    16.81,    22.87,    21.13
      118.0,      19.48,    17.39,    16.68,    22.78,    21.05
      119.0,      19.38,    17.29,    16.55,    22.70,    20.98
      120.0,      19.29,    17.20,    16.43,    22.62,    20.91
      121.0,      19.20,    17.12,    16.31,    22.54,    20.84
      122.0,      19.12,    17.03,    16.19,    22.46,    20.78
      123.0,      19.03,    16.95,    16.08,    22.39,    20.71
      124.0,      18.95,    16.87,    15.97,    22.32,    20.65
      125.0,      18.87,    16.79,    15.87,    22.25,    20.59
      126.0,      18.80,    16.72,    15.76,    22.18,    20.53
      127.0,      18.72,    16.64,    15.67,    22.11,    20.47
      128.0,      18.65,    16.57,    15.57,    22.05,    20.41
      129.0,      18.58,    16.50,    15.48,    21.98,    20.36
      130.0,      18.51,    16.44,    15.39,    21.92,    20.30
      131.0,      18.45,    16.37,    15.31,    21.86,    20.25
      132.0,      18.38,    16.31,    15.23,    21.80,    20.20
      133.0,      18.32,    16.25,    15.15,    21.75,    20.15
      134.0,      18.26,    16.19,    15.07,    21.69,    20.10
      135.0,      18.20,    16.13,    15.00,    21.64,    20.05
      136.0,      18.15,    16.07,    14.92,    21.58,    20.01
      137.0,      18.09,    16.02,    14.85,    21.53,    19.96
      138.0,      18.04,    15.96,    14.79,    21.48,    19.92
      139.0,      17.99,    15.91,    14.72,    21.43,    19.88
      140.0,      17.93,    15.86,    14.66,    21.39,    19.83
      141.0,      17.88,    15.81,    14.60,    21.34,    19.79
      142.0,      17.84,    15.76,    14.54,    21.29,    19.75
      143.0,      17.79,    15.71,    14.48,    21.25,    19.71
      144.0,      17.74,    15.67,    14.42,    21.21,    19.67
      145.0,      17.70,    15.62,    14.37,    21.16,    19.64
      146.0,      17.65,    15.58,    14.32,    21.12,    19.60
      147.0,      17.61,    15.54,    14.27,    21.08,    19.56
      148.0,      17.57,    15.49,    14.22,    21.04,    19.53
      149.0,      17.53,    15.45,    14.17,    21.00,    19.49
      150.0,      17.49,    15.41,    14.12,    20.96,    19.46
      151.0,      17.45,    15.37,    14.08,    20.92,    19.42
      152.0,      17.41,    15.34,    14.03,    20.89,    19.39
      153.0,      17.37,    15.30,    13.99,    20.85,    19.36
      154.0,      17.34,    15.26,    13.95,    20.81,    19.32
      155.0,      17.30,    15.23,    13.91,    20.78,    19.29
      156.0,      17.27,    15.19,    13.87,    20.74,    19.26
      157.0,      17.23,    15.16,    13.83,    20.71,    19.23
      158.0,      17.20,    15.12,    13.79,    20.68,    19.20
      159.0,      17.16,    15.09,    13.75,    20.64,    19.17
      160.0,      17.13,    15.06,    13.72,    20.61,    19.14
      161.0,      17.10,    15.03,    13.68,    20.58,    19.11
      162.0,      17.07,    15.00,    13.65,    20.55,    19.08
      163.0,      17.04,    14.97,    13.62,    20.52,    19.06
      164.0,      17.01,    14.94,    13.59,    20.48,    19.03
      165.0,      16.98,    14.91,    13.55,    20.45,    19.00
      166.0,      16.95,    14.88,    13.52,    20.42,    18.98
      167.0,      16.92,    14.85,    13.49,    20.40,    18.95
      168.0,      16.89,    14.82,    13.46,    20.37,    18.92
      169.0,      16.87,    14.80,    13.44,    20.34,    18.90
      170.0,      16.84,    14.77,    13.41,    20.31,    18.87
      171.0,      16.81,    14.74,    13.38,    20.28,    18.85
      172.0,      16.79,    14.72,    13.35,    20.25,    18.82
      173.0,      16.76,    14.69,    13.33,    20.23,    18.80
      174.0,      16.73,    14.67,    13.30,    20.20,    18.77
      175.0,      16.71,    14.64,    13.28,    20.17,    18.75
      176.0,      16.68,    14.62,    13.25,    20.15,    18.72
      177.0,      16.66,    14.59,    13.23,    20.12,    18.70
      178.0,      16.64,    14.57,    13.20,    20.09,    18.68
      179.0,      16.61,    14.54,    13.18,    20.07,    18.65
      180.0,      16.59,    14.52,    13.16,    20.04,    18.63
      181.0,      16.56,    14.50,    13.13,    20.02,    18.61
      182.0,      16.54,    14.48,    13.11,    19.99,    18.58
      183.0,      16.52,    14.45,    13.09,    19.97,    18.56
      184.0,      16.50,    14.43,    13.07,    19.94,    18.54
      185.0,      16.47,    14.41,    13.05,    19.92,    18.52
      186.0,      16.45,    14.39,    13.03,    19.90,    18.49
      187.0,      16.43,    14.37,    13.01,    19.87,    18.47
      188.0,      16.41,    14.35,    12.99,    19.85,    18.45
      189.0,      16.39,    14.33,    12.97,    19.82,    18.43
      190.0,      16.36,    14.31,    12.95,    19.80,    18.41
      191.0,      16.34,    14.28,    12.93,    19.78,    18.39
      192.0,      16.32,    14.26,    12.91,    19.75,    18.36
      193.0,      16.30,    14.24,    12.89,    19.73,    18.34
      194.0,      16.28,    14.23,    12.87,    19.71,    18.32
      195.0,      16.26,    14.21,    12.85,    19.69,    18.30
      196.0,      16.24,    14.19,    12.83,    19.66,    18.28
      197.0,      16.22,    14.17,    12.82,    19.64,    18.26
      198.0,      16.20,    14.15,    12.80,    19.62,    18.24
      199.0,      16.18,    14.13,    12.78,    19.60,    18.22
      200.0,      16.16,    14.11,    12.76,    19.58,    18.20
      201.0,      16.14,    14.09,    12.75,    19.55,    18.18
      202.0,      16.12,    14.07,    12.73,    19.53,    18.16
      203.0,      16.10,    14.06,    12.71,    19.51,    18.14
      204.0,      16.09,    14.04,    12.70,    19.49,    18.12
      205.0,      16.07,    14.02,    12.68,    19.47,    18.10
      206.0,      16.05,    14.00,    12.67,    19.45,    18.08
      207.0,      16.03,    13.98,    12.65,    19.42,    18.06
      208.0,      16.01,    13.97,    12.63,    19.40,    18.04
      209.0,      15.99,    13.95,    12.62,    19.38,    18.02
      210.0,      15.97,    13.93,    12.60,    19.36,    18.00
      211.0,      15.96,    13.91,    12.59,    19.34,    17.98
      212.0,      15.94,    13.90,    12.57,    19.32,    17.96
      213.0,      15.92,    13.88,    12.56,    19.30,    17.94
      214.0,      15.90,    13.86,    12.54,    19.28,    17.93
      215.0,      15.88,    13.85,    12.53,    19.26,    17.91
      216.0,      15.87,    13.83,    12.51,    19.24,    17.89
      217.0,      15.85,    13.81,    12.50,    19.22,    17.87
      218.0,      15.83,    13.80,    12.48,    19.20,    17.85
      219.0,      15.81,    13.78,    12.47,    19.18,    17.83
      220.0,      15.80,    13.76,    12.45,    19.16,    17.81
      221.0,      15.78,    13.75,    12.44,    19.14,    17.79
      222.0,      15.76,    13.73,    12.42,    19.12,    17.78
      223.0,      15.74,    13.71,    12.41,    19.10,    17.76
      224.0,      15.73,    13.70,    12.40,    19.08,    17.74
      225.0,      15.71,    13.68,    12.38,    19.06,    17.72
      226.0,      15.69,    13.67,    12.37,    19.04,    17.70
      227.0,      15.68,    13.65,    12.35,    19.02,    17.68
      228.0,      15.66,    13.63,    12.34,    19.00,    17.66
      229.0,      15.64,    13.62,    12.33,    18.98,    17.65
      230.0,      15.62,    13.60,    12.31,    18.96,    17.63
      231.0,      15.61,    13.59,    12.30,    18.94,    17.61
      232.0,      15.59,    13.57,    12.29,    18.92,    17.59
      233.0,      15.57,    13.56,    12.27,    18.90,    17.57
      234.0,      15.56,    13.54,    12.26,    18.88,    17.56
      235.0,      15.54,    13.52,    12.25,    18.86,    17.54
      236.0,      15.52,    13.51,    12.23,    18.84,    17.52
      237.0,      15.51,    13.49,    12.22,    18.82,    17.50
      238.0,      15.49,    13.48,    12.21,    18.80,    17.48
      239.0,      15.48,    13.46,    12.19,    18.78,    17.47
      240.0,      15.46,    13.45,    12.18,    18.76,    17.45
      241.0,      15.44,    13.43,    12.17,    18.74,    17.43
      242.0,      15.43,    13.42,    12.15,    18.72,    17.41
      243.0,      15.41,    13.40,    12.14,    18.70,    17.39
      244.0,      15.39,    13.39,    12.13,    18.69,    17.38
      245.0,      15.38,    13.37,    12.12,    18.67,    17.36
      246.0,      15.36,    13.36,    12.10,    18.65,    17.34
      247.0,      15.35,    13.34,    12.09,    18.63,    17.32
      248.0,      15.33,    13.33,    12.08,    18.61,    17.31
      249.0,      15.31,    13.31,    12.06,    18.59,    17.29
      250.0,      15.30,    13.30,    12.05,    18.57,    17.27
      251.0,      15.28,    13.28,    12.04,    18.55,    17.25
      252.0,      15.27,    13.27,    12.03,    18.53,    17.24
      253.0,      15.25,    13.25,    12.01,    18.51,    17.22
      254.0,      15.23,    13.24,    12.00,    18.50,    17.20
      255.0,      15.22,    13.22,    11.99,    18.48,    17.18
      256.0,      15.20,    13.21,    11.98,    18.46,    17.17
      257.0,      15.19,    13.20,    11.96,    18.44,    17.15
      258.0,      15.17,    13.18,    11.95,    18.42,    17.13
      259.0,      15.16,    13.17,    11.94,    18.40,    17.11
      260.0,      15.14,    13.15,    11.93,    18.38,    17.10
      261.0,      15.12,    13.14,    11.91,    18.37,    17.08
      262.0,      15.11,    13.12,    11.90,    18.35,    17.06
      263.0,      15.09,    13.11,    11.89,    18.33,    17.04
      264.0,      15.08,    13.09,    11.88,    18.31,    17.03
      265.0,      15.06,    13.08,    11.87,    18.29,    17.01
      266.0,      15.05,    13.07,    11.85,    18.27,    16.99
      267.0,      15.03,    13.05,    11.84,    18.25,    16.98
      268.0,      15.02,    13.04,    11.83,    18.24,    16.96
      269.0,      15.00,    13.02,    11.82,    18.22,    16.94
      270.0,      14.98,    13.01,    11.80,    18.20,    16.92
      271.0,      14.97,    12.99,    11.79,    18.18,    16.91
      272.0,      14.95,    12.98,    11.78,    18.16,    16.89
      273.0,      14.94,    12.97,    11.77,    18.14,    16.87
      274.0,      14.92,    12.95,    11.76,    18.13,    16.86
      275.0,      14.91,    12.94,    11.74,    18.11,    16.84
      276.0,      14.89,    12.92,    11.73,    18.09,    16.82
      277.0,      14.88,    12.91,    11.72,    18.07,    16.81
      278.0,      14.86,    12.90,    11.71,    18.05,    16.79
      279.0,      14.85,    12.88,    11.70,    18.03,    16.77
      280.0,      14.83,    12.87,    11.69,    18.02,    16.76
      281.0,      14.82,    12.85,    11.67,    18.00,    16.74
      282.0,      14.80,    12.84,    11.66,    17.98,    16.72
      283.0,      14.79,    12.83,    11.65,    17.96,    16.71
      284.0,      14.77,    12.81,    11.64,    17.94,    16.69
      285.0,      14.76,    12.80,    11.63,    17.93,    16.67
      286.0,      14.74,    12.78,    11.61,    17.91,    16.65
      287.0,      14.73,    12.77,    11.60,    17.89,    16.64
      288.0,      14.71,    12.76,    11.59,    17.87,    16.62
      289.0,      14.70,    12.74,    11.58,    17.85,    16.60
      290.0,      14.68,    12.73,    11.57,    17.84,    16.59
      291.0,      14.67,    12.72,    11.56,    17.82,    16.57
      292.0,      14.65,    12.70,    11.54,    17.80,    16.55
      293.0,      14.64,    12.69,    11.53,    17.78,    16.54
      294.0,      14.62,    12.67,    11.52,    17.77,    16.52
      295.0,      14.61,    12.66,    11.51,    17.75,    16.51
      296.0,      14.59,    12.65,    11.50,    17.73,    16.49
      297.0,      14.58,    12.63,    11.49,    17.71,    16.47
      298.0,      14.56,    12.62,    11.47,    17.69,    16.46
      299.0,      14.55,    12.61,    11.46,    17.68,    16.44
      300.0,      14.53,    12.59,    11.45,    17.66,    16.42
      301.0,      14.52,    12.58,    11.44,    17.64,    16.41
      302.0,      14.50,    12.57,    11.43,    17.62,    16.39
      303.0,      14.49,    12.55,    11.42,    17.61,    16.37
      304.0,      14.47,    12.54,    11.41,    17.59,    16.36
      305.0,      14.46,    12.52,    11.39,    17.57,    16.34
      306.0,      14.44,    12.51,    11.38,    17.55,    16.32
      307.0,      14.43,    12.50,    11.37,    17.54,    16.31
      308.0,      14.41,    12.48,    11.36,    17.52,    16.29
      309.0,      14.40,    12.47,    11.35,    17.50,    16.28
      310.0,      14.38,    12.46,    11.34,    17.48,    16.26
