Radius (km), Mean (m/s), NE (m/s), SE (m/s), SW (m/s), NW (m/s)
        0.0,       0.00,     0.00,     0.00,     0.00,     0.00
        1.0,       1.43,     1.55,     1.35,     1.35,     1.48
        2.0,       2.33,     2.46,     2.25,     2.25,     2.38
        3.0,       3.11,     3.21,     3.03,     3.03,     3.15
        4.0,       3.80,     3.89,     3.74,     3.74,     3.85
        5.0,       4.45,     4.51,     4.41,     4.41,     4.49
        6.0,       5.06,     5.09,     5.04,     5.04,     5.09
        7.0,       5.64,     5.64,     5.64,     5.64,     5.66
        8.0,       6.20,     6.16,     6.22,     6.22,     6.20
        9.0,       6.74,     6.66,     6.78,     6.78,     6.73
       10.0,       7.26,     7.14,     7.33,     7.33,     7.24
       11.0,       7.76,     7.61,     7.86,     7.86,     7.73
       12.0,       8.26,     8.06,     8.38,     8.38,     8.21
       13.0,       8.74,     8.50,     8.89,     8.89,     8.67
       14.0,       9.21,     8.93,     9.38,     9.38,     9.13
       15.0,       9.66,     9.35,     9.87,     9.87,     9.57
       16.0,      10.12,     9.75,    10.35,    10.35,    10.01
       17.0,      10.56,    10.15,    10.82,    10.82,    10.43
       18.0,      10.99,    10.55,    11.28,    11.28,    10.85
       19.0,      11.42,    10.93,    11.74,    11.74,    11.27
       20.0,      11.84,    11.31,    12.19,    12.19,    11.67
       21.0,      12.26,    11.68,    12.64,    12.64,    12.07
       22.0,      12.67,    12.05,    13.08,    13.08,    12.47
       23.0,      13.07,    12.41,    13.51,    13.51,    12.85
       24.0,      13.47,    12.76,    13.94,    13.94,    13.24
       25.0,      13.86,    13.11,    14.36,    14.36,    13.62
       26.0,      14.25,    13.46,    14.78,    14.78,    13.99
       27.0,      14.64,    13.80,    15.20,    15.20,    14.36
       28.0,      15.02,    14.14,    15.61,    15.61,    14.72
       29.0,      15.40,    14.47,    16.02,    16.02,    15.08
       30.0,      15.77,    14.80,    16.42,    16.42,    15.44
       31.0,      16.14,    15.13,    16.82,    16.82,    15.79
       32.0,      16.51,    15.45,    17.22,    17.22,    16.14
       33.0,      16.87,    15.77,    17.61,    17.61,    16.49
       34.0,      17.23,    16.08,    18.00,    18.00,    16.83
       35.0,      17.59,    16.39,    18.39,    18.39,    17.17
       36.0,      17.94,    16.70,    18.77,    18.77,    17.51
       37.0,      18.29,    17.01,    19.16,    19.16,    17.84
       38.0,      18.64,    17.31,    19.54,    19.54,    18.18
       39.0,      18.99,    17.61,    19.91,    19.91,    18.50
       40.0,      19.33,    17.91,    20.28,    20.28,    18.83
       41.0,      19.67,    18.21,    20.66,    20.66,    19.15
       42.0,      20.01,    18.50,    21.02,    21.02,    19.48
       43.0,      20.34,    18.79,    21.39,    21.39,    19.79
       44.0,      20.68,    19.08,    21.76,    21.76,    20.11
       45.0,      21.01,    19.37,    22.12,    22.12,    20.42
       46.0,      21.34,    19.65,    22.48,    22.48,    20.74
       47.0,      21.66,    19.93,    22.84,    22.84,    21.05
       48.0,      21.99,    20.21,    23.19,    23.19,    21.35
       49.0,      22.31,    20.49,    23.55,    23.55,    21.66
       50.0,      22.63,    20.77,    23.90,    23.90,    21.96
       51.0,      22.95,    21.04,    24.25,    24.25,    22.27
       52.0,      23.27,    21.32,    24.60,    24.60,    22.57
       53.0,      23.58,    21.59,    24.94,    24.94,    22.87
       54.0,      23.90,    21.86,    25.29,    25.29,    23.16
       55.0,      24.21,    22.12,    25.63,    25.63,    23.46
       56.0,      24.52,    22.39,    25.97,    25.97,    23.75
       57.0,      24.83,    22.66,    26.31,    26.31,    24.04
       58.0,      25.14,    22.92,    26.65,    26.65,    24.33
       59.0,      25.44,    23.18,    26.99,    26.99,    24.62
       60.0,      25.75,    23.45,    27.32,    27.32,    24.91
       61.0,      26.07,    23.73,    27.66,    27.68,    25.21
       62.0,      26.42,    24.05,    28.01,    28.06,    25.54
       63.0,      26.80,    24.43,    28.39,    28.49,    25.92
       64.0,      27.25,    24.86,    28.80,    28.99,    26.34
       65.0,      27.73,    25.34,    29.26,    29.53,    26.81
       66.0,      28.25,    25.84,    29.76,    30.11,    27.30
       67.0,      28.77,    26.34,    30.27,    30.69,    27.80
       68.0,      29.26,    26.79,    30.76,    31.23,    28.26
       69.0,      29.67,    27.15,    31.21,    31.69,    28.64
       70.0,      29.98,    27.38,    31.59,    32.02,    28.93
       71.0,      30.16,    27.49,    31.85,    32.22,    29.09
       72.0,      30.20,    27.44,    31.99,    32.26,    29.12
       73.0,      30.11,    27.27,    32.01,    32.15,    29.03
       74.0,      29.91,    26.98,    31.91,    31.92,    28.83
       75.0,      29.62,    26.62,    31.71,    31.59,    28.55
       76.0,      29.26,    26.20,    31.44,    31.20,    28.21
       77.0,      28.89,    25.77,    31.14,    30.78,    27.86
       78.0,      28.50,    25.35,    30.82,    30.36,    27.50
       79.0,      28.14,    24.94,    30.50,    29.95,    27.16
       80.0,      27.79,    24.56,    30.21,    29.58,    26.83
       81.0,      27.47,    24.20,    29.93,    29.22,    26.53
       82.0,      27.17,    23.86,    29.67,    28.89,    26.25
       83.0,      26.87,    23.53,    29.43,    28.57,    25.97
       84.0,      26.59,    23.21,    29.19,    28.25,    25.71
       85.0,      26.32,    22.91,    28.96,    27.96,    25.45
       86.0,      26.06,    22.62,    28.74,    27.67,    25.21
       87.0,      25.80,    22.33,    28.52,    27.39,    24.97
       88.0,      25.56,    22.06,    28.31,    27.12,    24.74
       89.0,      25.32,    21.80,    28.10,    26.86,    24.52
       90.0,      25.09,    21.55,    27.90,    26.60,    24.30
       91.0,      24.87,    21.30,    27.71,    26.36,    24.09
       92.0,      24.65,    21.07,    27.52,    26.13,    23.89
       93.0,      24.44,    20.84,    27.33,    25.90,    23.70
       94.0,      24.24,    20.63,    27.15,    25.68,    23.51
       95.0,      24.05,    20.42,    26.98,    25.47,    23.33
       96.0,      23.86,    20.21,    26.81,    25.26,    23.16
       97.0,      23.68,    20.02,    26.64,    25.07,    22.99
       98.0,      23.50,    19.83,    26.48,    24.88,    22.82
       99.0,      23.33,    19.65,    26.32,    24.69,    22.67
      100.0,      23.17,    19.48,    26.17,    24.51,    22.51
      101.0,      23.01,    19.31,    26.02,    24.34,    22.36
      102.0,      22.85,    19.14,    25.87,    24.17,    22.22
      103.0,      22.70,    18.99,    25.73,    24.01,    22.08
      104.0,      22.56,    18.84,    25.59,    23.85,    21.95
      105.0,      22.41,    18.69,    25.45,    23.70,    21.82
      106.0,      22.28,    18.55,    25.32,    23.55,    21.69
      107.0,      22.14,    18.41,    25.19,    23.40,    21.57
      108.0,      22.01,    18.28,    25.06,    23.27,    21.45
      109.0,      21.89,    18.16,    24.93,    23.13,    21.33
      110.0,      21.77,    18.03,    24.81,    23.00,    21.22
      111.0,      21.65,    17.91,    24.69,    22.87,    21.11
      112.0,      21.53,    17.80,    24.57,    22.75,    21.00
      113.0,      21.42,    17.69,    24.46,    22.63,    20.90
      114.0,      21.31,    17.58,    24.34,    22.51,    20.80
      115.0,      21.20,    17.48,    24.23,    22.40,    20.71
      116.0,      21.10,    17.38,    24.12,    22.29,    20.61
      117.0,      21.00,    17.28,    24.02,    22.18,    20.52
      118.0,      20.90,    17.19,    23.91,    22.08,    20.43
      119.0,      20.81,    17.10,    23.81,    21.98,    20.34
      120.0,      20.72,    17.01,    23.71,    21.88,    20.26
      121.0,      20.63,    16.93,    23.61,    21.79,    20.18
      122.0,      20.54,    16.85,    23.51,    21.69,    20.10
      123.0,      20.45,    16.77,    23.42,    21.60,    20.02
      124.0,      20.37,    16.69,    23.32,    21.51,    19.94
      125.0,      20.28,    16.61,    23.23,    21.43,    19.87
      126.0,      20.20,    16.54,    23.14,    21.35,    19.80
      127.0,      20.13,    16.47,    23.05,    21.26,    19.73
      128.0,      20.05,    16.40,    22.96,    21.18,    19.66
      129.0,      19.98,    16.34,    22.87,    21.11,    19.59
      130.0,      19.90,    16.27,    22.78,    21.03,    19.52
      131.0,      19.83,    16.21,    22.70,    20.96,    19.46
      132.0,      19.76,    16.15,    22.61,    20.88,    19.40
      133.0,      19.69,    16.09,    22.53,    20.81,    19.34
      134.0,      19.63,    16.04,    22.45,    20.74,    19.28
      135.0,      19.56,    15.98,    22.37,    20.67,    19.22
      136.0,      19.50,    15.93,    22.29,    20.61,    19.16
      137.0,      19.43,    15.87,    22.21,    20.54,    19.10
      138.0,      19.37,    15.82,    22.13,    20.48,    19.05
      139.0,      19.31,    15.77,    22.06,    20.42,    18.99
      140.0,      19.25,    15.73,    21.98,    20.36,    18.94
      141.0,      19.19,    15.68,    21.91,    20.30,    18.89
      142.0,      19.14,    15.63,    21.83,    20.24,    18.84
      143.0,      19.08,    15.59,    21.76,    20.18,    18.79
      144.0,      19.02,    15.55,    21.69,    20.12,    18.74
      145.0,      18.97,    15.50,    21.62,    20.07,    18.69
      146.0,      18.92,    15.46,    21.54,    20.01,    18.64
      147.0,      18.86,    15.42,    21.47,    19.96,    18.60
      148.0,      18.81,    15.38,    21.40,    19.91,    18.55
      149.0,      18.76,    15.34,    21.34,    19.86,    18.51
      150.0,      18.71,    15.31,    21.27,    19.80,    18.46
      151.0,      18.66,    15.27,    21.20,    19.75,    18.42
      152.0,      18.61,    15.24,    21.13,    19.71,    18.37
      153.0,      18.56,    15.20,    21.07,    19.66,    18.33
      154.0,      18.52,    15.17,    21.00,    19.61,    18.29
      155.0,      18.47,    15.13,    20.93,    19.56,    18.25
      156.0,      18.42,    15.10,    20.87,    19.52,    18.21
      157.0,      18.38,    15.07,    20.81,    19.47,    18.17
      158.0,      18.33,    15.04,    20.74,    19.42,    18.13
      159.0,      18.29,    15.01,    20.68,    19.38,    18.09
      160.0,      18.24,    14.97,    20.62,    19.34,    18.05
      161.0,      18.20,    14.95,    20.55,    19.29,    18.01
      162.0,      18.16,    14.92,    20.49,    19.25,    17.98
      163.0,      18.12,    14.89,    20.43,    19.21,    17.94
      164.0,      18.07,    14.86,    20.37,    19.17,    17.90
      165.0,      18.03,    14.83,    20.31,    19.13,    17.87
      166.0,      17.99,    14.80,    20.25,    19.08,    17.83
      167.0,      17.95,    14.78,    20.19,    19.04,    17.80
      168.0,      17.91,    14.75,    20.13,    19.00,    17.76
      169.0,      17.87,    14.73,    20.07,    18.96,    17.73
      170.0,      17.83,    14.70,    20.01,    18.93,    17.69
      171.0,      17.79,    14.68,    19.95,    18.89,    17.66
      172.0,      17.75,    14.65,    19.90,    18.85,    17.62
      173.0,      17.72,    14.63,    19.84,    18.81,    17.59
      174.0,      17.68,    14.60,    19.78,    18.77,    17.56
      175.0,      17.64,    14.58,    19.72,    18.74,    17.52
      176.0,      17.60,    14.56,    19.67,    18.70,    17.49
      177.0,      17.57,    14.53,    19.61,    18.66,    17.46
      178.0,      17.53,    14.51,    19.55,    18.63,    17.43
      179.0,      17.49,    14.49,    19.50,    18.59,    17.40
      180.0,      17.46,    14.47,    19.44,    18.55,    17.37
      181.0,      17.42,    14.45,    19.39,    18.52,    17.33
      182.0,      17.39,    14.42,    19.33,    18.48,    17.30
      183.0,      17.35,    14.40,    19.28,    18.45,    17.27
      184.0,      17.32,    14.38,    19.22,    18.41,    17.24
      185.0,      17.28,    14.36,    19.17,    18.38,    17.21
      186.0,      17.25,    14.34,    19.12,    18.35,    17.18
      187.0,      17.21,    14.32,    19.06,    18.31,    17.15
      188.0,      17.18,    14.30,    19.01,    18.28,    17.12
      189.0,      17.14,    14.28,    18.96,    18.25,    17.09
      190.0,      17.11,    14.26,    18.90,    18.21,    17.06
      191.0,      17.08,    14.24,    18.85,    18.18,    17.03
      192.0,      17.04,    14.22,    18.80,    18.15,    17.00
      193.0,      17.01,    14.20,    18.75,    18.11,    16.98
      194.0,      16.98,    14.18,    18.69,    18.08,    16.95
      195.0,      16.94,    14.16,    18.64,    18.05,    16.92
      196.0,      16.91,    14.15,    18.59,    18.02,    16.89
      197.0,      16.88,    14.13,    18.54,    17.99,    16.86
      198.0,      16.85,    14.11,    18.49,    17.95,    16.83
      199.0,      16.81,    14.09,    18.44,    17.92,    16.81
      200.0,      16.78,    14.07,    18.39,    17.89,    16.78
      201.0,      16.75,    14.05,    18.34,    17.86,    16.75
      202.0,      16.72,    14.04,    18.29,    17.83,    16.72
      203.0,      16.69,    14.02,    18.24,    17.80,    16.69
      204.0,      16.65,    14.00,    18.19,    17.77,    16.67
      205.0,      16.62,    13.98,    18.14,    17.74,    16.64
      206.0,      16.59,    13.97,    18.09,    17.70,    16.61
      207.0,      16.56,    13.95,    18.04,    17.67,    16.59
      208.0,      16.53,    13.93,    17.99,    17.64,    16.56
      209.0,      16.50,    13.91,    17.94,    17.61,    16.53
      210.0,      16.47,    13.90,    17.89,    17.58,    16.51
      211.0,      16.44,    13.88,    17.84,    17.55,    16.48
      212.0,      16.41,    13.86,    17.79,    17.52,    16.45
      213.0,      16.38,    13.85,    17.74,    17.49,    16.43
      214.0,      16.35,    13.83,    17.70,    17.46,    16.40
      215.0,      16.32,    13.81,    17.65,    17.43,    16.37
      216.0,      16.29,    13.80,    17.60,    17.41,    16.35
      217.0,      16.26,    13.78,    17.55,    17.38,    16.32
      218.0,      16.23,    13.76,    17.50,    17.35,    16.29
      219.0,      16.20,    13.75,    17.46,    17.32,    16.27
      220.0,      16.17,    13.73,    17.41,    17.29,    16.24
      221.0,      16.14,    13.72,    17.36,    17.26,    16.22
      222.0,      16.11,    13.70,    17.32,    17.23,    16.19
      223.0,      16.08,    13.68,    17.27,    17.20,    16.17
      224.0,      16.05,    13.67,    17.22,    17.17,    16.14
      225.0,      16.02,    13.65,    17.18,    17.14,    16.11
      226.0,      15.99,    13.64,    17.13,    17.12,    16.09
      227.0,      15.96,    13.62,    17.08,    17.09,    16.06
      228.0,      15.93,    13.60,    17.04,    17.06,    16.04
      229.0,      15.91,    13.59,    16.99,    17.03,    16.01
      230.0,      15.88,    13.57,    16.95,    17.00,    15.99
      231.0,      15.85,    13.56,    16.90,    16.97,    15.96
      232.0,      15.82,    13.54,    16.85,    16.95,    15.94
      233.0,      15.79,    13.53,    16.81,    16.92,    15.91
      234.0,      15.76,    13.51,    16.76,    16.89,    15.89
      235.0,      15.73,    13.49,    16.72,    16.86,    15.86
      236.0,      15.71,    13.48,    16.67,    16.84,    15.84
      237.0,      15.68,    13.46,    16.63,    16.81,    15.81
      238.0,      15.65,    13.45,    16.58,    16.78,    15.79
      239.0,      15.62,    13.43,    16.54,    16.75,    15.77
      240.0,      15.59,    13.42,    16.49,    16.72,    15.74
      241.0,      15.57,    13.40,    16.45,    16.70,    15.72
      242.0,      15.54,    13.39,    16.41,    16.67,    15.69
      243.0,      15.51,    13.37,    16.36,    16.64,    15.67
      244.0,      15.48,    13.36,    16.32,    16.62,    15.64
      245.0,      15.46,    13.34,    16.27,    16.59,    15.62
      246.0,      15.43,    13.33,    16.23,    16.56,    15.59
      247.0,      15.40,    13.31,    16.19,    16.53,    15.57
      248.0,      15.37,    13.30,    16.14,    16.51,    15.55
      249.0,      15.35,    13.28,    16.10,    16.48,    15.52
      250.0,      15.32,    13.27,    16.06,    16.45,    15.50
      251.0,      15.29,    13.25,    16.01,    16.43,    15.47
      252.0,      15.26,    13.24,    15.97,    16.40,    15.45
      253.0,      15.24,    13.22,    15.93,    16.37,    15.43
      254.0,      15.21,    13.21,    15.89,    16.35,    15.40
      255.0,      15.18,    13.19,    15.84,    16.32,    15.38
      256.0,      15.16,    13.18,    15.80,    16.29,    15.35
      257.0,      15.13,    13.17,    15.76,    16.27,    15.33
      258.0,      15.10,    13.15,    15.72,    16.24,    15.31
      259.0,      15.08,    13.14,    15.67,    16.21,    15.28
      260.0,      15.05,    13.12,    15.63,    16.19,    15.26
      261.0,      15.02,    13.11,    15.59,    16.16,    15.24
      262.0,      15.00,    13.09,    15.55,    16.13,    15.21
      263.0,      14.97,    13.08,    15.51,    16.11,    15.19
      264.0,      14.94,    13.06,    15.47,    16.08,    15.17
      265.0,      14.92,    13.05,    15.42,    16.06,    15.14
      266.0,      14.89,    13.04,    15.38,    16.03,    15.12
      267.0,      14.87,    13.02,    15.34,    16.00,    15.10
      268.0,      14.84,    13.01,    15.30,    15.98,    15.07
      269.0,      14.81,    12.99,    15.26,    15.95,    15.05
      270.0,      14.79,    12.98,    15.22,    15.93,    15.03
      271.0,      14.76,    12.96,    15.18,    15.90,    15.00
      272.0,      14.74,    12.95,    15.14,    15.87,    14.98
      273.0,      14.71,    12.93,    15.10,    15.85,    14.96
      274.0,      14.68,    12.92,    15.06,    15.82,    14.93
      275.0,      14.66,    12.91,    15.02,    15.80,    14.91
      276.0,      14.63,    12.89,    14.98,    15.77,    14.89
      277.0,      14.61,    12.88,    14.94,    15.75,    14.87
      278.0,      14.58,    12.86,    14.90,    15.72,    14.84
      279.0,      14.56,    12.85,    14.86,    15.70,    14.82
      280.0,      14.53,    12.84,    14.82,    15.67,    14.80
      281.0,      14.50,    12.82,    14.78,    15.64,    14.78
      282.0,      14.48,    12.81,    14.74,    15.62,    14.75
      283.0,      14.45,    12.79,    14.70,    15.59,    14.73
      284.0,      14.43,    12.78,    14.66,    15.57,    14.71
      285.0,      14.40,    12.77,    14.62,    15.54,    14.68
      286.0,      14.38,    12.75,    14.58,    15.52,    14.66
      287.0,      14.35,    12.74,    14.54,    15.49,    14.64
      288.0,      14.33,    12.72,    14.50,    15.47,    14.62
      289.0,      14.30,    12.71,    14.46,    15.44,    14.59
      290.0,      14.28,    12.70,    14.43,    15.42,    14.57
      291.0,      14.25,    12.68,    14.39,    15.39,    14.55
      292.0,      14.23,    12.67,    14.35,    15.37,    14.53
      293.0,      14.20,    12.65,    14.31,    15.34,    14.51
      294.0,      14.18,    12.64,    14.27,    15.32,    14.48
      295.0,      14.15,    12.63,    14.23,    15.29,    14.46
      296.0,      14.13,    12.61,    14.20,    15.27,    14.44
      297.0,      14.10,    12.60,    14.16,    15.25,    14.42
      298.0,      14.08,    12.59,    14.12,    15.22,    14.39
      299.0,      14.06,    12.57,    14.08,    15.20,    14.37
      300.0,      14.03,    12.56,    14.04,    15.17,    14.35
      301.0,      14.01,    12.54,    14.01,    15.15,    14.33
      302.0,      13.98,    12.53,    13.97,    15.12,    14.31
      303.0,      13.96,    12.52,    13.93,    15.10,    14.28
      304.0,      13.93,    12.50,    13.90,    15.07,    14.26
      305.0,      13.91,    12.49,    13.86,    15.05,    14.24
      306.0,      13.89,    12.48,    13.82,    15.02,    14.22
      307.0,      13.86,    12.46,    13.78,    15.00,    14.20
      308.0,      13.84,    12.45,    13.75,    14.98,    14.18
      309.0,      13.81,    12.43,    13.71,    14.95,    14.15
      310.0,      13.79,    12.42,    13.67,    14.93,    14.13
