Radius (km), Mean (m/s), NE (m/s), SE (m/s), SW (m/s), NW (m/s)
        0.0,       0.00,     0.00,     0.00,     0.00,     0.00
        1.0,       1.14,     1.12,     1.12,     1.13,     1.20
        2.0,       1.70,     1.68,     1.68,     1.69,     1.75
        3.0,       2.14,     2.13,     2.13,     2.13,     2.18
        4.0,       2.52,     2.51,     2.51,     2.52,     2.55
        5.0,       2.87,     2.86,     2.86,     2.87,     2.88
        6.0,       3.18,     3.18,     3.18,     3.18,     3.18
        7.0,       3.48,     3.48,     3.48,     3.48,     3.46
        8.0,       3.75,     3.76,     3.76,     3.76,     3.72
        9.0,       4.01,     4.03,     4.03,     4.03,     3.97
       10.0,       4.26,     4.28,     4.28,     4.28,     4.20
       11.0,       4.50,     4.53,     4.53,     4.52,     4.43
       12.0,       4.73,     4.77,     4.77,     4.75,     4.64
       13.0,       4.95,     4.99,     4.99,     4.98,     4.85
       14.0,       5.17,     5.21,     5.21,     5.20,     5.05
       15.0,       5.38,     5.43,     5.43,     5.41,     5.24
       16.0,       5.58,     5.63,     5.63,     5.62,     5.43
       17.0,       5.78,     5.84,     5.84,     5.82,     5.61
       18.0,       5.97,     6.03,     6.03,     6.01,     5.79
       19.0,       6.15,     6.23,     6.23,     6.20,     5.96
       20.0,       6.34,     6.42,     6.42,     6.39,     6.13
       21.0,       6.52,     6.60,     6.60,     6.57,     6.30
       22.0,       6.69,     6.78,     6.78,     6.75,     6.46
       23.0,       6.87,     6.96,     6.96,     6.93,     6.62
       24.0,       7.04,     7.14,     7.14,     7.10,     6.77
       25.0,       7.20,     7.31,     7.31,     7.27,     6.93
       26.0,       7.37,     7.48,     7.48,     7.44,     7.07
       27.0,       7.53,     7.64,     7.64,     7.60,     7.22
       28.0,       7.68,     7.81,     7.81,     7.76,     7.37
       29.0,       7.84,     7.97,     7.97,     7.92,     7.51
       30.0,       7.99,     8.13,     8.13,     8.08,     7.65
       31.0,       8.15,     8.28,     8.28,     8.23,     7.79
       32.0,       8.30,     8.44,     8.44,     8.38,     7.92
       33.0,       8.44,     8.59,     8.59,     8.54,     8.06
       34.0,       8.59,     8.74,     8.74,     8.68,     8.19
       35.0,       8.73,     8.89,     8.89,     8.83,     8.32
       36.0,       8.87,     9.04,     9.04,     8.98,     8.45
       37.0,       9.01,     9.18,     9.18,     9.12,     8.58
       38.0,       9.15,     9.33,     9.33,     9.26,     8.70
       39.0,       9.29,     9.47,     9.47,     9.40,     8.83
       40.0,       9.43,     9.61,     9.61,     9.54,     8.95
       41.0,       9.56,     9.75,     9.75,     9.68,     9.07
       42.0,       9.69,     9.89,     9.89,     9.81,     9.19
       43.0,       9.82,    10.02,    10.02,     9.95,     9.31
       44.0,       9.95,    10.16,    10.16,    10.08,     9.43
       45.0,      10.08,    10.29,    10.29,    10.21,     9.54
       46.0,      10.21,    10.42,    10.42,    10.34,     9.66
       47.0,      10.34,    10.55,    10.55,    10.47,     9.77
       48.0,      10.46,    10.68,    10.68,    10.60,     9.88
       49.0,      10.59,    10.81,    10.81,    10.73,    10.00
       50.0,      10.71,    10.94,    10.94,    10.85,    10.11
       51.0,      10.83,    11.07,    11.07,    10.98,    10.22
       52.0,      10.95,    11.19,    11.19,    11.10,    10.33
       53.0,      11.07,    11.32,    11.32,    11.23,    10.43
       54.0,      11.19,    11.44,    11.44,    11.35,    10.54
       55.0,      11.31,    11.57,    11.57,    11.47,    10.65
       56.0,      11.43,    11.69,    11.69,    11.59,    10.75
       57.0,      11.55,    11.81,    11.81,    11.71,    10.86
       58.0,      11.66,    11.93,    11.93,    11.83,    10.96
       59.0,      11.78,    12.05,    12.05,    11.94,    11.06
       60.0,      11.89,    12.17,    12.17,    12.06,    11.16
       61.0,      12.00,    12.29,    12.29,    12.18,    11.26
       62.0,      12.12,    12.40,    12.40,    12.29,    11.37
       63.0,      12.23,    12.52,    12.52,    12.41,    11.46
       64.0,      12.34,    12.63,    12.63,    12.52,    11.56
       65.0,      12.45,    12.75,    12.75,    12.63,    11.66
       66.0,      12.56,    12.86,    12.86,    12.74,    11.76
       67.0,      12.67,    12.98,    12.98,    12.86,    11.86
       68.0,      12.77,    13.09,    13.09,    12.97,    11.95
       69.0,      12.88,    13.20,    13.20,    13.08,    12.05
       70.0,      12.99,    13.31,    13.31,    13.19,    12.14
       71.0,      13.09,    13.42,    13.42,    13.29,    12.24
       72.0,      13.20,    13.53,    13.53,    13.40,    12.33
       73.0,      13.30,    13.64,    13.64,    13.51,    12.42
       74.0,      13.41,    13.75,    13.75,    13.62,    12.52
       75.0,      13.51,    13.86,    13.86,    13.72,    12.61
       76.0,      13.61,    13.96,    13.96,    13.83,    12.70
       77.0,      13.72,    14.07,    14.07,    13.93,    12.79
       78.0,      13.82,    14.18,    14.18,    14.04,    12.88
       79.0,      13.92,    14.28,    14.28,    14.14,    12.97
       80.0,      14.02,    14.39,    14.39,    14.24,    13.06
       81.0,      14.12,    14.49,    14.49,    14.35,    13.15
       82.0,      14.22,    14.60,    14.60,    14.45,    13.24
       83.0,      14.32,    14.70,    14.70,    14.55,    13.33
       84.0,      14.42,    14.80,    14.80,    14.65,    13.41
       85.0,      14.52,    14.90,    14.90,    14.75,    13.50
       86.0,      14.61,    15.01,    15.01,    14.85,    13.59
       87.0,      14.71,    15.11,    15.11,    14.95,    13.67
       88.0,      14.81,    15.21,    15.21,    15.05,    13.76
       89.0,      14.90,    15.31,    15.31,    15.15,    13.84
       90.0,      15.00,    15.41,    15.41,    15.25,    13.93
       91.0,      15.09,    15.51,    15.51,    15.35,    14.01
       92.0,      15.19,    15.61,    15.61,    15.44,    14.10
       93.0,      15.28,    15.71,    15.71,    15.54,    14.18
       94.0,      15.38,    15.80,    15.80,    15.64,    14.26
       95.0,      15.47,    15.90,    15.90,    15.73,    14.34
       96.0,      15.56,    16.00,    16.00,    15.83,    14.43
       97.0,      15.66,    16.10,    16.10,    15.92,    14.51
       98.0,      15.75,    16.19,    16.19,    16.02,    14.59
       99.0,      15.84,    16.29,    16.29,    16.11,    14.67
      100.0,      15.93,    16.38,    16.38,    16.21,    14.75
      101.0,      16.02,    16.48,    16.48,    16.30,    14.83
      102.0,      16.11,    16.57,    16.57,    16.39,    14.91
      103.0,      16.20,    16.67,    16.67,    16.49,    14.99
      104.0,      16.29,    16.76,    16.76,    16.58,    15.07
      105.0,      16.38,    16.86,    16.86,    16.67,    15.15
      106.0,      16.47,    16.95,    16.95,    16.76,    15.23
      107.0,      16.56,    17.04,    17.04,    16.85,    15.31
      108.0,      16.65,    17.14,    17.14,    16.94,    15.38
      109.0,      16.74,    17.23,    17.23,    17.03,    15.46
      110.0,      16.83,    17.32,    17.32,    17.12,    15.54
      111.0,      16.91,    17.41,    17.41,    17.21,    15.61
      112.0,      17.00,    17.50,    17.50,    17.30,    15.69
      113.0,      17.09,    17.59,    17.59,    17.39,    15.77
      114.0,      17.17,    17.68,    17.68,    17.48,    15.84
      115.0,      17.26,    17.77,    17.77,    17.57,    15.92
      116.0,      17.35,    17.86,    17.86,    17.66,    15.99
      117.0,      17.43,    17.95,    17.95,    17.75,    16.07
      118.0,      17.52,    18.04,    18.04,    17.83,    16.14
      119.0,      17.60,    18.13,    18.13,    17.92,    16.22
      120.0,      17.69,    18.22,    18.22,    18.01,    16.29
      121.0,      17.77,    18.31,    18.31,    18.10,    16.37
      122.0,      17.85,    18.40,    18.40,    18.18,    16.44
      123.0,      17.94,    18.48,    18.48,    18.27,    16.51
      124.0,      18.02,    18.57,    18.57,    18.35,    16.59
      125.0,      18.10,    18.66,    18.66,    18.44,    16.66
      126.0,      18.19,    18.75,    18.75,    18.52,    16.73
      127.0,      18.27,    18.83,    18.83,    18.61,    16.81
      128.0,      18.35,    18.92,    18.92,    18.69,    16.88
      129.0,      18.43,    19.00,    19.00,    18.78,    16.95
      130.0,      18.52,    19.09,    19.09,    18.86,    17.02
      131.0,      18.60,    19.18,    19.18,    18.95,    17.09
      132.0,      18.68,    19.26,    19.26,    19.03,    17.16
      133.0,      18.76,    19.35,    19.35,    19.11,    17.23
      134.0,      18.84,    19.43,    19.43,    19.20,    17.30
      135.0,      18.92,    19.51,    19.51,    19.28,    17.37
      136.0,      19.00,    19.60,    19.60,    19.36,    17.44
      137.0,      19.08,    19.68,    19.68,    19.44,    17.51
      138.0,      19.16,    19.77,    19.77,    19.52,    17.58
      139.0,      19.24,    19.85,    19.85,    19.61,    17.65
      140.0,      19.32,    19.93,    19.93,    19.69,    17.72
      141.0,      19.40,    20.01,    20.01,    19.77,    17.79
      142.0,      19.48,    20.10,    20.10,    19.85,    17.86
      143.0,      19.55,    20.18,    20.18,    19.93,    17.93
      144.0,      19.63,    20.26,    20.26,    20.01,    18.00
      145.0,      19.71,    20.34,    20.34,    20.09,    18.07
      146.0,      19.79,    20.43,    20.43,    20.17,    18.13
      147.0,      19.87,    20.51,    20.51,    20.25,    18.20
      148.0,      19.94,    20.59,    20.59,    20.33,    18.27
      149.0,      20.02,    20.67,    20.67,    20.41,    18.34
      150.0,      20.10,    20.75,    20.75,    20.49,    18.40
      151.0,      20.17,    20.83,    20.83,    20.57,    18.47
      152.0,      20.25,    20.91,    20.91,    20.65,    18.54
      153.0,      20.33,    20.99,    20.99,    20.73,    18.60
      154.0,      20.40,    21.07,    21.07,    20.81,    18.67
      155.0,      20.49,    21.15,    21.16,    20.89,    18.74
      156.0,      20.58,    21.24,    21.26,    21.00,    18.83
      157.0,      20.68,    21.33,    21.37,    21.11,    18.92
      158.0,      20.80,    21.43,    21.49,    21.25,    19.03
      159.0,      20.92,    21.53,    21.61,    21.39,    19.14
      160.0,      21.05,    21.65,    21.74,    21.54,    19.26
      161.0,      21.17,    21.76,    21.86,    21.68,    19.37
      162.0,      21.27,    21.87,    21.97,    21.80,    19.46
      163.0,      21.35,    21.96,    22.05,    21.88,    19.53
      164.0,      21.40,    22.03,    22.09,    21.92,    19.57
      165.0,      21.41,    22.07,    22.11,    21.91,    19.57
      166.0,      21.39,    22.08,    22.09,    21.84,    19.53
      167.0,      21.33,    22.05,    22.05,    21.74,    19.47
      168.0,      21.24,    22.01,    21.98,    21.60,    19.38
      169.0,      21.14,    21.94,    21.89,    21.44,    19.27
      170.0,      21.02,    21.85,    21.80,    21.27,    19.16
      171.0,      20.90,    21.76,    21.71,    21.10,    19.04
      172.0,      20.79,    21.67,    21.62,    20.94,    18.93
      173.0,      20.68,    21.59,    21.54,    20.78,    18.83
      174.0,      20.58,    21.51,    21.46,    20.64,    18.73
      175.0,      20.49,    21.43,    21.38,    20.50,    18.64
      176.0,      20.40,    21.36,    21.31,    20.37,    18.55
      177.0,      20.31,    21.29,    21.24,    20.24,    18.47
      178.0,      20.23,    21.22,    21.17,    20.12,    18.39
      179.0,      20.14,    21.16,    21.11,    20.01,    18.31
      180.0,      20.06,    21.09,    21.04,    19.89,    18.23
      181.0,      19.99,    21.03,    20.98,    19.78,    18.16
      182.0,      19.91,    20.97,    20.91,    19.68,    18.08
      183.0,      19.84,    20.90,    20.85,    19.58,    18.01
      184.0,      19.76,    20.84,    20.79,    19.48,    17.95
      185.0,      19.70,    20.78,    20.74,    19.38,    17.88
      186.0,      19.63,    20.72,    20.68,    19.29,    17.82
      187.0,      19.56,    20.67,    20.62,    19.20,    17.75
      188.0,      19.50,    20.61,    20.57,    19.11,    17.69
      189.0,      19.43,    20.55,    20.52,    19.03,    17.64
      190.0,      19.37,    20.50,    20.47,    18.95,    17.58
      191.0,      19.31,    20.44,    20.42,    18.87,    17.52
      192.0,      19.25,    20.39,    20.37,    18.79,    17.47
      193.0,      19.20,    20.33,    20.32,    18.72,    17.42
      194.0,      19.14,    20.28,    20.27,    18.64,    17.37
      195.0,      19.09,    20.23,    20.23,    18.57,    17.32
      196.0,      19.03,    20.18,    20.18,    18.51,    17.27
      197.0,      18.98,    20.12,    20.14,    18.44,    17.22
      198.0,      18.93,    20.07,    20.09,    18.38,    17.18
      199.0,      18.88,    20.03,    20.05,    18.32,    17.13
      200.0,      18.83,    19.98,    20.01,    18.25,    17.09
      201.0,      18.78,    19.93,    19.97,    18.20,    17.05
      202.0,      18.74,    19.88,    19.93,    18.14,    17.00
      203.0,      18.69,    19.83,    19.89,    18.08,    16.96
      204.0,      18.65,    19.78,    19.85,    18.03,    16.92
      205.0,      18.60,    19.74,    19.81,    17.98,    16.89
      206.0,      18.56,    19.69,    19.77,    17.93,    16.85
      207.0,      18.52,    19.65,    19.73,    17.88,    16.81
      208.0,      18.48,    19.60,    19.70,    17.83,    16.78
      209.0,      18.44,    19.56,    19.66,    17.78,    16.74
      210.0,      18.40,    19.51,    19.63,    17.74,    16.71
      211.0,      18.36,    19.47,    19.59,    17.69,    16.67
      212.0,      18.32,    19.43,    19.56,    17.65,    16.64
      213.0,      18.28,    19.38,    19.53,    17.61,    16.61
      214.0,      18.24,    19.34,    19.49,    17.56,    16.58
      215.0,      18.21,    19.30,    19.46,    17.52,    16.54
      216.0,      18.17,    19.26,    19.43,    17.48,    16.51
      217.0,      18.14,    19.21,    19.40,    17.45,    16.48
      218.0,      18.10,    19.17,    19.37,    17.41,    16.46
      219.0,      18.07,    19.13,    19.34,    17.37,    16.43
      220.0,      18.03,    19.09,    19.31,    17.33,    16.40
      221.0,      18.00,    19.05,    19.28,    17.30,    16.37
      222.0,      17.97,    19.01,    19.25,    17.26,    16.34
      223.0,      17.93,    18.97,    19.22,    17.23,    16.32
      224.0,      17.90,    18.93,    19.19,    17.20,    16.29
      225.0,      17.87,    18.89,    19.16,    17.16,    16.26
      226.0,      17.84,    18.86,    19.13,    17.13,    16.24
      227.0,      17.81,    18.82,    19.11,    17.10,    16.21
      228.0,      17.78,    18.78,    19.08,    17.07,    16.19
      229.0,      17.75,    18.74,    19.05,    17.04,    16.16
      230.0,      17.72,    18.70,    19.03,    17.01,    16.14
      231.0,      17.69,    18.67,    19.00,    16.98,    16.12
      232.0,      17.66,    18.63,    18.97,    16.95,    16.09
      233.0,      17.63,    18.59,    18.95,    16.92,    16.07
      234.0,      17.60,    18.55,    18.92,    16.90,    16.05
      235.0,      17.58,    18.52,    18.90,    16.87,    16.02
      236.0,      17.55,    18.48,    18.87,    16.84,    16.00
      237.0,      17.52,    18.44,    18.85,    16.82,    15.98
      238.0,      17.49,    18.41,    18.82,    16.79,    15.96
      239.0,      17.47,    18.37,    18.80,    16.77,    15.94
      240.0,      17.44,    18.34,    18.77,    16.74,    15.92
      241.0,      17.41,    18.30,    18.75,    16.72,    15.89
      242.0,      17.39,    18.27,    18.73,    16.69,    15.87
      243.0,      17.36,    18.23,    18.70,    16.67,    15.85
      244.0,      17.34,    18.20,    18.68,    16.64,    15.83
      245.0,      17.31,    18.16,    18.66,    16.62,    15.81
      246.0,      17.29,    18.13,    18.63,    16.60,    15.79
      247.0,      17.26,    18.09,    18.61,    16.57,    15.77
      248.0,      17.24,    18.06,    18.59,    16.55,    15.75
      249.0,      17.21,    18.02,    18.56,    16.53,    15.73
      250.0,      17.19,    17.99,    18.54,    16.51,    15.71
      251.0,      17.16,    17.95,    18.52,    16.48,    15.70
      252.0,      17.14,    17.92,    18.50,    16.46,    15.68
      253.0,      17.12,    17.89,    18.48,    16.44,    15.66
      254.0,      17.09,    17.85,    18.45,    16.42,    15.64
      255.0,      17.07,    17.82,    18.43,    16.40,    15.62
      256.0,      17.04,    17.79,    18.41,    16.38,    15.60
      257.0,      17.02,    17.75,    18.39,    16.36,    15.58
      258.0,      17.00,    17.72,    18.37,    16.34,    15.57
      259.0,      16.97,    17.69,    18.35,    16.32,    15.55
      260.0,      16.95,    17.66,    18.33,    16.30,    15.53
      261.0,      16.93,    17.62,    18.31,    16.28,    15.51
      262.0,      16.91,    17.59,    18.29,    16.26,    15.49
      263.0,      16.88,    17.56,    18.26,    16.24,    15.48
      264.0,      16.86,    17.53,    18.24,    16.22,    15.46
      265.0,      16.84,    17.49,    18.22,    16.20,    15.44
      266.0,      16.82,    17.46,    18.20,    16.18,    15.42
      267.0,      16.79,    17.43,    18.18,    16.16,    15.41
      268.0,      16.77,    17.40,    18.16,    16.14,    15.39
      269.0,      16.75,    17.37,    18.14,    16.12,    15.37
      270.0,      16.73,    17.33,    18.12,    16.10,    15.36
      271.0,      16.71,    17.30,    18.10,    16.08,    15.34
      272.0,      16.69,    17.27,    18.08,    16.07,    15.32
      273.0,      16.66,    17.24,    18.06,    16.05,    15.31
      274.0,      16.64,    17.21,    18.04,    16.03,    15.29
      275.0,      16.62,    17.18,    18.02,    16.01,    15.27
      276.0,      16.60,    17.15,    18.00,    15.99,    15.26
      277.0,      16.58,    17.11,    17.98,    15.98,    15.24
      278.0,      16.56,    17.08,    17.97,    15.96,    15.22
      279.0,      16.54,    17.05,    17.95,    15.94,    15.21
      280.0,      16.52,    17.02,    17.93,    15.92,    15.19
      281.0,      16.49,    16.99,    17.91,    15.90,    15.17
      282.0,      16.47,    16.96,    17.89,    15.89,    15.16
      283.0,      16.45,    16.93,    17.87,    15.87,    15.14
      284.0,      16.43,    16.90,    17.85,    15.85,    15.13
      285.0,      16.41,    16.87,    17.83,    15.84,    15.11
      286.0,      16.39,    16.84,    17.81,    15.82,    15.09
      287.0,      16.37,    16.81,    17.79,    15.80,    15.08
      288.0,      16.35,    16.78,    17.78,    15.78,    15.06
      289.0,      16.33,    16.75,    17.76,    15.77,    15.05
      290.0,      16.31,    16.72,    17.74,    15.75,    15.03
      291.0,      16.29,    16.69,    17.72,    15.73,    15.01
      292.0,      16.27,    16.66,    17.70,    15.72,    15.00
      293.0,      16.25,    16.63,    17.68,    15.70,    14.98
      294.0,      16.23,    16.60,    17.66,    15.68,    14.97
      295.0,      16.21,    16.57,    17.65,    15.67,    14.95
      296.0,      16.19,    16.54,    17.63,    15.65,    14.94
      297.0,      16.17,    16.51,    17.61,    15.63,    14.92
      298.0,      16.15,    16.48,    17.59,    15.62,    14.91
      299.0,      16.13,    16.45,    17.57,    15.60,    14.89
      300.0,      16.11,    16.42,    17.55,    15.58,    14.87
      301.0,      16.09,    16.39,    17.54,    15.57,    14.86
      302.0,      16.07,    16.36,    17.52,    15.55,    14.84
      303.0,      16.05,    16.33,    17.50,    15.54,    14.83
      304.0,      16.03,    16.31,    17.48,    15.52,    14.81
      305.0,      16.01,    16.28,    17.46,    15.50,    14.80
      306.0,      15.99,    16.25,    17.45,    15.49,    14.78
      307.0,      15.97,    16.22,    17.43,    15.47,    14.77
      308.0,      15.95,    16.19,    17.41,    15.45,    14.75
      309.0,      15.93,    16.16,    17.39,    15.44,    14.74
      310.0,      15.91,    16.13,    17.37,    15.42,    14.72
