Radius (km), Mean (m/s), NE (m/s), SE (m/s), SW (m/s), NW (m/s)
        0.0,       0.00,     0.00,     0.00,     0.00,     0.00
        1.0,       1.50,     1.55,     1.52,     1.52,     1.39
        2.0,       2.25,     2.29,     2.28,     2.28,     2.17
        3.0,       2.86,     2.88,     2.88,     2.88,     2.81
        4.0,       3.39,     3.38,     3.40,     3.40,     3.37
        5.0,       3.87,     3.84,     3.87,     3.87,     3.89
        6.0,       4.30,     4.25,     4.30,     4.30,     4.37
        7.0,       4.71,     4.64,     4.70,     4.70,     4.82
        8.0,       5.10,     5.00,     5.07,     5.07,     5.25
        9.0,       5.47,     5.35,     5.43,     5.43,     5.66
       10.0,       5.82,     5.67,     5.77,     5.77,     6.06
       11.0,       6.16,     5.99,     6.10,     6.10,     6.44
       12.0,       6.48,     6.29,     6.42,     6.42,     6.80
       13.0,       6.79,     6.58,     6.72,     6.72,     7.16
       14.0,       7.10,     6.86,     7.01,     7.01,     7.51
       15.0,       7.39,     7.13,     7.30,     7.30,     7.84
       16.0,       7.68,     7.40,     7.58,     7.58,     8.17
       17.0,       7.96,     7.65,     7.85,     7.85,     8.50
       18.0,       8.24,     7.90,     8.11,     8.11,     8.81
       19.0,       8.50,     8.15,     8.37,     8.37,     9.12
       20.0,       8.76,     8.39,     8.62,     8.62,     9.42
       21.0,       9.02,     8.62,     8.87,     8.87,     9.72
       22.0,       9.27,     8.85,     9.11,     9.11,    10.02
       23.0,       9.52,     9.07,     9.35,     9.35,    10.30
       24.0,       9.76,     9.29,     9.58,     9.58,    10.59
       25.0,      10.00,     9.51,     9.81,     9.81,    10.87
       26.0,      10.23,     9.72,    10.04,    10.04,    11.14
       27.0,      10.47,     9.93,    10.26,    10.26,    11.41
       28.0,      10.69,    10.14,    10.48,    10.48,    11.68
       29.0,      10.92,    10.34,    10.69,    10.69,    11.95
       30.0,      11.14,    10.54,    10.90,    10.90,    12.21
       31.0,      11.36,    10.74,    11.11,    11.11,    12.47
       32.0,      11.57,    10.93,    11.32,    11.32,    12.72
       33.0,      11.78,    11.12,    11.52,    11.52,    12.97
       34.0,      11.99,    11.31,    11.72,    11.72,    13.22
       35.0,      12.20,    11.50,    11.92,    11.92,    13.47
       36.0,      12.41,    11.68,    12.12,    12.12,    13.71
       37.0,      12.61,    11.86,    12.31,    12.31,    13.96
       38.0,      12.81,    12.04,    12.50,    12.50,    14.19
       39.0,      13.01,    12.22,    12.69,    12.69,    14.43
       40.0,      13.20,    12.40,    12.88,    12.88,    14.67
       41.0,      13.40,    12.57,    13.06,    13.06,    14.90
       42.0,      13.59,    12.74,    13.25,    13.25,    15.13
       43.0,      13.78,    12.91,    13.43,    13.43,    15.36
       44.0,      13.97,    13.08,    13.61,    13.61,    15.59
       45.0,      14.16,    13.25,    13.79,    13.79,    15.81
       46.0,      14.34,    13.41,    13.96,    13.96,    16.04
       47.0,      14.53,    13.58,    14.14,    14.14,    16.26
       48.0,      14.71,    13.74,    14.31,    14.31,    16.48
       49.0,      14.89,    13.90,    14.48,    14.48,    16.70
       50.0,      15.07,    14.06,    14.65,    14.65,    16.91
       51.0,      15.25,    14.22,    14.82,    14.82,    17.13
       52.0,      15.42,    14.37,    14.99,    14.99,    17.34
       53.0,      15.60,    14.53,    15.16,    15.16,    17.55
       54.0,      15.77,    14.68,    15.32,    15.32,    17.76
       55.0,      15.94,    14.83,    15.48,    15.48,    17.97
       56.0,      16.11,    14.99,    15.65,    15.65,    18.18
       57.0,      16.28,    15.14,    15.81,    15.81,    18.39
       58.0,      16.45,    15.29,    15.97,    15.97,    18.59
       59.0,      16.62,    15.43,    16.13,    16.13,    18.80
       60.0,      16.79,    15.58,    16.28,    16.28,    19.00
       61.0,      16.95,    15.73,    16.44,    16.44,    19.20
       62.0,      17.12,    15.87,    16.60,    16.60,    19.40
       63.0,      17.28,    16.01,    16.75,    16.75,    19.60
       64.0,      17.44,    16.16,    16.90,    16.90,    19.80
       65.0,      17.60,    16.30,    17.06,    17.06,    19.99
       66.0,      17.76,    16.44,    17.21,    17.21,    20.19
       67.0,      17.92,    16.58,    17.36,    17.36,    20.38
       68.0,      18.08,    16.72,    17.51,    17.51,    20.58
       69.0,      18.23,    16.86,    17.65,    17.65,    20.77
       70.0,      18.39,    17.00,    17.80,    17.80,    20.96
       71.0,      18.55,    17.13,    17.95,    17.95,    21.15
       72.0,      18.70,    17.27,    18.09,    18.09,    21.34
       73.0,      18.85,    17.40,    18.24,    18.24,    21.53
       74.0,      19.01,    17.54,    18.38,    18.38,    21.72
       75.0,      19.16,    17.67,    18.53,    18.53,    21.91
       76.0,      19.31,    17.80,    18.67,    18.67,    22.09
       77.0,      19.46,    17.93,    18.81,    18.81,    22.28
       78.0,      19.61,    18.06,    18.95,    18.95,    22.46
       79.0,      19.76,    18.20,    19.10,    19.10,    22.65
       80.0,      19.92,    18.33,    19.24,    19.26,    22.86
       81.0,      20.10,    18.48,    19.40,    19.43,    23.10
       82.0,      20.31,    18.64,    19.58,    19.63,    23.38
       83.0,      20.54,    18.82,    19.77,    19.85,    23.71
       84.0,      20.79,    19.01,    19.98,    20.09,    24.08
       85.0,      21.05,    19.21,    20.20,    20.33,    24.45
       86.0,      21.30,    19.41,    20.40,    20.56,    24.81
       87.0,      21.52,    19.59,    20.60,    20.76,    25.13
       88.0,      21.69,    19.74,    20.76,    20.92,    25.36
       89.0,      21.81,    19.86,    20.88,    21.02,    25.49
       90.0,      21.86,    19.93,    20.95,    21.07,    25.51
       91.0,      21.85,    19.95,    20.98,    21.06,    25.42
       92.0,      21.77,    19.93,    20.96,    20.99,    25.22
       93.0,      21.65,    19.87,    20.90,    20.88,    24.94
       94.0,      21.49,    19.78,    20.82,    20.75,    24.60
       95.0,      21.31,    19.68,    20.72,    20.60,    24.24
       96.0,      21.12,    19.57,    20.62,    20.45,    23.86
       97.0,      20.94,    19.45,    20.51,    20.30,    23.50
       98.0,      20.77,    19.34,    20.41,    20.16,    23.16
       99.0,      20.61,    19.24,    20.32,    20.03,    22.84
      100.0,      20.45,    19.14,    20.23,    19.91,    22.53
      101.0,      20.30,    19.04,    20.15,    19.79,    22.24
      102.0,      20.16,    18.94,    20.07,    19.67,    21.96
      103.0,      20.02,    18.84,    19.99,    19.56,    21.69
      104.0,      19.89,    18.75,    19.91,    19.46,    21.43
      105.0,      19.76,    18.66,    19.84,    19.35,    21.18
      106.0,      19.63,    18.56,    19.77,    19.25,    20.94
      107.0,      19.51,    18.47,    19.70,    19.15,    20.71
      108.0,      19.39,    18.38,    19.63,    19.06,    20.49
      109.0,      19.27,    18.29,    19.56,    18.97,    20.27
      110.0,      19.16,    18.20,    19.50,    18.88,    20.07
      111.0,      19.05,    18.12,    19.43,    18.79,    19.87
      112.0,      18.95,    18.03,    19.37,    18.71,    19.67
      113.0,      18.84,    17.94,    19.31,    18.63,    19.49
      114.0,      18.74,    17.86,    19.25,    18.55,    19.31
      115.0,      18.65,    17.78,    19.19,    18.48,    19.14
      116.0,      18.55,    17.69,    19.13,    18.41,    18.97
      117.0,      18.46,    17.61,    19.08,    18.33,    18.81
      118.0,      18.37,    17.53,    19.02,    18.27,    18.66
      119.0,      18.28,    17.45,    18.97,    18.20,    18.51
      120.0,      18.20,    17.37,    18.92,    18.13,    18.37
      121.0,      18.11,    17.29,    18.87,    18.07,    18.23
      122.0,      18.03,    17.22,    18.82,    18.01,    18.09
      123.0,      17.96,    17.14,    18.77,    17.95,    17.96
      124.0,      17.88,    17.06,    18.72,    17.89,    17.84
      125.0,      17.80,    16.99,    18.67,    17.84,    17.72
      126.0,      17.73,    16.92,    18.63,    17.78,    17.60
      127.0,      17.66,    16.84,    18.58,    17.73,    17.49
      128.0,      17.59,    16.77,    18.54,    17.68,    17.38
      129.0,      17.52,    16.70,    18.50,    17.63,    17.28
      130.0,      17.46,    16.63,    18.45,    17.58,    17.18
      131.0,      17.39,    16.56,    18.41,    17.53,    17.08
      132.0,      17.33,    16.49,    18.37,    17.48,    16.98
      133.0,      17.27,    16.42,    18.33,    17.44,    16.89
      134.0,      17.21,    16.35,    18.29,    17.39,    16.80
      135.0,      17.15,    16.29,    18.25,    17.35,    16.72
      136.0,      17.09,    16.22,    18.21,    17.31,    16.64
      137.0,      17.04,    16.15,    18.17,    17.27,    16.56
      138.0,      16.98,    16.09,    18.14,    17.23,    16.48
      139.0,      16.93,    16.03,    18.10,    17.19,    16.40
      140.0,      16.88,    15.96,    18.06,    17.15,    16.33
      141.0,      16.82,    15.90,    18.03,    17.11,    16.26
      142.0,      16.77,    15.84,    17.99,    17.07,    16.19
      143.0,      16.72,    15.78,    17.96,    17.04,    16.13
      144.0,      16.68,    15.72,    17.92,    17.00,    16.06
      145.0,      16.63,    15.66,    17.89,    16.97,    16.00
      146.0,      16.58,    15.60,    17.85,    16.94,    15.94
      147.0,      16.54,    15.54,    17.82,    16.90,    15.88
      148.0,      16.49,    15.48,    17.79,    16.87,    15.82
      149.0,      16.45,    15.42,    17.76,    16.84,    15.77
      150.0,      16.40,    15.37,    17.72,    16.81,    15.72
      151.0,      16.36,    15.31,    17.69,    16.78,    15.66
      152.0,      16.32,    15.25,    17.66,    16.75,    15.61
      153.0,      16.28,    15.20,    17.63,    16.72,    15.56
      154.0,      16.24,    15.14,    17.60,    16.69,    15.52
      155.0,      16.20,    15.09,    17.57,    16.66,    15.47
      156.0,      16.16,    15.04,    17.54,    16.63,    15.43
      157.0,      16.12,    14.98,    17.51,    16.60,    15.38
      158.0,      16.08,    14.93,    17.48,    16.58,    15.34
      159.0,      16.04,    14.88,    17.45,    16.55,    15.30
      160.0,      16.01,    14.83,    17.42,    16.52,    15.26
      161.0,      15.97,    14.78,    17.39,    16.50,    15.22
      162.0,      15.93,    14.73,    17.36,    16.47,    15.18
      163.0,      15.90,    14.68,    17.33,    16.45,    15.14
      164.0,      15.86,    14.63,    17.31,    16.42,    15.10
      165.0,      15.83,    14.58,    17.28,    16.40,    15.07
      166.0,      15.80,    14.53,    17.25,    16.37,    15.03
      167.0,      15.76,    14.48,    17.22,    16.35,    15.00
      168.0,      15.73,    14.44,    17.19,    16.33,    14.97
      169.0,      15.70,    14.39,    17.17,    16.30,    14.93
      170.0,      15.67,    14.34,    17.14,    16.28,    14.90
      171.0,      15.63,    14.30,    17.11,    16.26,    14.87
      172.0,      15.60,    14.25,    17.09,    16.23,    14.84
      173.0,      15.57,    14.21,    17.06,    16.21,    14.81
      174.0,      15.54,    14.16,    17.03,    16.19,    14.78
      175.0,      15.51,    14.12,    17.01,    16.17,    14.75
      176.0,      15.48,    14.08,    16.98,    16.15,    14.72
      177.0,      15.45,    14.03,    16.96,    16.13,    14.70
      178.0,      15.42,    13.99,    16.93,    16.10,    14.67
      179.0,      15.39,    13.95,    16.90,    16.08,    14.64
      180.0,      15.37,    13.91,    16.88,    16.06,    14.62
      181.0,      15.34,    13.86,    16.85,    16.04,    14.59
      182.0,      15.31,    13.82,    16.83,    16.02,    14.57
      183.0,      15.28,    13.78,    16.80,    16.00,    14.54
      184.0,      15.25,    13.74,    16.78,    15.98,    14.52
      185.0,      15.23,    13.70,    16.75,    15.96,    14.49
      186.0,      15.20,    13.66,    16.73,    15.94,    14.47
      187.0,      15.17,    13.62,    16.70,    15.92,    14.45
      188.0,      15.15,    13.58,    16.68,    15.90,    14.42
      189.0,      15.12,    13.55,    16.66,    15.88,    14.40
      190.0,      15.10,    13.51,    16.63,    15.86,    14.38
      191.0,      15.07,    13.47,    16.61,    15.85,    14.36
      192.0,      15.04,    13.43,    16.58,    15.83,    14.34
      193.0,      15.02,    13.40,    16.56,    15.81,    14.32
      194.0,      14.99,    13.36,    16.53,    15.79,    14.30
      195.0,      14.97,    13.32,    16.51,    15.77,    14.28
      196.0,      14.95,    13.29,    16.49,    15.75,    14.25
      197.0,      14.92,    13.25,    16.46,    15.73,    14.23
      198.0,      14.90,    13.22,    16.44,    15.72,    14.22
      199.0,      14.87,    13.18,    16.42,    15.70,    14.20
      200.0,      14.85,    13.15,    16.39,    15.68,    14.18
      201.0,      14.82,    13.11,    16.37,    15.66,    14.16
      202.0,      14.80,    13.08,    16.35,    15.64,    14.14
      203.0,      14.78,    13.04,    16.32,    15.63,    14.12
      204.0,      14.75,    13.01,    16.30,    15.61,    14.10
      205.0,      14.73,    12.98,    16.28,    15.59,    14.08
      206.0,      14.71,    12.94,    16.25,    15.57,    14.06
      207.0,      14.69,    12.91,    16.23,    15.56,    14.05
      208.0,      14.66,    12.88,    16.21,    15.54,    14.03
      209.0,      14.64,    12.85,    16.18,    15.52,    14.01
      210.0,      14.62,    12.82,    16.16,    15.50,    13.99
      211.0,      14.60,    12.78,    16.14,    15.49,    13.98
      212.0,      14.57,    12.75,    16.12,    15.47,    13.96
      213.0,      14.55,    12.72,    16.09,    15.45,    13.94
      214.0,      14.53,    12.69,    16.07,    15.44,    13.93
      215.0,      14.51,    12.66,    16.05,    15.42,    13.91
      216.0,      14.49,    12.63,    16.02,    15.40,    13.89
      217.0,      14.47,    12.60,    16.00,    15.39,    13.88
      218.0,      14.45,    12.57,    15.98,    15.37,    13.86
      219.0,      14.42,    12.54,    15.96,    15.35,    13.84
      220.0,      14.40,    12.51,    15.94,    15.34,    13.83
      221.0,      14.38,    12.49,    15.91,    15.32,    13.81
      222.0,      14.36,    12.46,    15.89,    15.30,    13.80
      223.0,      14.34,    12.43,    15.87,    15.29,    13.78
      224.0,      14.32,    12.40,    15.85,    15.27,    13.76
      225.0,      14.30,    12.37,    15.82,    15.25,    13.75
      226.0,      14.28,    12.34,    15.80,    15.24,    13.73
      227.0,      14.26,    12.32,    15.78,    15.22,    13.72
      228.0,      14.24,    12.29,    15.76,    15.20,    13.70
      229.0,      14.22,    12.26,    15.74,    15.19,    13.69
      230.0,      14.20,    12.24,    15.71,    15.17,    13.67
      231.0,      14.18,    12.21,    15.69,    15.16,    13.66
      232.0,      14.16,    12.18,    15.67,    15.14,    13.64
      233.0,      14.14,    12.16,    15.65,    15.12,    13.63
      234.0,      14.12,    12.13,    15.63,    15.11,    13.61
      235.0,      14.10,    12.11,    15.61,    15.09,    13.60
      236.0,      14.08,    12.08,    15.58,    15.08,    13.58
      237.0,      14.06,    12.06,    15.56,    15.06,    13.57
      238.0,      14.04,    12.03,    15.54,    15.04,    13.55
      239.0,      14.02,    12.01,    15.52,    15.03,    13.54
      240.0,      14.00,    11.98,    15.50,    15.01,    13.52
      241.0,      13.98,    11.96,    15.48,    15.00,    13.51
      242.0,      13.97,    11.93,    15.46,    14.98,    13.49
      243.0,      13.95,    11.91,    15.43,    14.96,    13.48
      244.0,      13.93,    11.88,    15.41,    14.95,    13.47
      245.0,      13.91,    11.86,    15.39,    14.93,    13.45
      246.0,      13.89,    11.84,    15.37,    14.92,    13.44
      247.0,      13.87,    11.81,    15.35,    14.90,    13.42
      248.0,      13.85,    11.79,    15.33,    14.89,    13.41
      249.0,      13.83,    11.77,    15.31,    14.87,    13.39
      250.0,      13.82,    11.74,    15.29,    14.86,    13.38
      251.0,      13.80,    11.72,    15.26,    14.84,    13.37
      252.0,      13.78,    11.70,    15.24,    14.82,    13.35
      253.0,      13.76,    11.68,    15.22,    14.81,    13.34
      254.0,      13.74,    11.65,    15.20,    14.79,    13.32
      255.0,      13.73,    11.63,    15.18,    14.78,    13.31
      256.0,      13.71,    11.61,    15.16,    14.76,    13.30
      257.0,      13.69,    11.59,    15.14,    14.75,    13.28
      258.0,      13.67,    11.57,    15.12,    14.73,    13.27
      259.0,      13.65,    11.54,    15.10,    14.72,    13.26
      260.0,      13.64,    11.52,    15.08,    14.70,    13.24
      261.0,      13.62,    11.50,    15.06,    14.69,    13.23
      262.0,      13.60,    11.48,    15.04,    14.67,    13.21
      263.0,      13.58,    11.46,    15.01,    14.66,    13.20
      264.0,      13.57,    11.44,    14.99,    14.64,    13.19
      265.0,      13.55,    11.42,    14.97,    14.62,    13.17
      266.0,      13.53,    11.40,    14.95,    14.61,    13.16
      267.0,      13.51,    11.38,    14.93,    14.59,    13.15
      268.0,      13.50,    11.36,    14.91,    14.58,    13.13
      269.0,      13.48,    11.34,    14.89,    14.56,    13.12
      270.0,      13.46,    11.32,    14.87,    14.55,    13.11
      271.0,      13.44,    11.30,    14.85,    14.53,    13.09
      272.0,      13.43,    11.28,    14.83,    14.52,    13.08
      273.0,      13.41,    11.26,    14.81,    14.50,    13.07
      274.0,      13.39,    11.24,    14.79,    14.49,    13.05
      275.0,      13.38,    11.22,    14.77,    14.47,    13.04
      276.0,      13.36,    11.20,    14.75,    14.46,    13.03
      277.0,      13.34,    11.18,    14.73,    14.44,    13.01
      278.0,      13.33,    11.16,    14.71,    14.43,    13.00
      279.0,      13.31,    11.14,    14.69,    14.41,    12.99
      280.0,      13.29,    11.13,    14.67,    14.40,    12.97
      281.0,      13.28,    11.11,    14.65,    14.38,    12.96
      282.0,      13.26,    11.09,    14.63,    14.37,    12.95
      283.0,      13.24,    11.07,    14.61,    14.35,    12.93
      284.0,      13.23,    11.05,    14.59,    14.34,    12.92
      285.0,      13.21,    11.03,    14.57,    14.33,    12.91
      286.0,      13.19,    11.02,    14.55,    14.31,    12.89
      287.0,      13.18,    11.00,    14.53,    14.30,    12.88
      288.0,      13.16,    10.98,    14.51,    14.28,    12.87
      289.0,      13.14,    10.96,    14.49,    14.27,    12.86
      290.0,      13.13,    10.95,    14.47,    14.25,    12.84
      291.0,      13.11,    10.93,    14.45,    14.24,    12.83
      292.0,      13.09,    10.91,    14.43,    14.22,    12.82
      293.0,      13.08,    10.89,    14.41,    14.21,    12.80
      294.0,      13.06,    10.88,    14.39,    14.19,    12.79
      295.0,      13.05,    10.86,    14.37,    14.18,    12.78
      296.0,      13.03,    10.84,    14.35,    14.16,    12.76
      297.0,      13.01,    10.83,    14.33,    14.15,    12.75
      298.0,      13.00,    10.81,    14.31,    14.13,    12.74
      299.0,      12.98,    10.79,    14.29,    14.12,    12.73
      300.0,      12.97,    10.78,    14.27,    14.11,    12.71
      301.0,      12.95,    10.76,    14.25,    14.09,    12.70
      302.0,      12.93,    10.74,    14.23,    14.08,    12.69
      303.0,      12.92,    10.73,    14.21,    14.06,    12.68
      304.0,      12.90,    10.71,    14.19,    14.05,    12.66
      305.0,      12.89,    10.69,    14.17,    14.03,    12.65
      306.0,      12.87,    10.68,    14.15,    14.02,    12.64
      307.0,      12.86,    10.66,    14.14,    14.00,    12.62
      308.0,      12.84,    10.65,    14.12,    13.99,    12.61
      309.0,      12.83,    10.63,    14.10,    13.97,    12.60
      310.0,      12.81,    10.62,    14.08,    13.96,    12.59
