Radius (km), Mean (m/s), NE (m/s), SE (m/s), SW (m/s), NW (m/s)
        0.0,       0.00,     0.00,     0.00,     0.00,     0.00
        1.0,       2.26,     2.26,     2.26,     2.26,     2.26
        2.0,       3.66,     3.66,     3.66,     3.66,     3.66
        3.0,       4.85,     4.85,     4.85,     4.85,     4.85
        4.0,       5.93,     5.93,     5.93,     5.93,     5.93
        5.0,       6.92,     6.92,     6.92,     6.92,     6.92
        6.0,       7.85,     7.85,     7.85,     7.85,     7.85
        7.0,       8.74,     8.74,     8.74,     8.74,     8.74
        8.0,       9.58,     9.58,     9.58,     9.58,     9.58
        9.0,      10.40,    10.40,    10.40,    10.40,    10.40
       10.0,      11.19,    11.19,    11.19,    11.19,    11.19
       11.0,      11.95,    11.95,    11.95,    11.95,    11.95
       12.0,      12.70,    12.70,    12.70,    12.70,    12.70
       13.0,      13.42,    13.42,    13.42,    13.42,    13.42
       14.0,      14.13,    14.13,    14.13,    14.13,    14.13
       15.0,      14.82,    14.82,    14.82,    14.82,    14.82
       16.0,      15.50,    15.50,    15.50,    15.50,    15.50
       17.0,      16.17,    16.17,    16.17,    16.17,    16.17
       18.0,      16.82,    16.82,    16.82,    16.82,    16.82
       19.0,      17.47,    17.47,    17.47,    17.47,    17.47
       20.0,      18.10,    18.10,    18.10,    18.10,    18.10
       21.0,      18.72,    18.72,    18.72,    18.72,    18.73
       22.0,      19.35,    19.35,    19.34,    19.34,    19.36
       23.0,      19.99,    19.99,    19.97,    19.98,    20.02
       24.0,      20.67,    20.67,    20.63,    20.65,    20.72
       25.0,      21.40,    21.42,    21.35,    21.37,    21.47
       26.0,      22.20,    22.23,    22.12,    22.15,    22.28
       27.0,      23.04,    23.11,    22.96,    22.98,    23.12
       28.0,      23.92,    24.02,    23.83,    23.85,    23.98
       29.0,      24.79,    24.93,    24.70,    24.71,    24.81
       30.0,      25.61,    25.79,    25.54,    25.53,    25.58
       31.0,      26.34,    26.54,    26.28,    26.26,    26.26
       32.0,      26.94,    27.15,    26.91,    26.87,    26.82
       33.0,      27.39,    27.60,    27.38,    27.34,    27.25
       34.0,      27.69,    27.87,    27.70,    27.65,    27.54
       35.0,      27.83,    27.97,    27.85,    27.81,    27.71
       36.0,      27.85,    27.92,    27.86,    27.84,    27.77
       37.0,      27.76,    27.76,    27.76,    27.76,    27.76
       38.0,      27.60,    27.52,    27.58,    27.61,    27.69
       39.0,      27.41,    27.25,    27.36,    27.42,    27.60
       40.0,      27.20,    26.96,    27.13,    27.21,    27.51
       41.0,      27.00,    26.67,    26.89,    27.01,    27.42
       42.0,      26.81,    26.40,    26.67,    26.82,    27.33
       43.0,      26.62,    26.15,    26.47,    26.64,    27.24
       44.0,      26.45,    25.90,    26.27,    26.46,    27.16
       45.0,      26.28,    25.67,    26.08,    26.29,    27.07
       46.0,      26.11,    25.44,    25.90,    26.12,    26.99
       47.0,      25.95,    25.21,    25.72,    25.95,    26.91
       48.0,      25.79,    24.99,    25.54,    25.79,    26.83
       49.0,      25.63,    24.78,    25.37,    25.63,    26.74
       50.0,      25.48,    24.57,    25.21,    25.47,    26.66
       51.0,      25.33,    24.37,    25.05,    25.32,    26.58
       52.0,      25.18,    24.17,    24.89,    25.16,    26.50
       53.0,      25.04,    23.98,    24.74,    25.01,    26.42
       54.0,      24.90,    23.80,    24.59,    24.87,    26.34
       55.0,      24.76,    23.61,    24.44,    24.72,    26.26
       56.0,      24.63,    23.44,    24.30,    24.58,    26.19
       57.0,      24.49,    23.26,    24.17,    24.44,    26.11
       58.0,      24.37,    23.10,    24.03,    24.30,    26.03
       59.0,      24.24,    22.93,    23.90,    24.17,    25.95
       60.0,      24.11,    22.77,    23.77,    24.04,    25.88
       61.0,      23.99,    22.62,    23.65,    23.91,    25.80
       62.0,      23.87,    22.47,    23.53,    23.78,    25.72
       63.0,      23.76,    22.32,    23.41,    23.65,    25.65
       64.0,      23.64,    22.18,    23.29,    23.53,    25.57
       65.0,      23.53,    22.04,    23.18,    23.41,    25.50
       66.0,      23.42,    21.90,    23.07,    23.29,    25.43
       67.0,      23.31,    21.77,    22.96,    23.17,    25.35
       68.0,      23.20,    21.64,    22.85,    23.05,    25.28
       69.0,      23.10,    21.51,    22.75,    22.94,    25.21
       70.0,      23.00,    21.39,    22.65,    22.83,    25.13
       71.0,      22.90,    21.26,    22.55,    22.72,    25.06
       72.0,      22.80,    21.15,    22.45,    22.61,    24.99
       73.0,      22.70,    21.03,    22.36,    22.50,    24.92
       74.0,      22.61,    20.92,    22.26,    22.39,    24.85
       75.0,      22.51,    20.81,    22.17,    22.29,    24.78
       76.0,      22.42,    20.70,    22.08,    22.19,    24.71
       77.0,      22.33,    20.60,    21.99,    22.09,    24.64
       78.0,      22.24,    20.49,    21.91,    21.99,    24.57
       79.0,      22.15,    20.39,    21.82,    21.89,    24.50
       80.0,      22.07,    20.30,    21.74,    21.80,    24.43
       81.0,      21.98,    20.20,    21.66,    21.70,    24.37
       82.0,      21.90,    20.11,    21.58,    21.61,    24.30
       83.0,      21.82,    20.01,    21.50,    21.52,    24.23
       84.0,      21.74,    19.93,    21.43,    21.43,    24.16
       85.0,      21.66,    19.84,    21.35,    21.34,    24.10
       86.0,      21.58,    19.75,    21.28,    21.25,    24.03
       87.0,      21.50,    19.67,    21.20,    21.16,    23.97
       88.0,      21.42,    19.59,    21.13,    21.08,    23.90
       89.0,      21.35,    19.51,    21.06,    21.00,    23.84
       90.0,      21.28,    19.43,    20.99,    20.91,    23.77
       91.0,      21.20,    19.35,    20.92,    20.83,    23.71
       92.0,      21.13,    19.27,    20.86,    20.75,    23.64
       93.0,      21.06,    19.20,    20.79,    20.67,    23.58
       94.0,      20.99,    19.13,    20.72,    20.59,    23.52
       95.0,      20.92,    19.06,    20.66,    20.52,    23.45
       96.0,      20.85,    18.99,    20.60,    20.44,    23.39
       97.0,      20.79,    18.92,    20.53,    20.37,    23.33
       98.0,      20.72,    18.85,    20.47,    20.29,    23.27
       99.0,      20.66,    18.79,    20.41,    20.22,    23.21
      100.0,      20.59,    18.72,    20.35,    20.15,    23.15
      101.0,      20.53,    18.66,    20.29,    20.08,    23.08
      102.0,      20.47,    18.60,    20.23,    20.01,    23.02
      103.0,      20.40,    18.53,    20.18,    19.94,    22.96
      104.0,      20.34,    18.47,    20.12,    19.87,    22.90
      105.0,      20.28,    18.42,    20.06,    19.80,    22.85
      106.0,      20.22,    18.36,    20.01,    19.74,    22.79
      107.0,      20.16,    18.30,    19.95,    19.67,    22.73
      108.0,      20.10,    18.25,    19.90,    19.61,    22.67
      109.0,      20.05,    18.19,    19.84,    19.54,    22.61
      110.0,      19.99,    18.14,    19.79,    19.48,    22.55
      111.0,      19.93,    18.08,    19.74,    19.42,    22.50
      112.0,      19.88,    18.03,    19.69,    19.35,    22.44
      113.0,      19.82,    17.98,    19.64,    19.29,    22.38
      114.0,      19.77,    17.93,    19.58,    19.23,    22.32
      115.0,      19.71,    17.88,    19.53,    19.17,    22.27
      116.0,      19.66,    17.83,    19.48,    19.12,    22.21
      117.0,      19.61,    17.78,    19.44,    19.06,    22.16
      118.0,      19.56,    17.73,    19.39,    19.00,    22.10
      119.0,      19.50,    17.69,    19.34,    18.94,    22.05
      120.0,      19.45,    17.64,    19.29,    18.89,    21.99
      121.0,      19.40,    17.59,    19.24,    18.83,    21.94
      122.0,      19.35,    17.55,    19.19,    18.78,    21.88
      123.0,      19.30,    17.51,    19.15,    18.72,    21.83
      124.0,      19.25,    17.46,    19.10,    18.67,    21.78
      125.0,      19.20,    17.42,    19.05,    18.62,    21.72
      126.0,      19.15,    17.38,    19.01,    18.56,    21.67
      127.0,      19.11,    17.33,    18.96,    18.51,    21.62
      128.0,      19.06,    17.29,    18.92,    18.46,    21.56
      129.0,      19.01,    17.25,    18.87,    18.41,    21.51
      130.0,      18.96,    17.21,    18.83,    18.36,    21.46
      131.0,      18.92,    17.17,    18.79,    18.31,    21.41
      132.0,      18.87,    17.13,    18.74,    18.26,    21.36
      133.0,      18.83,    17.09,    18.70,    18.21,    21.31
      134.0,      18.78,    17.05,    18.65,    18.16,    21.26
      135.0,      18.74,    17.02,    18.61,    18.11,    21.20
      136.0,      18.69,    16.98,    18.57,    18.07,    21.15
      137.0,      18.65,    16.94,    18.53,    18.02,    21.10
      138.0,      18.60,    16.90,    18.48,    17.97,    21.05
      139.0,      18.56,    16.87,    18.44,    17.93,    21.01
      140.0,      18.52,    16.83,    18.40,    17.88,    20.96
      141.0,      18.47,    16.80,    18.36,    17.84,    20.91
      142.0,      18.43,    16.76,    18.32,    17.79,    20.86
      143.0,      18.39,    16.73,    18.28,    17.75,    20.81
      144.0,      18.35,    16.69,    18.24,    17.70,    20.76
      145.0,      18.31,    16.66,    18.20,    17.66,    20.71
      146.0,      18.27,    16.62,    18.16,    17.62,    20.67
      147.0,      18.22,    16.59,    18.12,    17.57,    20.62
      148.0,      18.18,    16.56,    18.08,    17.53,    20.57
      149.0,      18.14,    16.52,    18.04,    17.49,    20.52
      150.0,      18.10,    16.49,    18.00,    17.45,    20.48
      151.0,      18.06,    16.46,    17.96,    17.41,    20.43
      152.0,      18.02,    16.42,    17.92,    17.36,    20.38
      153.0,      17.98,    16.39,    17.88,    17.32,    20.34
      154.0,      17.94,    16.36,    17.84,    17.28,    20.29
      155.0,      17.91,    16.33,    17.80,    17.24,    20.25
      156.0,      17.87,    16.30,    17.76,    17.20,    20.20
      157.0,      17.83,    16.27,    17.73,    17.16,    20.16
      158.0,      17.79,    16.24,    17.69,    17.12,    20.11
      159.0,      17.75,    16.21,    17.65,    17.09,    20.07
      160.0,      17.71,    16.18,    17.61,    17.05,    20.02
      161.0,      17.68,    16.15,    17.57,    17.01,    19.98
      162.0,      17.64,    16.12,    17.54,    16.97,    19.93
      163.0,      17.60,    16.09,    17.50,    16.93,    19.89
      164.0,      17.57,    16.06,    17.46,    16.90,    19.85
      165.0,      17.53,    16.03,    17.43,    16.86,    19.80
      166.0,      17.49,    16.00,    17.39,    16.82,    19.76
      167.0,      17.46,    15.97,    17.35,    16.79,    19.72
      168.0,      17.42,    15.94,    17.32,    16.75,    19.67
      169.0,      17.38,    15.91,    17.28,    16.71,    19.63
      170.0,      17.35,    15.88,    17.24,    16.68,    19.59
      171.0,      17.31,    15.86,    17.21,    16.64,    19.55
      172.0,      17.28,    15.83,    17.17,    16.61,    19.50
      173.0,      17.24,    15.80,    17.13,    16.57,    19.46
      174.0,      17.21,    15.77,    17.10,    16.54,    19.42
      175.0,      17.17,    15.74,    17.06,    16.50,    19.38
      176.0,      17.14,    15.72,    17.03,    16.47,    19.34
      177.0,      17.10,    15.69,    16.99,    16.43,    19.30
      178.0,      17.07,    15.66,    16.96,    16.40,    19.26
      179.0,      17.03,    15.64,    16.92,    16.36,    19.22
      180.0,      17.00,    15.61,    16.89,    16.33,    19.18
      181.0,      16.97,    15.58,    16.85,    16.30,    19.14
      182.0,      16.93,    15.55,    16.82,    16.26,    19.10
      183.0,      16.90,    15.53,    16.78,    16.23,    19.06
      184.0,      16.87,    15.50,    16.75,    16.20,    19.02
      185.0,      16.83,    15.48,    16.71,    16.16,    18.98
      186.0,      16.80,    15.45,    16.68,    16.13,    18.94
      187.0,      16.77,    15.42,    16.64,    16.10,    18.90
      188.0,      16.73,    15.40,    16.61,    16.07,    18.86
      189.0,      16.70,    15.37,    16.57,    16.03,    18.82
      190.0,      16.67,    15.35,    16.54,    16.00,    18.78
      191.0,      16.64,    15.32,    16.51,    15.97,    18.75
      192.0,      16.60,    15.30,    16.47,    15.94,    18.71
      193.0,      16.57,    15.27,    16.44,    15.91,    18.67
      194.0,      16.54,    15.24,    16.40,    15.88,    18.63
      195.0,      16.51,    15.22,    16.37,    15.85,    18.59
      196.0,      16.48,    15.19,    16.34,    15.81,    18.56
      197.0,      16.44,    15.17,    16.30,    15.78,    18.52
      198.0,      16.41,    15.14,    16.27,    15.75,    18.48
      199.0,      16.38,    15.12,    16.24,    15.72,    18.45
      200.0,      16.35,    15.10,    16.20,    15.69,    18.41
      201.0,      16.32,    15.07,    16.17,    15.66,    18.37
      202.0,      16.29,    15.05,    16.14,    15.63,    18.34
      203.0,      16.26,    15.02,    16.10,    15.60,    18.30
      204.0,      16.23,    15.00,    16.07,    15.57,    18.26
      205.0,      16.20,    14.97,    16.04,    15.54,    18.23
      206.0,      16.17,    14.95,    16.00,    15.51,    18.19
      207.0,      16.13,    14.92,    15.97,    15.48,    18.16
      208.0,      16.10,    14.90,    15.94,    15.46,    18.12
      209.0,      16.07,    14.88,    15.91,    15.43,    18.09
      210.0,      16.04,    14.85,    15.87,    15.40,    18.05
      211.0,      16.01,    14.83,    15.84,    15.37,    18.02
      212.0,      15.98,    14.81,    15.81,    15.34,    17.98
      213.0,      15.95,    14.78,    15.78,    15.31,    17.95
      214.0,      15.92,    14.76,    15.75,    15.28,    17.91
      215.0,      15.90,    14.73,    15.71,    15.25,    17.88
      216.0,      15.87,    14.71,    15.68,    15.23,    17.84
      217.0,      15.84,    14.69,    15.65,    15.20,    17.81
      218.0,      15.81,    14.66,    15.62,    15.17,    17.78
      219.0,      15.78,    14.64,    15.59,    15.14,    17.74
      220.0,      15.75,    14.62,    15.55,    15.11,    17.71
      221.0,      15.72,    14.59,    15.52,    15.09,    17.68
      222.0,      15.69,    14.57,    15.49,    15.06,    17.64
      223.0,      15.66,    14.55,    15.46,    15.03,    17.61
      224.0,      15.63,    14.53,    15.43,    15.00,    17.58
      225.0,      15.60,    14.50,    15.40,    14.98,    17.54
      226.0,      15.58,    14.48,    15.37,    14.95,    17.51
      227.0,      15.55,    14.46,    15.33,    14.92,    17.48
      228.0,      15.52,    14.43,    15.30,    14.89,    17.45
      229.0,      15.49,    14.41,    15.27,    14.87,    17.41
      230.0,      15.46,    14.39,    15.24,    14.84,    17.38
      231.0,      15.44,    14.37,    15.21,    14.81,    17.35
      232.0,      15.41,    14.34,    15.18,    14.79,    17.32
      233.0,      15.38,    14.32,    15.15,    14.76,    17.29
      234.0,      15.35,    14.30,    15.12,    14.73,    17.26
      235.0,      15.32,    14.28,    15.09,    14.71,    17.22
      236.0,      15.30,    14.25,    15.06,    14.68,    17.19
      237.0,      15.27,    14.23,    15.03,    14.66,    17.16
      238.0,      15.24,    14.21,    15.00,    14.63,    17.13
      239.0,      15.21,    14.19,    14.97,    14.60,    17.10
      240.0,      15.19,    14.17,    14.94,    14.58,    17.07
      241.0,      15.16,    14.14,    14.91,    14.55,    17.04
      242.0,      15.13,    14.12,    14.87,    14.53,    17.01
      243.0,      15.11,    14.10,    14.84,    14.50,    16.98
      244.0,      15.08,    14.08,    14.81,    14.47,    16.95
      245.0,      15.05,    14.06,    14.78,    14.45,    16.92
      246.0,      15.02,    14.03,    14.75,    14.42,    16.89
      247.0,      15.00,    14.01,    14.72,    14.40,    16.86
      248.0,      14.97,    13.99,    14.70,    14.37,    16.83
      249.0,      14.94,    13.97,    14.67,    14.35,    16.80
      250.0,      14.92,    13.95,    14.64,    14.32,    16.77
      251.0,      14.89,    13.92,    14.61,    14.30,    16.74
      252.0,      14.87,    13.90,    14.58,    14.27,    16.71
      253.0,      14.84,    13.88,    14.55,    14.25,    16.68
      254.0,      14.81,    13.86,    14.52,    14.22,    16.65
      255.0,      14.79,    13.84,    14.49,    14.20,    16.62
      256.0,      14.76,    13.82,    14.46,    14.17,    16.59
      257.0,      14.73,    13.80,    14.43,    14.15,    16.57
      258.0,      14.71,    13.77,    14.40,    14.12,    16.54
      259.0,      14.68,    13.75,    14.37,    14.10,    16.51
      260.0,      14.66,    13.73,    14.34,    14.07,    16.48
      261.0,      14.63,    13.71,    14.31,    14.05,    16.45
      262.0,      14.61,    13.69,    14.28,    14.02,    16.42
      263.0,      14.58,    13.67,    14.26,    14.00,    16.40
      264.0,      14.55,    13.65,    14.23,    13.98,    16.37
      265.0,      14.53,    13.63,    14.20,    13.95,    16.34
      266.0,      14.50,    13.61,    14.17,    13.93,    16.31
      267.0,      14.48,    13.58,    14.14,    13.90,    16.29
      268.0,      14.45,    13.56,    14.11,    13.88,    16.26
      269.0,      14.43,    13.54,    14.08,    13.86,    16.23
      270.0,      14.40,    13.52,    14.06,    13.83,    16.20
      271.0,      14.38,    13.50,    14.03,    13.81,    16.18
      272.0,      14.35,    13.48,    14.00,    13.78,    16.15
      273.0,      14.33,    13.46,    13.97,    13.76,    16.12
      274.0,      14.30,    13.44,    13.94,    13.74,    16.10
      275.0,      14.28,    13.42,    13.91,    13.71,    16.07
      276.0,      14.25,    13.40,    13.89,    13.69,    16.04
      277.0,      14.23,    13.38,    13.86,    13.67,    16.02
      278.0,      14.20,    13.36,    13.83,    13.64,    15.99
      279.0,      14.18,    13.34,    13.80,    13.62,    15.96
      280.0,      14.16,    13.32,    13.77,    13.60,    15.94
      281.0,      14.13,    13.29,    13.75,    13.57,    15.91
      282.0,      14.11,    13.27,    13.72,    13.55,    15.89
      283.0,      14.08,    13.25,    13.69,    13.53,    15.86
      284.0,      14.06,    13.23,    13.66,    13.50,    15.83
      285.0,      14.03,    13.21,    13.64,    13.48,    15.81
      286.0,      14.01,    13.19,    13.61,    13.46,    15.78
      287.0,      13.99,    13.17,    13.58,    13.43,    15.76
      288.0,      13.96,    13.15,    13.55,    13.41,    15.73
      289.0,      13.94,    13.13,    13.53,    13.39,    15.71
      290.0,      13.91,    13.11,    13.50,    13.37,    15.68
      291.0,      13.89,    13.09,    13.47,    13.34,    15.66
      292.0,      13.87,    13.07,    13.44,    13.32,    15.63
      293.0,      13.84,    13.05,    13.42,    13.30,    15.61
      294.0,      13.82,    13.03,    13.39,    13.28,    15.58
      295.0,      13.80,    13.01,    13.36,    13.25,    15.56
      296.0,      13.77,    12.99,    13.34,    13.23,    15.53
      297.0,      13.75,    12.97,    13.31,    13.21,    15.51
      298.0,      13.73,    12.95,    13.28,    13.19,    15.48
      299.0,      13.70,    12.93,    13.26,    13.16,    15.46
      300.0,      13.68,    12.91,    13.23,    13.14,    15.44
      301.0,      13.66,    12.89,    13.20,    13.12,    15.41
      302.0,      13.63,    12.87,    13.18,    13.10,    15.39
      303.0,      13.61,    12.85,    13.15,    13.07,    15.36
      304.0,      13.59,    12.83,    13.12,    13.05,    15.34
      305.0,      13.56,    12.81,    13.10,    13.03,    15.32
      306.0,      13.54,    12.79,    13.07,    13.01,    15.29
      307.0,      13.52,    12.77,    13.04,    12.99,    15.27
      308.0,      13.49,    12.76,    13.02,    12.96,    15.24
      309.0,      13.47,    12.74,    12.99,    12.94,    15.22
      310.0,      13.45,    12.72,    12.96,    12.92,    15.20
