Radius (km), Mean (m/s), NE (m/s), SE (m/s), SW (m/s), NW (m/s)
        0.0,       0.00,     0.00,     0.00,     0.00,     0.00
        1.0,       1.13,     1.11,     1.11,     1.11,     1.18
        2.0,       1.68,     1.67,     1.67,     1.67,     1.73
        3.0,       2.12,     2.11,     2.11,     2.11,     2.16
        4.0,       2.50,     2.50,     2.50,     2.50,     2.53
        5.0,       2.85,     2.84,     2.84,     2.84,     2.86
        6.0,       3.16,     3.16,     3.16,     3.16,     3.16
        7.0,       3.45,     3.46,     3.46,     3.46,     3.44
        8.0,       3.73,     3.74,     3.74,     3.74,     3.70
        9.0,       3.99,     4.00,     4.00,     4.00,     3.95
       10.0,       4.24,     4.26,     4.26,     4.26,     4.18
       11.0,       4.48,     4.50,     4.50,     4.50,     4.40
       12.0,       4.71,     4.73,     4.73,     4.73,     4.62
       13.0,       4.93,     4.96,     4.96,     4.96,     4.83
       14.0,       5.14,     5.18,     5.18,     5.18,     5.03
       15.0,       5.35,     5.39,     5.39,     5.39,     5.22
       16.0,       5.55,     5.60,     5.60,     5.60,     5.41
       17.0,       5.75,     5.80,     5.80,     5.80,     5.59
       18.0,       5.94,     6.00,     6.00,     6.00,     5.77
       19.0,       6.13,     6.19,     6.19,     6.19,     5.94
       20.0,       6.31,     6.38,     6.38,     6.38,     6.11
       21.0,       6.49,     6.56,     6.56,     6.56,     6.28
       22.0,       6.67,     6.74,     6.74,     6.74,     6.44
       23.0,       6.84,     6.92,     6.92,     6.92,     6.60
       24.0,       7.01,     7.09,     7.09,     7.09,     6.76
       25.0,       7.17,     7.26,     7.26,     7.26,     6.91
       26.0,       7.34,     7.43,     7.43,     7.43,     7.06
       27.0,       7.50,     7.60,     7.60,     7.60,     7.21
       28.0,       7.66,     7.76,     7.76,     7.76,     7.35
       29.0,       7.81,     7.92,     7.92,     7.92,     7.50
       30.0,       7.97,     8.08,     8.08,     8.08,     7.64
       31.0,       8.12,     8.23,     8.23,     8.23,     7.78
       32.0,       8.27,     8.39,     8.39,     8.39,     7.91
       33.0,       8.42,     8.54,     8.54,     8.54,     8.05
       34.0,       8.56,     8.69,     8.69,     8.69,     8.18
       35.0,       8.70,     8.84,     8.84,     8.84,     8.31
       36.0,       8.85,     8.98,     8.98,     8.98,     8.44
       37.0,       8.99,     9.13,     9.13,     9.13,     8.57
       38.0,       9.13,     9.27,     9.27,     9.27,     8.70
       39.0,       9.26,     9.41,     9.41,     9.41,     8.82
       40.0,       9.40,     9.55,     9.55,     9.55,     8.94
       41.0,       9.53,     9.69,     9.69,     9.69,     9.07
       42.0,       9.67,     9.83,     9.83,     9.83,     9.19
       43.0,       9.80,     9.96,     9.96,     9.96,     9.31
       44.0,       9.93,    10.10,    10.10,    10.10,     9.42
       45.0,      10.06,    10.23,    10.23,    10.23,     9.54
       46.0,      10.18,    10.36,    10.36,    10.36,     9.66
       47.0,      10.31,    10.49,    10.49,    10.49,     9.77
       48.0,      10.44,    10.62,    10.62,    10.62,     9.88
       49.0,      10.56,    10.75,    10.75,    10.75,    10.00
       50.0,      10.68,    10.88,    10.88,    10.88,    10.11
       51.0,      10.81,    11.00,    11.00,    11.00,    10.22
       52.0,      10.93,    11.13,    11.13,    11.13,    10.33
       53.0,      11.05,    11.25,    11.25,    11.25,    10.44
       54.0,      11.17,    11.38,    11.38,    11.38,    10.54
       55.0,      11.29,    11.50,    11.50,    11.50,    10.65
       56.0,      11.40,    11.62,    11.62,    11.62,    10.76
       57.0,      11.52,    11.74,    11.74,    11.74,    10.86
       58.0,      11.64,    11.86,    11.86,    11.86,    10.97
       59.0,      11.75,    11.98,    11.98,    11.98,    11.07
       60.0,      11.87,    12.10,    12.10,    12.10,    11.17
       61.0,      11.98,    12.21,    12.21,    12.21,    11.27
       62.0,      12.09,    12.33,    12.33,    12.33,    11.37
       63.0,      12.20,    12.45,    12.45,    12.45,    11.47
       64.0,      12.31,    12.56,    12.56,    12.56,    11.57
       65.0,      12.42,    12.67,    12.67,    12.67,    11.67
       66.0,      12.53,    12.79,    12.79,    12.79,    11.77
       67.0,      12.64,    12.90,    12.90,    12.90,    11.87
       68.0,      12.75,    13.01,    13.01,    13.01,    11.97
       69.0,      12.86,    13.12,    13.12,    13.12,    12.06
       70.0,      12.96,    13.23,    13.23,    13.23,    12.16
       71.0,      13.07,    13.34,    13.34,    13.34,    12.25
       72.0,      13.18,    13.45,    13.45,    13.45,    12.35
       73.0,      13.28,    13.56,    13.56,    13.56,    12.44
       74.0,      13.39,    13.67,    13.67,    13.67,    12.53
       75.0,      13.49,    13.78,    13.78,    13.78,    12.63
       76.0,      13.59,    13.88,    13.88,    13.88,    12.72
       77.0,      13.69,    13.99,    13.99,    13.99,    12.81
       78.0,      13.80,    14.10,    14.10,    14.10,    12.90
       79.0,      13.90,    14.20,    14.20,    14.20,    12.99
       80.0,      14.00,    14.31,    14.31,    14.31,    13.08
       81.0,      14.10,    14.41,    14.41,    14.41,    13.17
       82.0,      14.20,    14.51,    14.51,    14.51,    13.26
       83.0,      14.30,    14.62,    14.62,    14.62,    13.35
       84.0,      14.40,    14.72,    14.72,    14.72,    13.44
       85.0,      14.50,    14.82,    14.82,    14.82,    13.52
       86.0,      14.59,    14.92,    14.92,    14.92,    13.61
       87.0,      14.69,    15.02,    15.02,    15.02,    13.70
       88.0,      14.79,    15.12,    15.12,    15.12,    13.78
       89.0,      14.88,    15.22,    15.22,    15.22,    13.87
       90.0,      14.98,    15.32,    15.32,    15.32,    13.95
       91.0,      15.08,    15.42,    15.42,    15.42,    14.04
       92.0,      15.17,    15.52,    15.52,    15.52,    14.12
       93.0,      15.26,    15.62,    15.62,    15.62,    14.21
       94.0,      15.36,    15.71,    15.71,    15.71,    14.29
       95.0,      15.45,    15.81,    15.81,    15.81,    14.37
       96.0,      15.55,    15.91,    15.91,    15.91,    14.46
       97.0,      15.64,    16.01,    16.01,    16.01,    14.54
       98.0,      15.73,    16.10,    16.10,    16.10,    14.62
       99.0,      15.82,    16.20,    16.20,    16.20,    14.70
      100.0,      15.92,    16.29,    16.29,    16.29,    14.79
      101.0,      16.01,    16.39,    16.39,    16.39,    14.87
      102.0,      16.10,    16.48,    16.48,    16.48,    14.95
      103.0,      16.19,    16.57,    16.57,    16.57,    15.03
      104.0,      16.28,    16.67,    16.67,    16.67,    15.11
      105.0,      16.37,    16.76,    16.76,    16.76,    15.19
      106.0,      16.46,    16.85,    16.85,    16.85,    15.27
      107.0,      16.55,    16.95,    16.95,    16.95,    15.34
      108.0,      16.64,    17.04,    17.04,    17.04,    15.42
      109.0,      16.72,    17.13,    17.13,    17.13,    15.50
      110.0,      16.81,    17.22,    17.22,    17.22,    15.58
      111.0,      16.90,    17.31,    17.31,    17.31,    15.66
      112.0,      16.99,    17.40,    17.40,    17.40,    15.73
      113.0,      17.07,    17.49,    17.49,    17.49,    15.81
      114.0,      17.16,    17.58,    17.58,    17.58,    15.89
      115.0,      17.25,    17.67,    17.67,    17.67,    15.96
      116.0,      17.33,    17.76,    17.76,    17.76,    16.04
      117.0,      17.42,    17.85,    17.85,    17.85,    16.12
      118.0,      17.50,    17.94,    17.94,    17.94,    16.19
      119.0,      17.59,    18.03,    18.03,    18.03,    16.27
      120.0,      17.67,    18.12,    18.12,    18.12,    16.34
      121.0,      17.76,    18.21,    18.21,    18.21,    16.42
      122.0,      17.84,    18.29,    18.29,    18.29,    16.49
      123.0,      17.93,    18.38,    18.38,    18.38,    16.56
      124.0,      18.01,    18.47,    18.47,    18.47,    16.64
      125.0,      18.09,    18.55,    18.55,    18.55,    16.71
      126.0,      18.18,    18.64,    18.64,    18.64,    16.78
      127.0,      18.26,    18.73,    18.73,    18.73,    16.86
      128.0,      18.34,    18.81,    18.81,    18.81,    16.93
      129.0,      18.42,    18.90,    18.90,    18.90,    17.00
      130.0,      18.51,    18.98,    18.98,    18.98,    17.07
      131.0,      18.59,    19.07,    19.07,    19.07,    17.15
      132.0,      18.67,    19.15,    19.15,    19.15,    17.22
      133.0,      18.75,    19.24,    19.24,    19.24,    17.29
      134.0,      18.83,    19.32,    19.32,    19.32,    17.36
      135.0,      18.91,    19.41,    19.41,    19.41,    17.43
      136.0,      18.99,    19.49,    19.49,    19.49,    17.50
      137.0,      19.07,    19.57,    19.57,    19.57,    17.57
      138.0,      19.15,    19.66,    19.66,    19.66,    17.64
      139.0,      19.23,    19.74,    19.74,    19.74,    17.71
      140.0,      19.31,    19.82,    19.82,    19.82,    17.78
      141.0,      19.39,    19.90,    19.90,    19.90,    17.85
      142.0,      19.47,    19.99,    19.99,    19.99,    17.92
      143.0,      19.55,    20.07,    20.07,    20.07,    17.99
      144.0,      19.63,    20.15,    20.15,    20.15,    18.06
      145.0,      19.71,    20.23,    20.23,    20.23,    18.13
      146.0,      19.78,    20.31,    20.31,    20.31,    18.20
      147.0,      19.86,    20.39,    20.39,    20.39,    18.27
      148.0,      19.94,    20.47,    20.47,    20.47,    18.33
      149.0,      20.02,    20.55,    20.55,    20.55,    18.40
      150.0,      20.09,    20.63,    20.63,    20.63,    18.47
      151.0,      20.17,    20.72,    20.72,    20.72,    18.54
      152.0,      20.25,    20.79,    20.79,    20.79,    18.60
      153.0,      20.32,    20.87,    20.87,    20.87,    18.67
      154.0,      20.40,    20.96,    20.96,    20.96,    18.74
      155.0,      20.49,    21.05,    21.05,    21.05,    18.81
      156.0,      20.58,    21.15,    21.14,    21.15,    18.90
      157.0,      20.70,    21.27,    21.26,    21.26,    19.00
      158.0,      20.83,    21.42,    21.38,    21.40,    19.12
      159.0,      20.97,    21.58,    21.52,    21.54,    19.25
      160.0,      21.12,    21.75,    21.65,    21.69,    19.38
      161.0,      21.26,    21.91,    21.78,    21.82,    19.51
      162.0,      21.37,    22.05,    21.89,    21.94,    19.62
      163.0,      21.45,    22.14,    21.97,    22.02,    19.69
      164.0,      21.49,    22.17,    22.01,    22.06,    19.72
      165.0,      21.48,    22.14,    22.02,    22.05,    19.70
      166.0,      21.42,    22.04,    21.98,    22.00,    19.64
      167.0,      21.31,    21.89,    21.92,    21.91,    19.53
      168.0,      21.17,    21.69,    21.83,    21.79,    19.39
      169.0,      21.01,    21.46,    21.72,    21.65,    19.22
      170.0,      20.84,    21.22,    21.60,    21.50,    19.05
      171.0,      20.67,    20.98,    21.49,    21.35,    18.87
      172.0,      20.50,    20.74,    21.38,    21.21,    18.70
      173.0,      20.35,    20.52,    21.27,    21.07,    18.54
      174.0,      20.20,    20.31,    21.17,    20.94,    18.39
      175.0,      20.07,    20.12,    21.08,    20.82,    18.25
      176.0,      19.94,    19.93,    20.99,    20.71,    18.11
      177.0,      19.81,    19.75,    20.90,    20.60,    17.98
      178.0,      19.69,    19.58,    20.82,    20.49,    17.86
      179.0,      19.57,    19.42,    20.74,    20.39,    17.74
      180.0,      19.45,    19.26,    20.66,    20.28,    17.62
      181.0,      19.34,    19.10,    20.58,    20.19,    17.51
      182.0,      19.24,    18.95,    20.50,    20.09,    17.40
      183.0,      19.13,    18.81,    20.43,    20.00,    17.29
      184.0,      19.03,    18.67,    20.36,    19.91,    17.19
      185.0,      18.94,    18.54,    20.29,    19.83,    17.09
      186.0,      18.84,    18.41,    20.23,    19.74,    17.00
      187.0,      18.75,    18.28,    20.16,    19.66,    16.90
      188.0,      18.67,    18.16,    20.10,    19.58,    16.82
      189.0,      18.58,    18.05,    20.04,    19.51,    16.73
      190.0,      18.50,    17.93,    19.98,    19.43,    16.65
      191.0,      18.42,    17.83,    19.92,    19.36,    16.57
      192.0,      18.34,    17.72,    19.86,    19.29,    16.49
      193.0,      18.27,    17.62,    19.80,    19.22,    16.41
      194.0,      18.19,    17.52,    19.75,    19.16,    16.34
      195.0,      18.12,    17.43,    19.70,    19.09,    16.27
      196.0,      18.05,    17.33,    19.65,    19.03,    16.20
      197.0,      17.99,    17.25,    19.60,    18.97,    16.13
      198.0,      17.92,    17.16,    19.55,    18.91,    16.07
      199.0,      17.86,    17.08,    19.50,    18.86,    16.00
      200.0,      17.80,    17.00,    19.45,    18.80,    15.94
      201.0,      17.74,    16.92,    19.41,    18.75,    15.88
      202.0,      17.68,    16.84,    19.36,    18.69,    15.83
      203.0,      17.63,    16.77,    19.32,    18.64,    15.77
      204.0,      17.57,    16.70,    19.28,    18.59,    15.72
      205.0,      17.52,    16.63,    19.24,    18.54,    15.66
      206.0,      17.47,    16.56,    19.19,    18.50,    15.61
      207.0,      17.42,    16.50,    19.15,    18.45,    15.56
      208.0,      17.37,    16.43,    19.12,    18.40,    15.52
      209.0,      17.32,    16.37,    19.08,    18.36,    15.47
      210.0,      17.27,    16.31,    19.04,    18.32,    15.42
      211.0,      17.23,    16.26,    19.00,    18.27,    15.38
      212.0,      17.18,    16.20,    18.97,    18.23,    15.33
      213.0,      17.14,    16.15,    18.93,    18.19,    15.29
      214.0,      17.10,    16.09,    18.90,    18.15,    15.25
      215.0,      17.06,    16.04,    18.86,    18.11,    15.21
      216.0,      17.02,    15.99,    18.83,    18.08,    15.17
      217.0,      16.98,    15.95,    18.80,    18.04,    15.13
      218.0,      16.94,    15.90,    18.76,    18.00,    15.10
      219.0,      16.90,    15.85,    18.73,    17.97,    15.06
      220.0,      16.87,    15.81,    18.70,    17.93,    15.03
      221.0,      16.83,    15.76,    18.67,    17.90,    14.99
      222.0,      16.80,    15.72,    18.64,    17.87,    14.96
      223.0,      16.76,    15.68,    18.61,    17.83,    14.92
      224.0,      16.73,    15.64,    18.58,    17.80,    14.89
      225.0,      16.70,    15.60,    18.55,    17.77,    14.86
      226.0,      16.66,    15.56,    18.52,    17.74,    14.83
      227.0,      16.63,    15.53,    18.49,    17.71,    14.80
      228.0,      16.60,    15.49,    18.47,    17.68,    14.77
      229.0,      16.57,    15.45,    18.44,    17.65,    14.74
      230.0,      16.54,    15.42,    18.41,    17.62,    14.71
      231.0,      16.51,    15.38,    18.39,    17.59,    14.68
      232.0,      16.48,    15.35,    18.36,    17.56,    14.66
      233.0,      16.45,    15.32,    18.33,    17.53,    14.63
      234.0,      16.43,    15.29,    18.31,    17.51,    14.60
      235.0,      16.40,    15.26,    18.28,    17.48,    14.58
      236.0,      16.37,    15.23,    18.26,    17.45,    14.55
      237.0,      16.35,    15.20,    18.23,    17.43,    14.53
      238.0,      16.32,    15.17,    18.21,    17.40,    14.50
      239.0,      16.29,    15.14,    18.18,    17.38,    14.48
      240.0,      16.27,    15.11,    18.16,    17.35,    14.45
      241.0,      16.24,    15.08,    18.14,    17.33,    14.43
      242.0,      16.22,    15.05,    18.11,    17.30,    14.41
      243.0,      16.20,    15.03,    18.09,    17.28,    14.39
      244.0,      16.17,    15.00,    18.07,    17.25,    14.36
      245.0,      16.15,    14.98,    18.04,    17.23,    14.34
      246.0,      16.12,    14.95,    18.02,    17.21,    14.32
      247.0,      16.10,    14.93,    18.00,    17.18,    14.30
      248.0,      16.08,    14.90,    17.98,    17.16,    14.28
      249.0,      16.06,    14.88,    17.95,    17.14,    14.26
      250.0,      16.03,    14.85,    17.93,    17.12,    14.24
      251.0,      16.01,    14.83,    17.91,    17.09,    14.22
      252.0,      15.99,    14.81,    17.89,    17.07,    14.20
      253.0,      15.97,    14.79,    17.87,    17.05,    14.18
      254.0,      15.95,    14.76,    17.85,    17.03,    14.16
      255.0,      15.93,    14.74,    17.83,    17.01,    14.14
      256.0,      15.91,    14.72,    17.80,    16.99,    14.12
      257.0,      15.89,    14.70,    17.78,    16.96,    14.10
      258.0,      15.87,    14.68,    17.76,    16.94,    14.08
      259.0,      15.85,    14.66,    17.74,    16.92,    14.06
      260.0,      15.83,    14.64,    17.72,    16.90,    14.04
      261.0,      15.81,    14.62,    17.70,    16.88,    14.03
      262.0,      15.79,    14.60,    17.68,    16.86,    14.01
      263.0,      15.77,    14.58,    17.66,    16.84,    13.99
      264.0,      15.75,    14.56,    17.64,    16.82,    13.97
      265.0,      15.73,    14.54,    17.62,    16.80,    13.96
      266.0,      15.71,    14.52,    17.60,    16.78,    13.94
      267.0,      15.69,    14.50,    17.58,    16.76,    13.92
      268.0,      15.67,    14.48,    17.56,    16.74,    13.90
      269.0,      15.65,    14.46,    17.54,    16.73,    13.89
      270.0,      15.64,    14.44,    17.52,    16.71,    13.87
      271.0,      15.62,    14.42,    17.50,    16.69,    13.85
      272.0,      15.60,    14.41,    17.49,    16.67,    13.84
      273.0,      15.58,    14.39,    17.47,    16.65,    13.82
      274.0,      15.56,    14.37,    17.45,    16.63,    13.80
      275.0,      15.55,    14.35,    17.43,    16.61,    13.79
      276.0,      15.53,    14.34,    17.41,    16.59,    13.77
      277.0,      15.51,    14.32,    17.39,    16.58,    13.76
      278.0,      15.49,    14.30,    17.37,    16.56,    13.74
      279.0,      15.48,    14.28,    17.35,    16.54,    13.73
      280.0,      15.46,    14.27,    17.33,    16.52,    13.71
      281.0,      15.44,    14.25,    17.32,    16.50,    13.69
      282.0,      15.42,    14.23,    17.30,    16.48,    13.68
      283.0,      15.41,    14.22,    17.28,    16.47,    13.66
      284.0,      15.39,    14.20,    17.26,    16.45,    13.65
      285.0,      15.37,    14.18,    17.24,    16.43,    13.63
      286.0,      15.36,    14.17,    17.22,    16.41,    13.62
      287.0,      15.34,    14.15,    17.21,    16.40,    13.60
      288.0,      15.32,    14.14,    17.19,    16.38,    13.59
      289.0,      15.31,    14.12,    17.17,    16.36,    13.57
      290.0,      15.29,    14.10,    17.15,    16.34,    13.56
      291.0,      15.27,    14.09,    17.13,    16.33,    13.54
      292.0,      15.26,    14.07,    17.12,    16.31,    13.53
      293.0,      15.24,    14.06,    17.10,    16.29,    13.51
      294.0,      15.22,    14.04,    17.08,    16.27,    13.50
      295.0,      15.21,    14.02,    17.06,    16.26,    13.48
      296.0,      15.19,    14.01,    17.05,    16.24,    13.47
      297.0,      15.17,    13.99,    17.03,    16.22,    13.46
      298.0,      15.16,    13.98,    17.01,    16.21,    13.44
      299.0,      15.14,    13.96,    16.99,    16.19,    13.43
      300.0,      15.13,    13.95,    16.97,    16.17,    13.41
      301.0,      15.11,    13.93,    16.96,    16.15,    13.40
      302.0,      15.10,    13.92,    16.94,    16.14,    13.38
      303.0,      15.08,    13.90,    16.92,    16.12,    13.37
      304.0,      15.06,    13.89,    16.90,    16.10,    13.36
      305.0,      15.05,    13.87,    16.89,    16.09,    13.34
      306.0,      15.03,    13.86,    16.87,    16.07,    13.33
      307.0,      15.02,    13.84,    16.85,    16.05,    13.31
      308.0,      15.00,    13.83,    16.84,    16.04,    13.30
      309.0,      14.99,    13.81,    16.82,    16.02,    13.29
      310.0,      14.97,    13.80,    16.80,    16.00,    13.27
