Radius (km), Mean (m/s), NE (m/s), SE (m/s), SW (m/s), NW (m/s)
        0.0,       0.00,     0.00,     0.00,     0.00,     0.00
        1.0,       1.63,     1.59,     1.69,     1.69,     1.54
        2.0,       2.69,     2.66,     2.75,     2.75,     2.60
        3.0,       3.61,     3.58,     3.66,     3.66,     3.54
        4.0,       4.44,     4.43,     4.48,     4.48,     4.40
        5.0,       5.22,     5.22,     5.23,     5.23,     5.20
        6.0,       5.96,     5.97,     5.95,     5.95,     5.97
        7.0,       6.66,     6.69,     6.63,     6.63,     6.71
        8.0,       7.34,     7.39,     7.28,     7.28,     7.42
        9.0,       7.99,     8.06,     7.90,     7.90,     8.11
       10.0,       8.63,     8.71,     8.51,     8.51,     8.79
       11.0,       9.24,     9.34,     9.09,     9.09,     9.44
       12.0,       9.84,     9.96,     9.67,     9.67,    10.09
       13.0,      10.43,    10.57,    10.22,    10.22,    10.72
       14.0,      11.01,    11.16,    10.77,    10.77,    11.33
       15.0,      11.57,    11.74,    11.30,    11.30,    11.94
       16.0,      12.13,    12.32,    11.82,    11.82,    12.54
       17.0,      12.67,    12.88,    12.34,    12.34,    13.13
       18.0,      13.21,    13.43,    12.84,    12.84,    13.70
       19.0,      13.73,    13.98,    13.34,    13.34,    14.28
       20.0,      14.25,    14.52,    13.83,    13.83,    14.84
       21.0,      14.77,    15.05,    14.31,    14.31,    15.40
       22.0,      15.27,    15.58,    14.78,    14.78,    15.95
       23.0,      15.77,    16.10,    15.25,    15.25,    16.50
       24.0,      16.27,    16.61,    15.71,    15.71,    17.03
       25.0,      16.75,    17.12,    16.16,    16.16,    17.57
       26.0,      17.24,    17.62,    16.62,    16.62,    18.10
       27.0,      17.71,    18.12,    17.06,    17.06,    18.62
       28.0,      18.19,    18.61,    17.50,    17.50,    19.14
       29.0,      18.66,    19.10,    17.94,    17.94,    19.65
       30.0,      19.12,    19.58,    18.37,    18.37,    20.17
       31.0,      19.58,    20.06,    18.79,    18.79,    20.67
       32.0,      20.04,    20.54,    19.22,    19.22,    21.17
       33.0,      20.49,    21.01,    19.64,    19.64,    21.67
       34.0,      20.94,    21.48,    20.05,    20.05,    22.17
       35.0,      21.38,    21.94,    20.46,    20.46,    22.66
       36.0,      21.82,    22.40,    20.87,    20.87,    23.15
       37.0,      22.26,    22.86,    21.27,    21.27,    23.63
       38.0,      22.69,    23.31,    21.68,    21.68,    24.11
       39.0,      23.13,    23.76,    22.07,    22.07,    24.59
       40.0,      23.55,    24.21,    22.47,    22.47,    25.07
       41.0,      23.99,    24.67,    22.87,    22.86,    25.55
       42.0,      24.44,    25.16,    23.29,    23.27,    26.06
       43.0,      24.94,    25.69,    23.74,    23.70,    26.62
       44.0,      25.48,    26.29,    24.25,    24.16,    27.24
       45.0,      26.09,    26.96,    24.80,    24.66,    27.94
       46.0,      26.74,    27.68,    25.39,    25.20,    28.69
       47.0,      27.42,    28.42,    26.01,    25.76,    29.47
       48.0,      28.08,    29.15,    26.61,    26.33,    30.23
       49.0,      28.70,    29.82,    27.17,    26.87,    30.94
       50.0,      29.23,    30.39,    27.66,    27.35,    31.54
       51.0,      29.65,    30.81,    28.04,    27.75,    32.00
       52.0,      29.93,    31.08,    28.29,    28.05,    32.30
       53.0,      30.07,    31.19,    28.43,    28.24,    32.43
       54.0,      30.08,    31.15,    28.45,    28.33,    32.41
       55.0,      29.98,    30.98,    28.37,    28.32,    32.26
       56.0,      29.80,    30.73,    28.21,    28.24,    32.01
       57.0,      29.56,    30.42,    28.01,    28.12,    31.71
       58.0,      29.30,    30.08,    27.79,    27.96,    31.37
       59.0,      29.04,    29.75,    27.56,    27.80,    31.04
       60.0,      28.78,    29.43,    27.35,    27.64,    30.72
       61.0,      28.55,    29.13,    27.15,    27.49,    30.41
       62.0,      28.32,    28.84,    26.95,    27.35,    30.13
       63.0,      28.10,    28.56,    26.77,    27.22,    29.85
       64.0,      27.89,    28.30,    26.59,    27.09,    29.59
       65.0,      27.69,    28.04,    26.42,    26.97,    29.33
       66.0,      27.50,    27.80,    26.25,    26.84,    29.09
       67.0,      27.30,    27.56,    26.09,    26.72,    28.85
       68.0,      27.12,    27.33,    25.93,    26.61,    28.62
       69.0,      26.94,    27.10,    25.78,    26.49,    28.39
       70.0,      26.77,    26.89,    25.63,    26.38,    28.17
       71.0,      26.60,    26.68,    25.49,    26.27,    27.96
       72.0,      26.44,    26.47,    25.35,    26.16,    27.76
       73.0,      26.28,    26.28,    25.21,    26.05,    27.56
       74.0,      26.12,    26.09,    25.08,    25.95,    27.37
       75.0,      25.97,    25.91,    24.96,    25.85,    27.19
       76.0,      25.83,    25.73,    24.83,    25.75,    27.01
       77.0,      25.69,    25.56,    24.71,    25.65,    26.83
       78.0,      25.55,    25.39,    24.59,    25.56,    26.67
       79.0,      25.42,    25.23,    24.48,    25.46,    26.50
       80.0,      25.29,    25.07,    24.37,    25.37,    26.35
       81.0,      25.16,    24.92,    24.26,    25.28,    26.19
       82.0,      25.04,    24.77,    24.15,    25.19,    26.04
       83.0,      24.92,    24.63,    24.05,    25.11,    25.90
       84.0,      24.81,    24.49,    23.95,    25.02,    25.76
       85.0,      24.69,    24.36,    23.85,    24.94,    25.62
       86.0,      24.58,    24.23,    23.76,    24.85,    25.49
       87.0,      24.48,    24.10,    23.67,    24.77,    25.36
       88.0,      24.37,    23.98,    23.58,    24.69,    25.24
       89.0,      24.27,    23.86,    23.49,    24.61,    25.12
       90.0,      24.17,    23.75,    23.40,    24.54,    25.00
       91.0,      24.08,    23.64,    23.32,    24.46,    24.88
       92.0,      23.98,    23.53,    23.24,    24.39,    24.77
       93.0,      23.89,    23.42,    23.16,    24.31,    24.66
       94.0,      23.80,    23.32,    23.08,    24.24,    24.56
       95.0,      23.71,    23.22,    23.00,    24.17,    24.46
       96.0,      23.63,    23.12,    22.93,    24.10,    24.36
       97.0,      23.54,    23.03,    22.86,    24.03,    24.26
       98.0,      23.46,    22.94,    22.79,    23.96,    24.16
       99.0,      23.38,    22.85,    22.72,    23.89,    24.07
      100.0,      23.30,    22.76,    22.65,    23.82,    23.98
      101.0,      23.23,    22.68,    22.58,    23.76,    23.89
      102.0,      23.15,    22.59,    22.52,    23.69,    23.81
      103.0,      23.08,    22.51,    22.45,    23.63,    23.72
      104.0,      23.01,    22.43,    22.39,    23.57,    23.64
      105.0,      22.94,    22.36,    22.33,    23.50,    23.56
      106.0,      22.87,    22.28,    22.27,    23.44,    23.49
      107.0,      22.80,    22.21,    22.21,    23.38,    23.41
      108.0,      22.74,    22.14,    22.15,    23.32,    23.33
      109.0,      22.67,    22.07,    22.09,    23.26,    23.26
      110.0,      22.61,    22.00,    22.04,    23.20,    23.19
      111.0,      22.55,    21.94,    21.98,    23.14,    23.12
      112.0,      22.48,    21.87,    21.93,    23.08,    23.05
      113.0,      22.42,    21.81,    21.88,    23.03,    22.99
      114.0,      22.37,    21.75,    21.82,    22.97,    22.92
      115.0,      22.31,    21.69,    21.77,    22.91,    22.86
      116.0,      22.25,    21.63,    21.72,    22.86,    22.80
      117.0,      22.19,    21.57,    21.67,    22.80,    22.73
      118.0,      22.14,    21.51,    21.62,    22.75,    22.67
      119.0,      22.09,    21.46,    21.58,    22.69,    22.62
      120.0,      22.03,    21.40,    21.53,    22.64,    22.56
      121.0,      21.98,    21.35,    21.48,    22.59,    22.50
      122.0,      21.93,    21.30,    21.44,    22.53,    22.45
      123.0,      21.88,    21.25,    21.39,    22.48,    22.39
      124.0,      21.83,    21.20,    21.35,    22.43,    22.34
      125.0,      21.78,    21.15,    21.30,    22.38,    22.28
      126.0,      21.73,    21.10,    21.26,    22.33,    22.23
      127.0,      21.68,    21.05,    21.22,    22.27,    22.18
      128.0,      21.63,    21.00,    21.17,    22.22,    22.13
      129.0,      21.59,    20.96,    21.13,    22.17,    22.08
      130.0,      21.54,    20.91,    21.09,    22.12,    22.03
      131.0,      21.49,    20.87,    21.05,    22.07,    21.99
      132.0,      21.45,    20.83,    21.01,    22.03,    21.94
      133.0,      21.40,    20.78,    20.97,    21.98,    21.89
      134.0,      21.36,    20.74,    20.93,    21.93,    21.85
      135.0,      21.32,    20.70,    20.89,    21.88,    21.80
      136.0,      21.27,    20.66,    20.85,    21.83,    21.76
      137.0,      21.23,    20.62,    20.81,    21.79,    21.71
      138.0,      21.19,    20.58,    20.77,    21.74,    21.67
      139.0,      21.15,    20.54,    20.74,    21.69,    21.63
      140.0,      21.11,    20.50,    20.70,    21.64,    21.58
      141.0,      21.07,    20.46,    20.66,    21.60,    21.54
      142.0,      21.03,    20.42,    20.63,    21.55,    21.50
      143.0,      20.99,    20.39,    20.59,    21.51,    21.46
      144.0,      20.95,    20.35,    20.55,    21.46,    21.42
      145.0,      20.91,    20.31,    20.52,    21.41,    21.38
      146.0,      20.87,    20.28,    20.48,    21.37,    21.34
      147.0,      20.83,    20.24,    20.45,    21.32,    21.30
      148.0,      20.79,    20.21,    20.41,    21.28,    21.26
      149.0,      20.75,    20.17,    20.38,    21.24,    21.22
      150.0,      20.72,    20.14,    20.34,    21.19,    21.19
      151.0,      20.68,    20.10,    20.31,    21.15,    21.15
      152.0,      20.64,    20.07,    20.28,    21.10,    21.11
      153.0,      20.60,    20.04,    20.24,    21.06,    21.08
      154.0,      20.57,    20.00,    20.21,    21.02,    21.04
      155.0,      20.53,    19.97,    20.18,    20.97,    21.00
      156.0,      20.50,    19.94,    20.14,    20.93,    20.97
      157.0,      20.46,    19.91,    20.11,    20.89,    20.93
      158.0,      20.42,    19.88,    20.08,    20.84,    20.90
      159.0,      20.39,    19.85,    20.05,    20.80,    20.86
      160.0,      20.35,    19.81,    20.01,    20.76,    20.83
      161.0,      20.32,    19.78,    19.98,    20.72,    20.79
      162.0,      20.28,    19.75,    19.95,    20.67,    20.76
      163.0,      20.25,    19.72,    19.92,    20.63,    20.73
      164.0,      20.22,    19.69,    19.89,    20.59,    20.69
      165.0,      20.18,    19.66,    19.86,    20.55,    20.66
      166.0,      20.15,    19.63,    19.83,    20.51,    20.62
      167.0,      20.11,    19.60,    19.79,    20.47,    20.59
      168.0,      20.08,    19.57,    19.76,    20.42,    20.56
      169.0,      20.05,    19.54,    19.73,    20.38,    20.53
      170.0,      20.01,    19.52,    19.70,    20.34,    20.49
      171.0,      19.98,    19.49,    19.67,    20.30,    20.46
      172.0,      19.95,    19.46,    19.64,    20.26,    20.43
      173.0,      19.92,    19.43,    19.61,    20.22,    20.40
      174.0,      19.88,    19.40,    19.58,    20.18,    20.37
      175.0,      19.85,    19.37,    19.55,    20.14,    20.34
      176.0,      19.82,    19.35,    19.52,    20.10,    20.30
      177.0,      19.79,    19.32,    19.49,    20.06,    20.27
      178.0,      19.75,    19.29,    19.46,    20.02,    20.24
      179.0,      19.72,    19.26,    19.43,    19.98,    20.21
      180.0,      19.69,    19.24,    19.41,    19.94,    20.18
      181.0,      19.66,    19.21,    19.38,    19.90,    20.15
      182.0,      19.63,    19.18,    19.35,    19.86,    20.12
      183.0,      19.60,    19.16,    19.32,    19.82,    20.09
      184.0,      19.57,    19.13,    19.29,    19.78,    20.06
      185.0,      19.53,    19.10,    19.26,    19.74,    20.03
      186.0,      19.50,    19.08,    19.23,    19.71,    20.00
      187.0,      19.47,    19.05,    19.20,    19.67,    19.97
      188.0,      19.44,    19.02,    19.18,    19.63,    19.94
      189.0,      19.41,    19.00,    19.15,    19.59,    19.91
      190.0,      19.38,    18.97,    19.12,    19.55,    19.88
      191.0,      19.35,    18.95,    19.09,    19.51,    19.85
      192.0,      19.32,    18.92,    19.06,    19.47,    19.82
      193.0,      19.29,    18.89,    19.03,    19.44,    19.79
      194.0,      19.26,    18.87,    19.01,    19.40,    19.77
      195.0,      19.23,    18.84,    18.98,    19.36,    19.74
      196.0,      19.20,    18.82,    18.95,    19.32,    19.71
      197.0,      19.17,    18.79,    18.92,    19.28,    19.68
      198.0,      19.14,    18.77,    18.90,    19.25,    19.65
      199.0,      19.11,    18.74,    18.87,    19.21,    19.62
      200.0,      19.08,    18.72,    18.84,    19.17,    19.59
      201.0,      19.05,    18.69,    18.81,    19.13,    19.57
      202.0,      19.02,    18.67,    18.79,    19.10,    19.54
      203.0,      18.99,    18.64,    18.76,    19.06,    19.51
      204.0,      18.96,    18.62,    18.73,    19.02,    19.48
      205.0,      18.93,    18.59,    18.70,    18.98,    19.45
      206.0,      18.90,    18.57,    18.68,    18.95,    19.43
      207.0,      18.88,    18.54,    18.65,    18.91,    19.40
      208.0,      18.85,    18.52,    18.62,    18.87,    19.37
      209.0,      18.82,    18.49,    18.60,    18.84,    19.34
      210.0,      18.79,    18.47,    18.57,    18.80,    19.31
      211.0,      18.76,    18.45,    18.54,    18.76,    19.29
      212.0,      18.73,    18.42,    18.52,    18.73,    19.26
      213.0,      18.70,    18.40,    18.49,    18.69,    19.23
      214.0,      18.67,    18.37,    18.46,    18.65,    19.21
      215.0,      18.64,    18.35,    18.44,    18.62,    19.18
      216.0,      18.62,    18.32,    18.41,    18.58,    19.15
      217.0,      18.59,    18.30,    18.38,    18.55,    19.12
      218.0,      18.56,    18.28,    18.36,    18.51,    19.10
      219.0,      18.53,    18.25,    18.33,    18.47,    19.07
      220.0,      18.50,    18.23,    18.30,    18.44,    19.04
      221.0,      18.48,    18.21,    18.28,    18.40,    19.02
      222.0,      18.45,    18.18,    18.25,    18.37,    18.99
      223.0,      18.42,    18.16,    18.23,    18.33,    18.96
      224.0,      18.39,    18.13,    18.20,    18.29,    18.94
      225.0,      18.36,    18.11,    18.17,    18.26,    18.91
      226.0,      18.34,    18.09,    18.15,    18.22,    18.88
      227.0,      18.31,    18.06,    18.12,    18.19,    18.86
      228.0,      18.28,    18.04,    18.10,    18.15,    18.83
      229.0,      18.25,    18.02,    18.07,    18.12,    18.80
      230.0,      18.22,    17.99,    18.04,    18.08,    18.78
      231.0,      18.20,    17.97,    18.02,    18.05,    18.75
      232.0,      18.17,    17.95,    17.99,    18.01,    18.72
      233.0,      18.14,    17.92,    17.97,    17.98,    18.70
      234.0,      18.11,    17.90,    17.94,    17.94,    18.67
      235.0,      18.09,    17.88,    17.92,    17.91,    18.65
      236.0,      18.06,    17.85,    17.89,    17.87,    18.62
      237.0,      18.03,    17.83,    17.86,    17.84,    18.59
      238.0,      18.00,    17.81,    17.84,    17.80,    18.57
      239.0,      17.98,    17.79,    17.81,    17.77,    18.54
      240.0,      17.95,    17.76,    17.79,    17.74,    18.52
      241.0,      17.92,    17.74,    17.76,    17.70,    18.49
      242.0,      17.90,    17.72,    17.74,    17.67,    18.46
      243.0,      17.87,    17.69,    17.71,    17.63,    18.44
      244.0,      17.84,    17.67,    17.69,    17.60,    18.41
      245.0,      17.82,    17.65,    17.66,    17.56,    18.39
      246.0,      17.79,    17.63,    17.64,    17.53,    18.36
      247.0,      17.76,    17.60,    17.61,    17.50,    18.34
      248.0,      17.74,    17.58,    17.59,    17.46,    18.31
      249.0,      17.71,    17.56,    17.56,    17.43,    18.28
      250.0,      17.68,    17.54,    17.54,    17.40,    18.26
      251.0,      17.66,    17.51,    17.51,    17.36,    18.23
      252.0,      17.63,    17.49,    17.49,    17.33,    18.21
      253.0,      17.60,    17.47,    17.46,    17.30,    18.18
      254.0,      17.58,    17.45,    17.44,    17.26,    18.16
      255.0,      17.55,    17.42,    17.41,    17.23,    18.13
      256.0,      17.52,    17.40,    17.39,    17.20,    18.11
      257.0,      17.50,    17.38,    17.36,    17.16,    18.08
      258.0,      17.47,    17.36,    17.34,    17.13,    18.06
      259.0,      17.44,    17.34,    17.31,    17.10,    18.03
      260.0,      17.42,    17.31,    17.29,    17.06,    18.01
      261.0,      17.39,    17.29,    17.27,    17.03,    17.98
      262.0,      17.37,    17.27,    17.24,    17.00,    17.96
      263.0,      17.34,    17.25,    17.22,    16.96,    17.93
      264.0,      17.31,    17.22,    17.19,    16.93,    17.91
      265.0,      17.29,    17.20,    17.17,    16.90,    17.88
      266.0,      17.26,    17.18,    17.14,    16.87,    17.86
      267.0,      17.24,    17.16,    17.12,    16.83,    17.83
      268.0,      17.21,    17.14,    17.10,    16.80,    17.81
      269.0,      17.18,    17.12,    17.07,    16.77,    17.78
      270.0,      17.16,    17.09,    17.05,    16.74,    17.76
      271.0,      17.13,    17.07,    17.02,    16.70,    17.73
      272.0,      17.11,    17.05,    17.00,    16.67,    17.71
      273.0,      17.08,    17.03,    16.97,    16.64,    17.68
      274.0,      17.06,    17.01,    16.95,    16.61,    17.66
      275.0,      17.03,    16.98,    16.93,    16.58,    17.64
      276.0,      17.01,    16.96,    16.90,    16.54,    17.61
      277.0,      16.98,    16.94,    16.88,    16.51,    17.59
      278.0,      16.95,    16.92,    16.85,    16.48,    17.56
      279.0,      16.93,    16.90,    16.83,    16.45,    17.54
      280.0,      16.90,    16.88,    16.81,    16.42,    17.51
      281.0,      16.88,    16.86,    16.78,    16.38,    17.49
      282.0,      16.85,    16.83,    16.76,    16.35,    17.47
      283.0,      16.83,    16.81,    16.74,    16.32,    17.44
      284.0,      16.80,    16.79,    16.71,    16.29,    17.42
      285.0,      16.78,    16.77,    16.69,    16.26,    17.39
      286.0,      16.75,    16.75,    16.67,    16.23,    17.37
      287.0,      16.73,    16.73,    16.64,    16.20,    17.35
      288.0,      16.70,    16.71,    16.62,    16.16,    17.32
      289.0,      16.68,    16.68,    16.59,    16.13,    17.30
      290.0,      16.65,    16.66,    16.57,    16.10,    17.27
      291.0,      16.63,    16.64,    16.55,    16.07,    17.25
      292.0,      16.60,    16.62,    16.52,    16.04,    17.23
      293.0,      16.58,    16.60,    16.50,    16.01,    17.20
      294.0,      16.55,    16.58,    16.48,    15.98,    17.18
      295.0,      16.53,    16.56,    16.45,    15.95,    17.15
      296.0,      16.50,    16.54,    16.43,    15.92,    17.13
      297.0,      16.48,    16.51,    16.41,    15.89,    17.11
      298.0,      16.45,    16.49,    16.38,    15.86,    17.08
      299.0,      16.43,    16.47,    16.36,    15.82,    17.06
      300.0,      16.41,    16.45,    16.34,    15.79,    17.04
      301.0,      16.38,    16.43,    16.32,    15.76,    17.01
      302.0,      16.36,    16.41,    16.29,    15.73,    16.99
      303.0,      16.33,    16.39,    16.27,    15.70,    16.97
      304.0,      16.31,    16.37,    16.25,    15.67,    16.94
      305.0,      16.28,    16.35,    16.22,    15.64,    16.92
      306.0,      16.26,    16.33,    16.20,    15.61,    16.89
      307.0,      16.23,    16.31,    16.18,    15.58,    16.87
      308.0,      16.21,    16.29,    16.15,    15.55,    16.85
      309.0,      16.19,    16.26,    16.13,    15.52,    16.82
      310.0,      16.16,    16.24,    16.11,    15.49,    16.80
