Radius (km), Mean (m/s), NE (m/s), SE (m/s), SW (m/s), NW (m/s)
        0.0,       0.00,     0.00,     0.00,     0.00,     0.00
        1.0,       1.14,     1.12,     1.12,     1.13,     1.20
        2.0,       1.70,     1.68,     1.68,     1.69,     1.75
        3.0,       2.14,     2.13,     2.13,     2.14,     2.18
        4.0,       2.53,     2.52,     2.52,     2.52,     2.55
        5.0,       2.87,     2.87,     2.87,     2.87,     2.88
        6.0,       3.19,     3.19,     3.19,     3.19,     3.18
        7.0,       3.48,     3.49,     3.49,     3.49,     3.46
        8.0,       3.76,     3.77,     3.77,     3.77,     3.73
        9.0,       4.02,     4.04,     4.04,     4.03,     3.97
       10.0,       4.27,     4.29,     4.29,     4.28,     4.21
       11.0,       4.51,     4.54,     4.54,     4.53,     4.43
       12.0,       4.74,     4.77,     4.77,     4.76,     4.65
       13.0,       4.96,     5.00,     5.00,     4.99,     4.85
       14.0,       5.17,     5.22,     5.22,     5.20,     5.05
       15.0,       5.38,     5.43,     5.43,     5.42,     5.25
       16.0,       5.58,     5.64,     5.64,     5.62,     5.44
       17.0,       5.78,     5.84,     5.84,     5.82,     5.62
       18.0,       5.97,     6.04,     6.04,     6.02,     5.80
       19.0,       6.16,     6.23,     6.23,     6.21,     5.97
       20.0,       6.35,     6.42,     6.42,     6.40,     6.14
       21.0,       6.52,     6.61,     6.61,     6.58,     6.30
       22.0,       6.70,     6.79,     6.79,     6.76,     6.47
       23.0,       6.87,     6.97,     6.97,     6.93,     6.62
       24.0,       7.04,     7.14,     7.14,     7.11,     6.78
       25.0,       7.21,     7.31,     7.31,     7.28,     6.93
       26.0,       7.37,     7.48,     7.48,     7.44,     7.08
       27.0,       7.53,     7.65,     7.65,     7.61,     7.23
       28.0,       7.69,     7.81,     7.81,     7.77,     7.37
       29.0,       7.85,     7.97,     7.97,     7.93,     7.52
       30.0,       8.00,     8.13,     8.13,     8.08,     7.66
       31.0,       8.15,     8.29,     8.29,     8.24,     7.79
       32.0,       8.30,     8.44,     8.44,     8.39,     7.93
       33.0,       8.45,     8.60,     8.60,     8.54,     8.06
       34.0,       8.60,     8.75,     8.75,     8.69,     8.20
       35.0,       8.74,     8.90,     8.90,     8.84,     8.33
       36.0,       8.88,     9.04,     9.04,     8.98,     8.46
       37.0,       9.02,     9.19,     9.19,     9.13,     8.58
       38.0,       9.16,     9.33,     9.33,     9.27,     8.71
       39.0,       9.30,     9.47,     9.47,     9.41,     8.83
       40.0,       9.43,     9.62,     9.62,     9.55,     8.96
       41.0,       9.57,     9.75,     9.75,     9.68,     9.08
       42.0,       9.70,     9.89,     9.89,     9.82,     9.20
       43.0,       9.83,    10.03,    10.03,     9.95,     9.32
       44.0,       9.96,    10.16,    10.16,    10.09,     9.43
       45.0,      10.09,    10.30,    10.30,    10.22,     9.55
       46.0,      10.22,    10.43,    10.43,    10.35,     9.66
       47.0,      10.34,    10.56,    10.56,    10.48,     9.78
       48.0,      10.47,    10.69,    10.69,    10.61,     9.89
       49.0,      10.59,    10.82,    10.82,    10.73,    10.00
       50.0,      10.72,    10.95,    10.95,    10.86,    10.11
       51.0,      10.84,    11.08,    11.08,    10.99,    10.22
       52.0,      10.96,    11.20,    11.20,    11.11,    10.33
       53.0,      11.08,    11.33,    11.33,    11.23,    10.44
       54.0,      11.20,    11.45,    11.45,    11.35,    10.55
       55.0,      11.32,    11.57,    11.57,    11.48,    10.65
       56.0,      11.44,    11.69,    11.69,    11.60,    10.76
       57.0,      11.55,    11.82,    11.82,    11.71,    10.86
       58.0,      11.67,    11.94,    11.94,    11.83,    10.97
       59.0,      11.78,    12.06,    12.06,    11.95,    11.07
       60.0,      11.90,    12.17,    12.17,    12.07,    11.17
       61.0,      12.01,    12.29,    12.29,    12.18,    11.27
       62.0,      12.12,    12.41,    12.41,    12.30,    11.37
       63.0,      12.23,    12.52,    12.52,    12.41,    11.47
       64.0,      12.34,    12.64,    12.64,    12.53,    11.57
       65.0,      12.45,    12.75,    12.75,    12.64,    11.67
       66.0,      12.56,    12.87,    12.87,    12.75,    11.77
       67.0,      12.67,    12.98,    12.98,    12.86,    11.86
       68.0,      12.78,    13.09,    13.09,    12.97,    11.96
       69.0,      12.89,    13.21,    13.21,    13.08,    12.05
       70.0,      12.99,    13.32,    13.32,    13.19,    12.15
       71.0,      13.10,    13.43,    13.43,    13.30,    12.24
       72.0,      13.20,    13.54,    13.54,    13.41,    12.34
       73.0,      13.31,    13.65,    13.65,    13.52,    12.43
       74.0,      13.41,    13.75,    13.75,    13.62,    12.52
       75.0,      13.52,    13.86,    13.86,    13.73,    12.61
       76.0,      13.62,    13.97,    13.97,    13.83,    12.71
       77.0,      13.72,    14.08,    14.08,    13.94,    12.80
       78.0,      13.82,    14.18,    14.18,    14.04,    12.89
       79.0,      13.92,    14.29,    14.29,    14.15,    12.98
       80.0,      14.03,    14.39,    14.39,    14.25,    13.07
       81.0,      14.13,    14.50,    14.50,    14.35,    13.15
       82.0,      14.22,    14.60,    14.60,    14.45,    13.24
       83.0,      14.32,    14.70,    14.70,    14.56,    13.33
       84.0,      14.42,    14.81,    14.81,    14.66,    13.42
       85.0,      14.52,    14.91,    14.91,    14.76,    13.50
       86.0,      14.62,    15.01,    15.01,    14.86,    13.59
       87.0,      14.71,    15.11,    15.11,    14.96,    13.68
       88.0,      14.81,    15.21,    15.21,    15.06,    13.76
       89.0,      14.91,    15.31,    15.31,    15.15,    13.85
       90.0,      15.00,    15.41,    15.41,    15.25,    13.93
       91.0,      15.10,    15.51,    15.51,    15.35,    14.02
       92.0,      15.19,    15.61,    15.61,    15.45,    14.10
       93.0,      15.29,    15.71,    15.71,    15.54,    14.18
       94.0,      15.38,    15.81,    15.81,    15.64,    14.27
       95.0,      15.47,    15.91,    15.91,    15.74,    14.35
       96.0,      15.57,    16.00,    16.00,    15.83,    14.43
       97.0,      15.66,    16.10,    16.10,    15.93,    14.51
       98.0,      15.75,    16.20,    16.20,    16.02,    14.59
       99.0,      15.84,    16.29,    16.29,    16.12,    14.67
      100.0,      15.94,    16.39,    16.39,    16.21,    14.75
      101.0,      16.03,    16.48,    16.48,    16.30,    14.84
      102.0,      16.12,    16.58,    16.58,    16.40,    14.91
      103.0,      16.21,    16.67,    16.67,    16.49,    14.99
      104.0,      16.30,    16.77,    16.77,    16.58,    15.07
      105.0,      16.39,    16.86,    16.86,    16.67,    15.15
      106.0,      16.48,    16.95,    16.95,    16.77,    15.23
      107.0,      16.56,    17.05,    17.05,    16.86,    15.31
      108.0,      16.65,    17.14,    17.14,    16.95,    15.39
      109.0,      16.74,    17.23,    17.23,    17.04,    15.46
      110.0,      16.83,    17.32,    17.32,    17.13,    15.54
      111.0,      16.92,    17.42,    17.42,    17.22,    15.62
      112.0,      17.00,    17.51,    17.51,    17.31,    15.69
      113.0,      17.09,    17.60,    17.60,    17.40,    15.77
      114.0,      17.18,    17.69,    17.69,    17.49,    15.85
      115.0,      17.26,    17.78,    17.78,    17.57,    15.92
      116.0,      17.35,    17.87,    17.87,    17.66,    16.00
      117.0,      17.43,    17.96,    17.96,    17.75,    16.07
      118.0,      17.52,    18.05,    18.05,    17.84,    16.15
      119.0,      17.60,    18.13,    18.13,    17.92,    16.22
      120.0,      17.69,    18.22,    18.22,    18.01,    16.30
      121.0,      17.77,    18.31,    18.31,    18.10,    16.37
      122.0,      17.86,    18.40,    18.40,    18.18,    16.44
      123.0,      17.94,    18.49,    18.49,    18.27,    16.52
      124.0,      18.02,    18.57,    18.57,    18.36,    16.59
      125.0,      18.11,    18.66,    18.66,    18.44,    16.66
      126.0,      18.19,    18.75,    18.75,    18.53,    16.74
      127.0,      18.27,    18.83,    18.83,    18.61,    16.81
      128.0,      18.35,    18.92,    18.92,    18.70,    16.88
      129.0,      18.44,    19.01,    19.01,    18.78,    16.95
      130.0,      18.52,    19.09,    19.09,    18.86,    17.02
      131.0,      18.60,    19.18,    19.18,    18.95,    17.09
      132.0,      18.68,    19.26,    19.26,    19.03,    17.16
      133.0,      18.76,    19.35,    19.35,    19.11,    17.24
      134.0,      18.84,    19.43,    19.43,    19.20,    17.31
      135.0,      18.92,    19.52,    19.52,    19.28,    17.38
      136.0,      19.00,    19.60,    19.60,    19.36,    17.45
      137.0,      19.08,    19.68,    19.68,    19.44,    17.52
      138.0,      19.16,    19.77,    19.77,    19.53,    17.59
      139.0,      19.24,    19.85,    19.85,    19.61,    17.66
      140.0,      19.32,    19.93,    19.93,    19.69,    17.72
      141.0,      19.40,    20.02,    20.02,    19.77,    17.79
      142.0,      19.48,    20.10,    20.10,    19.85,    17.86
      143.0,      19.56,    20.18,    20.18,    19.93,    17.93
      144.0,      19.63,    20.26,    20.26,    20.01,    18.00
      145.0,      19.71,    20.35,    20.35,    20.09,    18.07
      146.0,      19.79,    20.43,    20.43,    20.17,    18.13
      147.0,      19.87,    20.51,    20.51,    20.25,    18.20
      148.0,      19.94,    20.59,    20.59,    20.33,    18.27
      149.0,      20.02,    20.67,    20.67,    20.41,    18.34
      150.0,      20.10,    20.75,    20.75,    20.49,    18.40
      151.0,      20.18,    20.83,    20.83,    20.57,    18.47
      152.0,      20.25,    20.91,    20.91,    20.65,    18.54
      153.0,      20.33,    20.99,    20.99,    20.73,    18.60
      154.0,      20.40,    21.07,    21.07,    20.81,    18.67
      155.0,      20.48,    21.15,    21.15,    20.89,    18.74
      156.0,      20.57,    21.24,    21.24,    20.97,    18.83
      157.0,      20.66,    21.33,    21.34,    21.07,    18.93
      158.0,      20.77,    21.42,    21.44,    21.17,    19.05
      159.0,      20.89,    21.53,    21.55,    21.29,    19.18
      160.0,      21.01,    21.63,    21.66,    21.41,    19.32
      161.0,      21.12,    21.74,    21.77,    21.53,    19.45
      162.0,      21.23,    21.85,    21.87,    21.63,    19.56
      163.0,      21.31,    21.93,    21.95,    21.72,    19.64
      164.0,      21.37,    22.00,    22.02,    21.78,    19.67
      165.0,      21.39,    22.05,    22.06,    21.81,    19.65
      166.0,      21.38,    22.07,    22.07,    21.80,    19.57
      167.0,      21.33,    22.06,    22.06,    21.76,    19.45
      168.0,      21.26,    22.03,    22.02,    21.70,    19.29
      169.0,      21.17,    21.98,    21.98,    21.61,    19.10
      170.0,      21.06,    21.92,    21.92,    21.51,    18.90
      171.0,      20.95,    21.85,    21.86,    21.41,    18.70
      172.0,      20.85,    21.78,    21.79,    21.31,    18.50
      173.0,      20.75,    21.71,    21.74,    21.22,    18.32
      174.0,      20.65,    21.65,    21.68,    21.13,    18.15
      175.0,      20.56,    21.59,    21.63,    21.05,    17.99
      176.0,      20.48,    21.54,    21.58,    20.97,    17.84
      177.0,      20.40,    21.48,    21.53,    20.89,    17.69
      178.0,      20.32,    21.43,    21.48,    20.82,    17.55
      179.0,      20.24,    21.38,    21.43,    20.75,    17.41
      180.0,      20.16,    21.32,    21.38,    20.67,    17.28
      181.0,      20.09,    21.27,    21.34,    20.60,    17.15
      182.0,      20.02,    21.22,    21.29,    20.54,    17.03
      183.0,      19.95,    21.16,    21.24,    20.47,    16.91
      184.0,      19.88,    21.11,    21.20,    20.41,    16.80
      185.0,      19.81,    21.06,    21.15,    20.34,    16.69
      186.0,      19.74,    21.01,    21.10,    20.28,    16.58
      187.0,      19.68,    20.96,    21.06,    20.22,    16.47
      188.0,      19.62,    20.91,    21.01,    20.16,    16.37
      189.0,      19.55,    20.86,    20.97,    20.10,    16.28
      190.0,      19.49,    20.81,    20.93,    20.05,    16.18
      191.0,      19.43,    20.76,    20.88,    19.99,    16.09
      192.0,      19.37,    20.71,    20.84,    19.94,    16.01
      193.0,      19.32,    20.66,    20.80,    19.88,    15.92
      194.0,      19.26,    20.62,    20.75,    19.83,    15.84
      195.0,      19.20,    20.57,    20.71,    19.78,    15.76
      196.0,      19.15,    20.52,    20.67,    19.73,    15.68
      197.0,      19.10,    20.47,    20.63,    19.68,    15.61
      198.0,      19.04,    20.43,    20.59,    19.63,    15.54
      199.0,      18.99,    20.38,    20.55,    19.58,    15.47
      200.0,      18.94,    20.33,    20.51,    19.53,    15.40
      201.0,      18.89,    20.29,    20.47,    19.48,    15.34
      202.0,      18.84,    20.24,    20.43,    19.44,    15.27
      203.0,      18.80,    20.19,    20.39,    19.39,    15.21
      204.0,      18.75,    20.15,    20.35,    19.35,    15.15
      205.0,      18.70,    20.10,    20.31,    19.30,    15.09
      206.0,      18.66,    20.06,    20.27,    19.26,    15.04
      207.0,      18.61,    20.01,    20.23,    19.22,    14.98
      208.0,      18.57,    19.97,    20.19,    19.18,    14.93
      209.0,      18.52,    19.93,    20.15,    19.14,    14.88
      210.0,      18.48,    19.88,    20.12,    19.10,    14.83
      211.0,      18.44,    19.84,    20.08,    19.05,    14.78
      212.0,      18.40,    19.80,    20.04,    19.02,    14.73
      213.0,      18.35,    19.75,    20.00,    18.98,    14.69
      214.0,      18.31,    19.71,    19.97,    18.94,    14.64
      215.0,      18.27,    19.67,    19.93,    18.90,    14.60
      216.0,      18.23,    19.62,    19.90,    18.86,    14.56
      217.0,      18.19,    19.58,    19.86,    18.82,    14.51
      218.0,      18.16,    19.54,    19.82,    18.79,    14.47
      219.0,      18.12,    19.50,    19.79,    18.75,    14.43
      220.0,      18.08,    19.46,    19.75,    18.71,    14.40
      221.0,      18.04,    19.42,    19.72,    18.68,    14.36
      222.0,      18.01,    19.37,    19.68,    18.64,    14.32
      223.0,      17.97,    19.33,    19.65,    18.61,    14.29
      224.0,      17.93,    19.29,    19.61,    18.57,    14.25
      225.0,      17.90,    19.25,    19.58,    18.54,    14.22
      226.0,      17.86,    19.21,    19.55,    18.50,    14.19
      227.0,      17.83,    19.17,    19.51,    18.47,    14.15
      228.0,      17.79,    19.13,    19.48,    18.44,    14.12
      229.0,      17.76,    19.09,    19.44,    18.40,    14.09
      230.0,      17.72,    19.05,    19.41,    18.37,    14.06
      231.0,      17.69,    19.01,    19.38,    18.34,    14.03
      232.0,      17.66,    18.97,    19.35,    18.31,    14.00
      233.0,      17.62,    18.94,    19.31,    18.27,    13.98
      234.0,      17.59,    18.90,    19.28,    18.24,    13.95
      235.0,      17.56,    18.86,    19.25,    18.21,    13.92
      236.0,      17.53,    18.82,    19.22,    18.18,    13.89
      237.0,      17.50,    18.78,    19.18,    18.15,    13.87
      238.0,      17.46,    18.74,    19.15,    18.12,    13.84
      239.0,      17.43,    18.71,    19.12,    18.09,    13.82
      240.0,      17.40,    18.67,    19.09,    18.06,    13.79
      241.0,      17.37,    18.63,    19.06,    18.03,    13.77
      242.0,      17.34,    18.59,    19.03,    18.00,    13.75
      243.0,      17.31,    18.56,    18.99,    17.97,    13.72
      244.0,      17.28,    18.52,    18.96,    17.94,    13.70
      245.0,      17.25,    18.48,    18.93,    17.91,    13.68
      246.0,      17.22,    18.45,    18.90,    17.88,    13.66
      247.0,      17.19,    18.41,    18.87,    17.85,    13.63
      248.0,      17.16,    18.37,    18.84,    17.82,    13.61
      249.0,      17.13,    18.34,    18.81,    17.79,    13.59
      250.0,      17.10,    18.30,    18.78,    17.76,    13.57
      251.0,      17.07,    18.26,    18.75,    17.73,    13.55
      252.0,      17.05,    18.23,    18.72,    17.71,    13.53
      253.0,      17.02,    18.19,    18.69,    17.68,    13.51
      254.0,      16.99,    18.16,    18.66,    17.65,    13.49
      255.0,      16.96,    18.12,    18.63,    17.62,    13.47
      256.0,      16.93,    18.09,    18.60,    17.59,    13.45
      257.0,      16.91,    18.05,    18.57,    17.57,    13.43
      258.0,      16.88,    18.02,    18.54,    17.54,    13.41
      259.0,      16.85,    17.98,    18.52,    17.51,    13.39
      260.0,      16.82,    17.95,    18.49,    17.48,    13.38
      261.0,      16.80,    17.91,    18.46,    17.46,    13.36
      262.0,      16.77,    17.88,    18.43,    17.43,    13.34
      263.0,      16.74,    17.84,    18.40,    17.40,    13.32
      264.0,      16.72,    17.81,    18.37,    17.37,    13.31
      265.0,      16.69,    17.77,    18.34,    17.35,    13.29
      266.0,      16.66,    17.74,    18.32,    17.32,    13.27
      267.0,      16.64,    17.71,    18.29,    17.29,    13.25
      268.0,      16.61,    17.67,    18.26,    17.27,    13.24
      269.0,      16.58,    17.64,    18.23,    17.24,    13.22
      270.0,      16.56,    17.61,    18.20,    17.21,    13.20
      271.0,      16.53,    17.57,    18.18,    17.19,    13.19
      272.0,      16.51,    17.54,    18.15,    17.16,    13.17
      273.0,      16.48,    17.51,    18.12,    17.14,    13.15
      274.0,      16.45,    17.47,    18.09,    17.11,    13.14
      275.0,      16.43,    17.44,    18.07,    17.08,    13.12
      276.0,      16.40,    17.41,    18.04,    17.06,    13.11
      277.0,      16.38,    17.37,    18.01,    17.03,    13.09
      278.0,      16.35,    17.34,    17.99,    17.01,    13.08
      279.0,      16.33,    17.31,    17.96,    16.98,    13.06
      280.0,      16.30,    17.28,    17.93,    16.96,    13.05
      281.0,      16.28,    17.24,    17.91,    16.93,    13.03
      282.0,      16.25,    17.21,    17.88,    16.90,    13.02
      283.0,      16.23,    17.18,    17.85,    16.88,    13.00
      284.0,      16.20,    17.15,    17.83,    16.85,    12.99
      285.0,      16.18,    17.12,    17.80,    16.83,    12.97
      286.0,      16.15,    17.08,    17.77,    16.80,    12.96
      287.0,      16.13,    17.05,    17.75,    16.78,    12.94
      288.0,      16.11,    17.02,    17.72,    16.75,    12.93
      289.0,      16.08,    16.99,    17.69,    16.73,    12.91
      290.0,      16.06,    16.96,    17.67,    16.70,    12.90
      291.0,      16.03,    16.93,    17.64,    16.68,    12.88
      292.0,      16.01,    16.90,    17.62,    16.65,    12.87
      293.0,      15.98,    16.86,    17.59,    16.63,    12.86
      294.0,      15.96,    16.83,    17.57,    16.60,    12.84
      295.0,      15.94,    16.80,    17.54,    16.58,    12.83
      296.0,      15.91,    16.77,    17.51,    16.55,    12.81
      297.0,      15.89,    16.74,    17.49,    16.53,    12.80
      298.0,      15.87,    16.71,    17.46,    16.51,    12.79
      299.0,      15.84,    16.68,    17.44,    16.48,    12.77
      300.0,      15.82,    16.65,    17.41,    16.46,    12.76
      301.0,      15.80,    16.62,    17.39,    16.43,    12.74
      302.0,      15.77,    16.59,    17.36,    16.41,    12.73
      303.0,      15.75,    16.56,    17.34,    16.38,    12.72
      304.0,      15.73,    16.53,    17.31,    16.36,    12.70
      305.0,      15.70,    16.50,    17.29,    16.34,    12.69
      306.0,      15.68,    16.47,    17.26,    16.31,    12.68
      307.0,      15.66,    16.44,    17.24,    16.29,    12.66
      308.0,      15.63,    16.41,    17.21,    16.26,    12.65
      309.0,      15.61,    16.38,    17.19,    16.24,    12.64
      310.0,      15.59,    16.35,    17.16,    16.22,    12.62
