Radius (km), Mean (m/s), NE (m/s), SE (m/s), SW (m/s), NW (m/s)
        0.0,       0.00,     0.00,     0.00,     0.00,     0.00
        1.0,       1.61,     1.62,     1.61,     1.61,     1.61
        2.0,       2.36,     2.36,     2.35,     2.36,     2.35
        3.0,       2.94,     2.94,     2.94,     2.94,     2.94
        4.0,       3.44,     3.43,     3.45,     3.44,     3.45
        5.0,       3.89,     3.87,     3.90,     3.89,     3.90
        6.0,       4.30,     4.27,     4.31,     4.30,     4.31
        7.0,       4.68,     4.65,     4.69,     4.67,     4.69
        8.0,       5.03,     4.99,     5.05,     5.03,     5.05
        9.0,       5.37,     5.32,     5.39,     5.36,     5.39
       10.0,       5.68,     5.64,     5.71,     5.68,     5.71
       11.0,       5.99,     5.93,     6.02,     5.98,     6.02
       12.0,       6.28,     6.22,     6.31,     6.28,     6.31
       13.0,       6.56,     6.49,     6.60,     6.56,     6.60
       14.0,       6.83,     6.76,     6.87,     6.83,     6.87
       15.0,       7.10,     7.02,     7.14,     7.09,     7.14
       16.0,       7.35,     7.27,     7.40,     7.35,     7.40
       17.0,       7.60,     7.51,     7.65,     7.59,     7.65
       18.0,       7.84,     7.75,     7.89,     7.83,     7.89
       19.0,       8.08,     7.98,     8.13,     8.07,     8.13
       20.0,       8.31,     8.20,     8.36,     8.30,     8.36
       21.0,       8.53,     8.42,     8.59,     8.52,     8.59
       22.0,       8.75,     8.63,     8.81,     8.74,     8.81
       23.0,       8.97,     8.84,     9.03,     8.96,     9.03
       24.0,       9.18,     9.05,     9.25,     9.17,     9.25
       25.0,       9.38,     9.25,     9.46,     9.37,     9.46
       26.0,       9.59,     9.45,     9.66,     9.58,     9.66
       27.0,       9.79,     9.65,     9.86,     9.78,     9.86
       28.0,       9.98,     9.84,    10.06,     9.97,    10.06
       29.0,      10.18,    10.03,    10.26,    10.17,    10.26
       30.0,      10.37,    10.21,    10.45,    10.36,    10.45
       31.0,      10.56,    10.39,    10.64,    10.54,    10.64
       32.0,      10.74,    10.57,    10.83,    10.73,    10.83
       33.0,      10.92,    10.75,    11.02,    10.91,    11.02
       34.0,      11.10,    10.93,    11.20,    11.09,    11.20
       35.0,      11.28,    11.10,    11.38,    11.27,    11.38
       36.0,      11.46,    11.27,    11.56,    11.44,    11.56
       37.0,      11.63,    11.44,    11.73,    11.62,    11.73
       38.0,      11.80,    11.60,    11.91,    11.79,    11.91
       39.0,      11.97,    11.77,    12.08,    11.96,    12.08
       40.0,      12.14,    11.93,    12.25,    12.12,    12.25
       41.0,      12.30,    12.09,    12.42,    12.29,    12.42
       42.0,      12.47,    12.25,    12.58,    12.45,    12.58
       43.0,      12.63,    12.41,    12.75,    12.61,    12.75
       44.0,      12.79,    12.56,    12.91,    12.77,    12.91
       45.0,      12.95,    12.72,    13.07,    12.93,    13.07
       46.0,      13.10,    12.87,    13.23,    13.08,    13.23
       47.0,      13.26,    13.02,    13.38,    13.24,    13.38
       48.0,      13.41,    13.17,    13.54,    13.39,    13.54
       49.0,      13.56,    13.32,    13.70,    13.54,    13.70
       50.0,      13.71,    13.46,    13.85,    13.69,    13.85
       51.0,      13.86,    13.61,    14.00,    13.84,    14.00
       52.0,      14.01,    13.75,    14.15,    13.99,    14.15
       53.0,      14.16,    13.89,    14.30,    14.14,    14.30
       54.0,      14.30,    14.04,    14.45,    14.28,    14.45
       55.0,      14.45,    14.18,    14.59,    14.43,    14.59
       56.0,      14.59,    14.31,    14.74,    14.57,    14.74
       57.0,      14.73,    14.45,    14.88,    14.71,    14.88
       58.0,      14.87,    14.59,    15.03,    14.85,    15.03
       59.0,      15.01,    14.72,    15.17,    14.99,    15.17
       60.0,      15.15,    14.86,    15.31,    15.13,    15.31
       61.0,      15.29,    14.99,    15.45,    15.27,    15.45
       62.0,      15.43,    15.12,    15.59,    15.40,    15.59
       63.0,      15.56,    15.26,    15.73,    15.54,    15.73
       64.0,      15.70,    15.39,    15.86,    15.67,    15.86
       65.0,      15.83,    15.52,    16.00,    15.81,    16.00
       66.0,      15.96,    15.65,    16.14,    15.94,    16.14
       67.0,      16.10,    15.77,    16.27,    16.07,    16.27
       68.0,      16.23,    15.90,    16.40,    16.20,    16.40
       69.0,      16.36,    16.03,    16.54,    16.33,    16.54
       70.0,      16.49,    16.15,    16.67,    16.46,    16.67
       71.0,      16.61,    16.28,    16.80,    16.59,    16.80
       72.0,      16.74,    16.40,    16.93,    16.72,    16.93
       73.0,      16.87,    16.52,    17.06,    16.84,    17.06
       74.0,      17.00,    16.64,    17.18,    16.97,    17.18
       75.0,      17.12,    16.77,    17.31,    17.09,    17.31
       76.0,      17.25,    16.89,    17.44,    17.22,    17.44
       77.0,      17.37,    17.01,    17.56,    17.34,    17.56
       78.0,      17.49,    17.13,    17.69,    17.46,    17.69
       79.0,      17.62,    17.25,    17.82,    17.59,    17.82
       80.0,      17.75,    17.37,    17.94,    17.72,    17.95
       81.0,      17.89,    17.51,    18.08,    17.85,    18.10
       82.0,      18.04,    17.67,    18.22,    18.00,    18.28
       83.0,      18.22,    17.85,    18.38,    18.17,    18.48
       84.0,      18.41,    18.04,    18.55,    18.34,    18.71
       85.0,      18.61,    18.24,    18.71,    18.52,    18.94
       86.0,      18.80,    18.44,    18.88,    18.70,    19.17
       87.0,      18.97,    18.61,    19.04,    18.87,    19.37
       88.0,      19.12,    18.76,    19.17,    19.01,    19.53
       89.0,      19.22,    18.86,    19.29,    19.11,    19.63
       90.0,      19.28,    18.90,    19.37,    19.18,    19.66
       91.0,      19.29,    18.90,    19.42,    19.21,    19.63
       92.0,      19.25,    18.84,    19.44,    19.20,    19.53
       93.0,      19.18,    18.75,    19.44,    19.16,    19.38
       94.0,      19.08,    18.63,    19.42,    19.10,    19.18
       95.0,      18.96,    18.48,    19.38,    19.03,    18.97
       96.0,      18.84,    18.34,    19.34,    18.94,    18.75
       97.0,      18.72,    18.19,    19.30,    18.86,    18.53
       98.0,      18.60,    18.05,    19.26,    18.79,    18.32
       99.0,      18.49,    17.92,    19.22,    18.72,    18.12
      100.0,      18.39,    17.79,    19.18,    18.65,    17.93
      101.0,      18.29,    17.67,    19.15,    18.58,    17.75
      102.0,      18.19,    17.55,    19.11,    18.52,    17.58
      103.0,      18.09,    17.44,    19.08,    18.46,    17.41
      104.0,      18.00,    17.32,    19.04,    18.40,    17.24
      105.0,      17.91,    17.22,    19.01,    18.34,    17.08
      106.0,      17.82,    17.11,    18.97,    18.28,    16.93
      107.0,      17.74,    17.01,    18.94,    18.23,    16.78
      108.0,      17.65,    16.91,    18.91,    18.17,    16.63
      109.0,      17.57,    16.81,    18.87,    18.12,    16.49
      110.0,      17.49,    16.71,    18.84,    18.07,    16.35
      111.0,      17.41,    16.62,    18.80,    18.02,    16.22
      112.0,      17.34,    16.53,    18.77,    17.97,    16.09
      113.0,      17.26,    16.44,    18.74,    17.92,    15.96
      114.0,      17.19,    16.35,    18.70,    17.87,    15.84
      115.0,      17.12,    16.27,    18.67,    17.83,    15.72
      116.0,      17.05,    16.19,    18.64,    17.78,    15.60
      117.0,      16.98,    16.11,    18.60,    17.74,    15.49
      118.0,      16.92,    16.03,    18.57,    17.69,    15.38
      119.0,      16.85,    15.95,    18.54,    17.65,    15.28
      120.0,      16.79,    15.88,    18.50,    17.61,    15.17
      121.0,      16.73,    15.80,    18.47,    17.56,    15.07
      122.0,      16.67,    15.73,    18.44,    17.52,    14.97
      123.0,      16.61,    15.66,    18.40,    17.48,    14.88
      124.0,      16.55,    15.59,    18.37,    17.44,    14.79
      125.0,      16.49,    15.53,    18.34,    17.41,    14.70
      126.0,      16.44,    15.46,    18.31,    17.37,    14.61
      127.0,      16.38,    15.40,    18.28,    17.33,    14.52
      128.0,      16.33,    15.34,    18.24,    17.29,    14.44
      129.0,      16.28,    15.28,    18.21,    17.26,    14.36
      130.0,      16.23,    15.22,    18.18,    17.22,    14.28
      131.0,      16.18,    15.16,    18.15,    17.19,    14.21
      132.0,      16.13,    15.10,    18.12,    17.15,    14.13
      133.0,      16.08,    15.05,    18.08,    17.12,    14.06
      134.0,      16.03,    15.00,    18.05,    17.08,    13.99
      135.0,      15.98,    14.94,    18.02,    17.05,    13.92
      136.0,      15.94,    14.89,    17.99,    17.02,    13.85
      137.0,      15.89,    14.84,    17.96,    16.99,    13.79
      138.0,      15.85,    14.79,    17.93,    16.95,    13.73
      139.0,      15.81,    14.74,    17.89,    16.92,    13.67
      140.0,      15.76,    14.70,    17.86,    16.89,    13.61
      141.0,      15.72,    14.65,    17.83,    16.86,    13.55
      142.0,      15.68,    14.60,    17.80,    16.83,    13.49
      143.0,      15.64,    14.56,    17.77,    16.80,    13.43
      144.0,      15.60,    14.51,    17.74,    16.77,    13.38
      145.0,      15.56,    14.47,    17.71,    16.74,    13.33
      146.0,      15.52,    14.43,    17.68,    16.71,    13.28
      147.0,      15.49,    14.39,    17.65,    16.68,    13.22
      148.0,      15.45,    14.35,    17.62,    16.65,    13.18
      149.0,      15.41,    14.31,    17.59,    16.63,    13.13
      150.0,      15.38,    14.27,    17.56,    16.60,    13.08
      151.0,      15.34,    14.23,    17.53,    16.57,    13.04
      152.0,      15.31,    14.19,    17.50,    16.54,    12.99
      153.0,      15.27,    14.16,    17.47,    16.52,    12.95
      154.0,      15.24,    14.12,    17.44,    16.49,    12.90
      155.0,      15.20,    14.09,    17.41,    16.46,    12.86
      156.0,      15.17,    14.05,    17.38,    16.44,    12.82
      157.0,      15.14,    14.02,    17.35,    16.41,    12.78
      158.0,      15.11,    13.98,    17.32,    16.38,    12.74
      159.0,      15.08,    13.95,    17.29,    16.36,    12.71
      160.0,      15.04,    13.92,    17.26,    16.33,    12.67
      161.0,      15.01,    13.89,    17.23,    16.30,    12.63
      162.0,      14.98,    13.85,    17.20,    16.28,    12.60
      163.0,      14.95,    13.82,    17.17,    16.25,    12.56
      164.0,      14.92,    13.79,    17.14,    16.23,    12.53
      165.0,      14.89,    13.76,    17.11,    16.20,    12.49
      166.0,      14.86,    13.73,    17.08,    16.18,    12.46
      167.0,      14.84,    13.71,    17.05,    16.15,    12.43
      168.0,      14.81,    13.68,    17.02,    16.13,    12.40
      169.0,      14.78,    13.65,    17.00,    16.11,    12.37
      170.0,      14.75,    13.62,    16.97,    16.08,    12.34
      171.0,      14.72,    13.59,    16.94,    16.06,    12.31
      172.0,      14.70,    13.57,    16.91,    16.03,    12.28
      173.0,      14.67,    13.54,    16.88,    16.01,    12.25
      174.0,      14.64,    13.51,    16.85,    15.99,    12.22
      175.0,      14.62,    13.49,    16.82,    15.96,    12.20
      176.0,      14.59,    13.46,    16.80,    15.94,    12.17
      177.0,      14.57,    13.44,    16.77,    15.91,    12.14
      178.0,      14.54,    13.41,    16.74,    15.89,    12.12
      179.0,      14.52,    13.39,    16.71,    15.87,    12.09
      180.0,      14.49,    13.36,    16.68,    15.85,    12.07
      181.0,      14.47,    13.34,    16.66,    15.82,    12.04
      182.0,      14.44,    13.32,    16.63,    15.80,    12.02
      183.0,      14.42,    13.29,    16.60,    15.78,    11.99
      184.0,      14.39,    13.27,    16.57,    15.75,    11.97
      185.0,      14.37,    13.25,    16.55,    15.73,    11.95
      186.0,      14.34,    13.23,    16.52,    15.71,    11.92
      187.0,      14.32,    13.20,    16.49,    15.69,    11.90
      188.0,      14.30,    13.18,    16.46,    15.66,    11.88
      189.0,      14.27,    13.16,    16.44,    15.64,    11.86
      190.0,      14.25,    13.14,    16.41,    15.62,    11.84
      191.0,      14.23,    13.12,    16.38,    15.60,    11.82
      192.0,      14.21,    13.10,    16.35,    15.57,    11.80
      193.0,      14.18,    13.08,    16.33,    15.55,    11.78
      194.0,      14.16,    13.06,    16.30,    15.53,    11.76
      195.0,      14.14,    13.04,    16.27,    15.51,    11.74
      196.0,      14.12,    13.02,    16.25,    15.49,    11.72
      197.0,      14.09,    13.00,    16.22,    15.46,    11.70
      198.0,      14.07,    12.98,    16.19,    15.44,    11.68
      199.0,      14.05,    12.96,    16.17,    15.42,    11.66
      200.0,      14.03,    12.94,    16.14,    15.40,    11.64
      201.0,      14.01,    12.92,    16.11,    15.38,    11.62
      202.0,      13.99,    12.90,    16.09,    15.36,    11.61
      203.0,      13.97,    12.88,    16.06,    15.34,    11.59
      204.0,      13.94,    12.86,    16.03,    15.31,    11.57
      205.0,      13.92,    12.84,    16.01,    15.29,    11.55
      206.0,      13.90,    12.82,    15.98,    15.27,    11.54
      207.0,      13.88,    12.81,    15.96,    15.25,    11.52
      208.0,      13.86,    12.79,    15.93,    15.23,    11.50
      209.0,      13.84,    12.77,    15.90,    15.21,    11.49
      210.0,      13.82,    12.75,    15.88,    15.19,    11.47
      211.0,      13.80,    12.73,    15.85,    15.17,    11.45
      212.0,      13.78,    12.72,    15.83,    15.14,    11.44
      213.0,      13.76,    12.70,    15.80,    15.12,    11.42
      214.0,      13.74,    12.68,    15.77,    15.10,    11.40
      215.0,      13.72,    12.66,    15.75,    15.08,    11.39
      216.0,      13.70,    12.65,    15.72,    15.06,    11.37
      217.0,      13.68,    12.63,    15.70,    15.04,    11.36
      218.0,      13.66,    12.61,    15.67,    15.02,    11.34
      219.0,      13.64,    12.60,    15.65,    15.00,    11.33
      220.0,      13.62,    12.58,    15.62,    14.98,    11.31
      221.0,      13.60,    12.56,    15.60,    14.96,    11.30
      222.0,      13.58,    12.55,    15.57,    14.94,    11.28
      223.0,      13.57,    12.53,    15.55,    14.92,    11.27
      224.0,      13.55,    12.51,    15.52,    14.90,    11.25
      225.0,      13.53,    12.50,    15.50,    14.88,    11.24
      226.0,      13.51,    12.48,    15.47,    14.86,    11.23
      227.0,      13.49,    12.47,    15.45,    14.84,    11.21
      228.0,      13.47,    12.45,    15.42,    14.81,    11.20
      229.0,      13.45,    12.43,    15.40,    14.79,    11.18
      230.0,      13.43,    12.42,    15.37,    14.77,    11.17
      231.0,      13.42,    12.40,    15.35,    14.75,    11.16
      232.0,      13.40,    12.39,    15.32,    14.73,    11.14
      233.0,      13.38,    12.37,    15.30,    14.71,    11.13
      234.0,      13.36,    12.36,    15.27,    14.69,    11.12
      235.0,      13.34,    12.34,    15.25,    14.67,    11.10
      236.0,      13.32,    12.32,    15.22,    14.65,    11.09
      237.0,      13.31,    12.31,    15.20,    14.63,    11.08
      238.0,      13.29,    12.29,    15.18,    14.61,    11.06
      239.0,      13.27,    12.28,    15.15,    14.59,    11.05
      240.0,      13.25,    12.26,    15.13,    14.57,    11.04
      241.0,      13.23,    12.25,    15.10,    14.55,    11.02
      242.0,      13.22,    12.23,    15.08,    14.53,    11.01
      243.0,      13.20,    12.22,    15.06,    14.51,    11.00
      244.0,      13.18,    12.20,    15.03,    14.49,    10.99
      245.0,      13.16,    12.19,    15.01,    14.48,    10.97
      246.0,      13.14,    12.18,    14.98,    14.46,    10.96
      247.0,      13.13,    12.16,    14.96,    14.44,    10.95
      248.0,      13.11,    12.15,    14.94,    14.42,    10.94
      249.0,      13.09,    12.13,    14.91,    14.40,    10.92
      250.0,      13.07,    12.12,    14.89,    14.38,    10.91
      251.0,      13.06,    12.10,    14.87,    14.36,    10.90
      252.0,      13.04,    12.09,    14.84,    14.34,    10.89
      253.0,      13.02,    12.07,    14.82,    14.32,    10.88
      254.0,      13.00,    12.06,    14.80,    14.30,    10.86
      255.0,      12.99,    12.04,    14.77,    14.28,    10.85
      256.0,      12.97,    12.03,    14.75,    14.26,    10.84
      257.0,      12.95,    12.02,    14.73,    14.24,    10.83
      258.0,      12.94,    12.00,    14.70,    14.22,    10.82
      259.0,      12.92,    11.99,    14.68,    14.20,    10.80
      260.0,      12.90,    11.97,    14.66,    14.18,    10.79
      261.0,      12.88,    11.96,    14.63,    14.16,    10.78
      262.0,      12.87,    11.95,    14.61,    14.14,    10.77
      263.0,      12.85,    11.93,    14.59,    14.13,    10.76
      264.0,      12.83,    11.92,    14.56,    14.11,    10.75
      265.0,      12.82,    11.90,    14.54,    14.09,    10.73
      266.0,      12.80,    11.89,    14.52,    14.07,    10.72
      267.0,      12.78,    11.88,    14.50,    14.05,    10.71
      268.0,      12.77,    11.86,    14.47,    14.03,    10.70
      269.0,      12.75,    11.85,    14.45,    14.01,    10.69
      270.0,      12.73,    11.84,    14.43,    13.99,    10.68
      271.0,      12.72,    11.82,    14.41,    13.97,    10.67
      272.0,      12.70,    11.81,    14.38,    13.95,    10.65
      273.0,      12.68,    11.79,    14.36,    13.93,    10.64
      274.0,      12.67,    11.78,    14.34,    13.92,    10.63
      275.0,      12.65,    11.77,    14.32,    13.90,    10.62
      276.0,      12.63,    11.75,    14.29,    13.88,    10.61
      277.0,      12.62,    11.74,    14.27,    13.86,    10.60
      278.0,      12.60,    11.73,    14.25,    13.84,    10.59
      279.0,      12.58,    11.71,    14.23,    13.82,    10.58
      280.0,      12.57,    11.70,    14.21,    13.80,    10.56
      281.0,      12.55,    11.69,    14.18,    13.78,    10.55
      282.0,      12.54,    11.67,    14.16,    13.77,    10.54
      283.0,      12.52,    11.66,    14.14,    13.75,    10.53
      284.0,      12.50,    11.65,    14.12,    13.73,    10.52
      285.0,      12.49,    11.63,    14.10,    13.71,    10.51
      286.0,      12.47,    11.62,    14.08,    13.69,    10.50
      287.0,      12.46,    11.61,    14.05,    13.67,    10.49
      288.0,      12.44,    11.59,    14.03,    13.65,    10.48
      289.0,      12.42,    11.58,    14.01,    13.64,    10.47
      290.0,      12.41,    11.57,    13.99,    13.62,    10.45
      291.0,      12.39,    11.56,    13.97,    13.60,    10.44
      292.0,      12.38,    11.54,    13.95,    13.58,    10.43
      293.0,      12.36,    11.53,    13.92,    13.56,    10.42
      294.0,      12.34,    11.52,    13.90,    13.54,    10.41
      295.0,      12.33,    11.50,    13.88,    13.53,    10.40
      296.0,      12.31,    11.49,    13.86,    13.51,    10.39
      297.0,      12.30,    11.48,    13.84,    13.49,    10.38
      298.0,      12.28,    11.46,    13.82,    13.47,    10.37
      299.0,      12.26,    11.45,    13.80,    13.45,    10.36
      300.0,      12.25,    11.44,    13.78,    13.43,    10.35
      301.0,      12.23,    11.43,    13.75,    13.42,    10.34
      302.0,      12.22,    11.41,    13.73,    13.40,    10.33
      303.0,      12.20,    11.40,    13.71,    13.38,    10.32
      304.0,      12.19,    11.39,    13.69,    13.36,    10.31
      305.0,      12.17,    11.37,    13.67,    13.34,    10.29
      306.0,      12.16,    11.36,    13.65,    13.33,    10.28
      307.0,      12.14,    11.35,    13.63,    13.31,    10.27
      308.0,      12.12,    11.34,    13.61,    13.29,    10.26
      309.0,      12.11,    11.32,    13.59,    13.27,    10.25
      310.0,      12.09,    11.31,    13.57,    13.25,    10.24
