Radius (km), Mean (m/s), NE (m/s), SE (m/s), SW (m/s), NW (m/s)
        0.0,       0.00,     0.00,     0.00,     0.00,     0.00
        1.0,       1.51,     1.56,     1.53,     1.53,     1.42
        2.0,       2.26,     2.30,     2.28,     2.28,     2.19
        3.0,       2.87,     2.88,     2.88,     2.88,     2.83
        4.0,       3.39,     3.39,     3.40,     3.40,     3.39
        5.0,       3.87,     3.84,     3.86,     3.86,     3.90
        6.0,       4.30,     4.25,     4.29,     4.29,     4.37
        7.0,       4.71,     4.63,     4.69,     4.69,     4.82
        8.0,       5.09,     4.99,     5.06,     5.06,     5.24
        9.0,       5.45,     5.33,     5.42,     5.42,     5.64
       10.0,       5.80,     5.66,     5.75,     5.75,     6.03
       11.0,       6.13,     5.97,     6.08,     6.08,     6.40
       12.0,       6.45,     6.27,     6.39,     6.39,     6.76
       13.0,       6.76,     6.55,     6.69,     6.69,     7.11
       14.0,       7.06,     6.83,     6.98,     6.98,     7.45
       15.0,       7.35,     7.10,     7.26,     7.26,     7.78
       16.0,       7.63,     7.36,     7.53,     7.53,     8.10
       17.0,       7.91,     7.62,     7.80,     7.80,     8.42
       18.0,       8.18,     7.87,     8.06,     8.06,     8.72
       19.0,       8.44,     8.11,     8.32,     8.32,     9.03
       20.0,       8.70,     8.34,     8.56,     8.56,     9.32
       21.0,       8.95,     8.58,     8.81,     8.81,     9.61
       22.0,       9.20,     8.80,     9.05,     9.05,     9.90
       23.0,       9.44,     9.02,     9.28,     9.28,    10.18
       24.0,       9.68,     9.24,     9.51,     9.51,    10.45
       25.0,       9.91,     9.46,     9.73,     9.73,    10.73
       26.0,      10.14,     9.67,     9.96,     9.96,    10.99
       27.0,      10.37,     9.87,    10.17,    10.17,    11.26
       28.0,      10.59,    10.08,    10.39,    10.39,    11.52
       29.0,      10.81,    10.28,    10.60,    10.60,    11.77
       30.0,      11.03,    10.47,    10.81,    10.81,    12.03
       31.0,      11.24,    10.67,    11.01,    11.01,    12.28
       32.0,      11.45,    10.86,    11.22,    11.22,    12.52
       33.0,      11.66,    11.05,    11.42,    11.42,    12.77
       34.0,      11.87,    11.23,    11.61,    11.61,    13.01
       35.0,      12.07,    11.42,    11.81,    11.81,    13.25
       36.0,      12.27,    11.60,    12.00,    12.00,    13.49
       37.0,      12.47,    11.78,    12.19,    12.19,    13.72
       38.0,      12.67,    11.96,    12.38,    12.38,    13.95
       39.0,      12.86,    12.13,    12.57,    12.57,    14.18
       40.0,      13.05,    12.31,    12.75,    12.75,    14.41
       41.0,      13.24,    12.48,    12.93,    12.93,    14.64
       42.0,      13.43,    12.65,    13.11,    13.11,    14.86
       43.0,      13.62,    12.81,    13.29,    13.29,    15.08
       44.0,      13.80,    12.98,    13.47,    13.47,    15.30
       45.0,      13.99,    13.14,    13.64,    13.64,    15.52
       46.0,      14.17,    13.31,    13.81,    13.81,    15.73
       47.0,      14.35,    13.47,    13.99,    13.99,    15.95
       48.0,      14.52,    13.63,    14.16,    14.16,    16.16
       49.0,      14.70,    13.79,    14.32,    14.32,    16.37
       50.0,      14.88,    13.94,    14.49,    14.49,    16.58
       51.0,      15.05,    14.10,    14.66,    14.66,    16.79
       52.0,      15.22,    14.25,    14.82,    14.82,    16.99
       53.0,      15.39,    14.41,    14.98,    14.98,    17.20
       54.0,      15.56,    14.56,    15.15,    15.15,    17.40
       55.0,      15.73,    14.71,    15.31,    15.31,    17.60
       56.0,      15.90,    14.86,    15.47,    15.47,    17.80
       57.0,      16.06,    15.01,    15.62,    15.62,    18.00
       58.0,      16.23,    15.15,    15.78,    15.78,    18.20
       59.0,      16.39,    15.30,    15.94,    15.94,    18.40
       60.0,      16.55,    15.44,    16.09,    16.09,    18.59
       61.0,      16.72,    15.59,    16.24,    16.24,    18.79
       62.0,      16.88,    15.73,    16.40,    16.40,    18.98
       63.0,      17.03,    15.87,    16.55,    16.55,    19.17
       64.0,      17.19,    16.01,    16.70,    16.70,    19.36
       65.0,      17.35,    16.15,    16.85,    16.85,    19.55
       66.0,      17.51,    16.29,    16.99,    16.99,    19.74
       67.0,      17.66,    16.43,    17.14,    17.14,    19.93
       68.0,      17.81,    16.57,    17.29,    17.29,    20.11
       69.0,      17.97,    16.70,    17.43,    17.43,    20.30
       70.0,      18.12,    16.84,    17.58,    17.58,    20.48
       71.0,      18.27,    16.97,    17.72,    17.72,    20.67
       72.0,      18.42,    17.11,    17.86,    17.86,    20.85
       73.0,      18.57,    17.24,    18.01,    18.01,    21.03
       74.0,      18.72,    17.37,    18.15,    18.15,    21.21
       75.0,      18.87,    17.50,    18.29,    18.29,    21.39
       76.0,      19.01,    17.63,    18.43,    18.43,    21.57
       77.0,      19.16,    17.76,    18.57,    18.57,    21.75
       78.0,      19.31,    17.89,    18.70,    18.71,    21.92
       79.0,      19.46,    18.02,    18.84,    18.85,    22.11
       80.0,      19.61,    18.15,    18.99,    19.00,    22.31
       81.0,      19.79,    18.30,    19.15,    19.18,    22.54
       82.0,      19.99,    18.46,    19.32,    19.37,    22.80
       83.0,      20.21,    18.63,    19.51,    19.59,    23.12
       84.0,      20.45,    18.82,    19.71,    19.82,    23.46
       85.0,      20.70,    19.02,    19.92,    20.06,    23.82
       86.0,      20.94,    19.21,    20.12,    20.28,    24.16
       87.0,      21.16,    19.39,    20.31,    20.47,    24.46
       88.0,      21.33,    19.54,    20.47,    20.63,    24.68
       89.0,      21.44,    19.65,    20.58,    20.73,    24.81
       90.0,      21.49,    19.72,    20.66,    20.77,    24.83
       91.0,      21.48,    19.74,    20.68,    20.76,    24.75
       92.0,      21.41,    19.72,    20.67,    20.70,    24.57
       93.0,      21.30,    19.67,    20.62,    20.60,    24.31
       94.0,      21.15,    19.59,    20.54,    20.47,    24.00
       95.0,      20.98,    19.49,    20.45,    20.33,    23.66
       96.0,      20.81,    19.38,    20.35,    20.18,    23.31
       97.0,      20.63,    19.27,    20.25,    20.04,    22.97
       98.0,      20.47,    19.17,    20.16,    19.91,    22.65
       99.0,      20.32,    19.07,    20.07,    19.79,    22.35
      100.0,      20.17,    18.97,    19.99,    19.67,    22.07
      101.0,      20.04,    18.88,    19.91,    19.56,    21.80
      102.0,      19.90,    18.79,    19.84,    19.45,    21.54
      103.0,      19.77,    18.69,    19.76,    19.34,    21.28
      104.0,      19.64,    18.60,    19.69,    19.24,    21.04
      105.0,      19.52,    18.51,    19.62,    19.14,    20.81
      106.0,      19.40,    18.43,    19.55,    19.04,    20.59
      107.0,      19.29,    18.34,    19.49,    18.95,    20.37
      108.0,      19.17,    18.25,    19.42,    18.86,    20.16
      109.0,      19.07,    18.17,    19.36,    18.77,    19.96
      110.0,      18.96,    18.08,    19.30,    18.69,    19.77
      111.0,      18.86,    18.00,    19.24,    18.61,    19.58
      112.0,      18.76,    17.92,    19.18,    18.53,    19.40
      113.0,      18.66,    17.83,    19.12,    18.45,    19.23
      114.0,      18.57,    17.75,    19.07,    18.38,    19.06
      115.0,      18.47,    17.67,    19.01,    18.31,    18.90
      116.0,      18.38,    17.59,    18.96,    18.24,    18.75
      117.0,      18.30,    17.51,    18.91,    18.17,    18.60
      118.0,      18.21,    17.44,    18.86,    18.11,    18.45
      119.0,      18.13,    17.36,    18.81,    18.04,    18.31
      120.0,      18.05,    17.28,    18.76,    17.98,    18.18
      121.0,      17.97,    17.21,    18.71,    17.92,    18.05
      122.0,      17.90,    17.13,    18.66,    17.86,    17.92
      123.0,      17.82,    17.06,    18.62,    17.81,    17.80
      124.0,      17.75,    16.99,    18.57,    17.75,    17.68
      125.0,      17.68,    16.92,    18.53,    17.70,    17.57
      126.0,      17.61,    16.85,    18.48,    17.64,    17.46
      127.0,      17.54,    16.77,    18.44,    17.59,    17.36
      128.0,      17.48,    16.70,    18.40,    17.54,    17.25
      129.0,      17.41,    16.64,    18.36,    17.50,    17.16
      130.0,      17.35,    16.57,    18.32,    17.45,    17.06
      131.0,      17.29,    16.50,    18.28,    17.40,    16.97
      132.0,      17.23,    16.43,    18.24,    17.36,    16.88
      133.0,      17.17,    16.37,    18.20,    17.32,    16.79
      134.0,      17.11,    16.30,    18.16,    17.27,    16.71
      135.0,      17.06,    16.24,    18.12,    17.23,    16.63
      136.0,      17.00,    16.17,    18.09,    17.19,    16.55
      137.0,      16.95,    16.11,    18.05,    17.15,    16.48
      138.0,      16.89,    16.05,    18.01,    17.11,    16.40
      139.0,      16.84,    15.98,    17.98,    17.08,    16.33
      140.0,      16.79,    15.92,    17.94,    17.04,    16.26
      141.0,      16.74,    15.86,    17.91,    17.00,    16.20
      142.0,      16.69,    15.80,    17.88,    16.97,    16.13
      143.0,      16.65,    15.74,    17.84,    16.93,    16.07
      144.0,      16.60,    15.68,    17.81,    16.90,    16.01
      145.0,      16.55,    15.62,    17.78,    16.87,    15.95
      146.0,      16.51,    15.57,    17.74,    16.84,    15.89
      147.0,      16.47,    15.51,    17.71,    16.80,    15.84
      148.0,      16.42,    15.45,    17.68,    16.77,    15.78
      149.0,      16.38,    15.40,    17.65,    16.74,    15.73
      150.0,      16.34,    15.34,    17.62,    16.71,    15.68
      151.0,      16.30,    15.29,    17.59,    16.68,    15.63
      152.0,      16.26,    15.23,    17.56,    16.65,    15.58
      153.0,      16.22,    15.18,    17.53,    16.63,    15.53
      154.0,      16.18,    15.12,    17.50,    16.60,    15.49
      155.0,      16.14,    15.07,    17.47,    16.57,    15.44
      156.0,      16.10,    15.02,    17.44,    16.54,    15.40
      157.0,      16.06,    14.97,    17.41,    16.52,    15.36
      158.0,      16.03,    14.92,    17.38,    16.49,    15.32
      159.0,      15.99,    14.86,    17.35,    16.47,    15.28
      160.0,      15.96,    14.81,    17.33,    16.44,    15.24
      161.0,      15.92,    14.76,    17.30,    16.42,    15.20
      162.0,      15.89,    14.71,    17.27,    16.39,    15.16
      163.0,      15.85,    14.67,    17.24,    16.37,    15.13
      164.0,      15.82,    14.62,    17.22,    16.34,    15.09
      165.0,      15.78,    14.57,    17.19,    16.32,    15.06
      166.0,      15.75,    14.52,    17.16,    16.30,    15.02
      167.0,      15.72,    14.48,    17.14,    16.27,    14.99
      168.0,      15.69,    14.43,    17.11,    16.25,    14.96
      169.0,      15.66,    14.38,    17.08,    16.23,    14.93
      170.0,      15.62,    14.34,    17.06,    16.21,    14.90
      171.0,      15.59,    14.29,    17.03,    16.18,    14.87
      172.0,      15.56,    14.25,    17.01,    16.16,    14.84
      173.0,      15.53,    14.20,    16.98,    16.14,    14.81
      174.0,      15.50,    14.16,    16.95,    16.12,    14.78
      175.0,      15.47,    14.12,    16.93,    16.10,    14.75
      176.0,      15.44,    14.07,    16.90,    16.08,    14.72
      177.0,      15.42,    14.03,    16.88,    16.06,    14.70
      178.0,      15.39,    13.99,    16.85,    16.04,    14.67
      179.0,      15.36,    13.95,    16.83,    16.02,    14.64
      180.0,      15.33,    13.90,    16.80,    16.00,    14.62
      181.0,      15.30,    13.86,    16.78,    15.98,    14.59
      182.0,      15.28,    13.82,    16.76,    15.96,    14.57
      183.0,      15.25,    13.78,    16.73,    15.94,    14.55
      184.0,      15.22,    13.74,    16.71,    15.92,    14.52
      185.0,      15.20,    13.70,    16.68,    15.90,    14.50
      186.0,      15.17,    13.66,    16.66,    15.88,    14.48
      187.0,      15.14,    13.62,    16.63,    15.86,    14.45
      188.0,      15.12,    13.59,    16.61,    15.84,    14.43
      189.0,      15.09,    13.55,    16.59,    15.82,    14.41
      190.0,      15.07,    13.51,    16.56,    15.81,    14.39
      191.0,      15.04,    13.47,    16.54,    15.79,    14.36
      192.0,      15.02,    13.43,    16.52,    15.77,    14.34
      193.0,      14.99,    13.40,    16.49,    15.75,    14.32
      194.0,      14.97,    13.36,    16.47,    15.73,    14.30
      195.0,      14.94,    13.33,    16.45,    15.72,    14.28
      196.0,      14.92,    13.29,    16.42,    15.70,    14.26
      197.0,      14.89,    13.25,    16.40,    15.68,    14.24
      198.0,      14.87,    13.22,    16.38,    15.66,    14.22
      199.0,      14.85,    13.18,    16.35,    15.64,    14.20
      200.0,      14.82,    13.15,    16.33,    15.63,    14.18
      201.0,      14.80,    13.11,    16.31,    15.61,    14.16
      202.0,      14.78,    13.08,    16.29,    15.59,    14.15
      203.0,      14.75,    13.05,    16.26,    15.58,    14.13
      204.0,      14.73,    13.01,    16.24,    15.56,    14.11
      205.0,      14.71,    12.98,    16.22,    15.54,    14.09
      206.0,      14.69,    12.95,    16.20,    15.52,    14.07
      207.0,      14.66,    12.92,    16.17,    15.51,    14.05
      208.0,      14.64,    12.88,    16.15,    15.49,    14.04
      209.0,      14.62,    12.85,    16.13,    15.47,    14.02
      210.0,      14.60,    12.82,    16.11,    15.46,    14.00
      211.0,      14.57,    12.79,    16.08,    15.44,    13.98
      212.0,      14.55,    12.76,    16.06,    15.42,    13.97
      213.0,      14.53,    12.73,    16.04,    15.41,    13.95
      214.0,      14.51,    12.69,    16.02,    15.39,    13.93
      215.0,      14.49,    12.66,    16.00,    15.38,    13.92
      216.0,      14.47,    12.63,    15.97,    15.36,    13.90
      217.0,      14.45,    12.60,    15.95,    15.34,    13.88
      218.0,      14.42,    12.57,    15.93,    15.33,    13.87
      219.0,      14.40,    12.55,    15.91,    15.31,    13.85
      220.0,      14.38,    12.52,    15.89,    15.29,    13.83
      221.0,      14.36,    12.49,    15.86,    15.28,    13.82
      222.0,      14.34,    12.46,    15.84,    15.26,    13.80
      223.0,      14.32,    12.43,    15.82,    15.25,    13.79
      224.0,      14.30,    12.40,    15.80,    15.23,    13.77
      225.0,      14.28,    12.37,    15.78,    15.21,    13.75
      226.0,      14.26,    12.35,    15.76,    15.20,    13.74
      227.0,      14.24,    12.32,    15.74,    15.18,    13.72
      228.0,      14.22,    12.29,    15.71,    15.17,    13.71
      229.0,      14.20,    12.26,    15.69,    15.15,    13.69
      230.0,      14.18,    12.24,    15.67,    15.14,    13.68
      231.0,      14.16,    12.21,    15.65,    15.12,    13.66
      232.0,      14.14,    12.18,    15.63,    15.10,    13.65
      233.0,      14.12,    12.16,    15.61,    15.09,    13.63
      234.0,      14.10,    12.13,    15.59,    15.07,    13.62
      235.0,      14.08,    12.10,    15.57,    15.06,    13.60
      236.0,      14.06,    12.08,    15.54,    15.04,    13.59
      237.0,      14.04,    12.05,    15.52,    15.03,    13.57
      238.0,      14.02,    12.03,    15.50,    15.01,    13.56
      239.0,      14.01,    12.00,    15.48,    15.00,    13.54
      240.0,      13.99,    11.98,    15.46,    14.98,    13.53
      241.0,      13.97,    11.95,    15.44,    14.97,    13.51
      242.0,      13.95,    11.93,    15.42,    14.95,    13.50
      243.0,      13.93,    11.90,    15.40,    14.93,    13.48
      244.0,      13.91,    11.88,    15.38,    14.92,    13.47
      245.0,      13.89,    11.86,    15.36,    14.90,    13.45
      246.0,      13.87,    11.83,    15.34,    14.89,    13.44
      247.0,      13.86,    11.81,    15.32,    14.87,    13.42
      248.0,      13.84,    11.79,    15.29,    14.86,    13.41
      249.0,      13.82,    11.76,    15.27,    14.84,    13.40
      250.0,      13.80,    11.74,    15.25,    14.83,    13.38
      251.0,      13.78,    11.72,    15.23,    14.81,    13.37
      252.0,      13.76,    11.69,    15.21,    14.80,    13.35
      253.0,      13.75,    11.67,    15.19,    14.78,    13.34
      254.0,      13.73,    11.65,    15.17,    14.77,    13.32
      255.0,      13.71,    11.63,    15.15,    14.75,    13.31
      256.0,      13.69,    11.60,    15.13,    14.74,    13.30
      257.0,      13.67,    11.58,    15.11,    14.72,    13.28
      258.0,      13.66,    11.56,    15.09,    14.71,    13.27
      259.0,      13.64,    11.54,    15.07,    14.69,    13.25
      260.0,      13.62,    11.52,    15.05,    14.68,    13.24
      261.0,      13.60,    11.49,    15.03,    14.66,    13.23
      262.0,      13.59,    11.47,    15.01,    14.65,    13.21
      263.0,      13.57,    11.45,    14.99,    14.63,    13.20
      264.0,      13.55,    11.43,    14.97,    14.62,    13.18
      265.0,      13.53,    11.41,    14.95,    14.61,    13.17
      266.0,      13.52,    11.39,    14.93,    14.59,    13.16
      267.0,      13.50,    11.37,    14.91,    14.58,    13.14
      268.0,      13.48,    11.35,    14.89,    14.56,    13.13
      269.0,      13.46,    11.33,    14.87,    14.55,    13.12
      270.0,      13.45,    11.31,    14.85,    14.53,    13.10
      271.0,      13.43,    11.29,    14.83,    14.52,    13.09
      272.0,      13.41,    11.27,    14.81,    14.50,    13.08
      273.0,      13.40,    11.25,    14.79,    14.49,    13.06
      274.0,      13.38,    11.23,    14.77,    14.47,    13.05
      275.0,      13.36,    11.21,    14.75,    14.46,    13.03
      276.0,      13.35,    11.19,    14.73,    14.44,    13.02
      277.0,      13.33,    11.17,    14.71,    14.43,    13.01
      278.0,      13.31,    11.15,    14.69,    14.42,    12.99
      279.0,      13.30,    11.13,    14.67,    14.40,    12.98
      280.0,      13.28,    11.11,    14.65,    14.39,    12.97
      281.0,      13.26,    11.09,    14.63,    14.37,    12.95
      282.0,      13.25,    11.07,    14.61,    14.36,    12.94
      283.0,      13.23,    11.06,    14.59,    14.34,    12.93
      284.0,      13.21,    11.04,    14.57,    14.33,    12.91
      285.0,      13.20,    11.02,    14.55,    14.31,    12.90
      286.0,      13.18,    11.00,    14.53,    14.30,    12.89
      287.0,      13.16,    10.98,    14.51,    14.29,    12.87
      288.0,      13.15,    10.96,    14.49,    14.27,    12.86
      289.0,      13.13,    10.95,    14.47,    14.26,    12.85
      290.0,      13.12,    10.93,    14.45,    14.24,    12.83
      291.0,      13.10,    10.91,    14.44,    14.23,    12.82
      292.0,      13.08,    10.89,    14.42,    14.21,    12.81
      293.0,      13.07,    10.88,    14.40,    14.20,    12.79
      294.0,      13.05,    10.86,    14.38,    14.19,    12.78
      295.0,      13.03,    10.84,    14.36,    14.17,    12.77
      296.0,      13.02,    10.82,    14.34,    14.16,    12.75
      297.0,      13.00,    10.81,    14.32,    14.14,    12.74
      298.0,      12.99,    10.79,    14.30,    14.13,    12.73
      299.0,      12.97,    10.77,    14.28,    14.11,    12.72
      300.0,      12.96,    10.76,    14.26,    14.10,    12.70
      301.0,      12.94,    10.74,    14.24,    14.09,    12.69
      302.0,      12.92,    10.72,    14.22,    14.07,    12.68
      303.0,      12.91,    10.71,    14.21,    14.06,    12.66
      304.0,      12.89,    10.69,    14.19,    14.04,    12.65
      305.0,      12.88,    10.67,    14.17,    14.03,    12.64
      306.0,      12.86,    10.66,    14.15,    14.02,    12.62
      307.0,      12.85,    10.64,    14.13,    14.00,    12.61
      308.0,      12.83,    10.62,    14.11,    13.99,    12.60
      309.0,      12.81,    10.61,    14.09,    13.97,    12.59
      310.0,      12.80,    10.59,    14.07,    13.96,    12.57
