Radius (km), Mean (m/s), NE (m/s), SE (m/s), SW (m/s), NW (m/s)
        0.0,       0.00,     0.00,     0.00,     0.00,     0.00
        1.0,       1.14,     1.12,     1.12,     1.13,     1.20
        2.0,       1.70,     1.68,     1.68,     1.69,     1.75
        3.0,       2.14,     2.13,     2.13,     2.13,     2.18
        4.0,       2.53,     2.52,     2.52,     2.52,     2.55
        5.0,       2.87,     2.86,     2.86,     2.87,     2.88
        6.0,       3.18,     3.18,     3.18,     3.19,     3.18
        7.0,       3.48,     3.48,     3.48,     3.48,     3.46
        8.0,       3.75,     3.77,     3.77,     3.76,     3.72
        9.0,       4.02,     4.03,     4.03,     4.03,     3.97
       10.0,       4.27,     4.29,     4.29,     4.28,     4.20
       11.0,       4.50,     4.53,     4.53,     4.52,     4.43
       12.0,       4.73,     4.77,     4.77,     4.76,     4.64
       13.0,       4.96,     5.00,     5.00,     4.98,     4.85
       14.0,       5.17,     5.22,     5.22,     5.20,     5.05
       15.0,       5.38,     5.43,     5.43,     5.41,     5.24
       16.0,       5.58,     5.64,     5.64,     5.62,     5.43
       17.0,       5.78,     5.84,     5.84,     5.82,     5.61
       18.0,       5.97,     6.04,     6.04,     6.01,     5.79
       19.0,       6.16,     6.23,     6.23,     6.21,     5.97
       20.0,       6.34,     6.42,     6.42,     6.39,     6.13
       21.0,       6.52,     6.60,     6.60,     6.58,     6.30
       22.0,       6.70,     6.79,     6.79,     6.75,     6.46
       23.0,       6.87,     6.96,     6.96,     6.93,     6.62
       24.0,       7.04,     7.14,     7.14,     7.10,     6.78
       25.0,       7.21,     7.31,     7.31,     7.27,     6.93
       26.0,       7.37,     7.48,     7.48,     7.44,     7.08
       27.0,       7.53,     7.65,     7.65,     7.60,     7.23
       28.0,       7.69,     7.81,     7.81,     7.76,     7.37
       29.0,       7.84,     7.97,     7.97,     7.92,     7.51
       30.0,       8.00,     8.13,     8.13,     8.08,     7.65
       31.0,       8.15,     8.29,     8.29,     8.24,     7.79
       32.0,       8.30,     8.44,     8.44,     8.39,     7.93
       33.0,       8.45,     8.59,     8.59,     8.54,     8.06
       34.0,       8.59,     8.74,     8.74,     8.69,     8.19
       35.0,       8.74,     8.89,     8.89,     8.83,     8.32
       36.0,       8.88,     9.04,     9.04,     8.98,     8.45
       37.0,       9.02,     9.19,     9.19,     9.12,     8.58
       38.0,       9.16,     9.33,     9.33,     9.26,     8.71
       39.0,       9.29,     9.47,     9.47,     9.40,     8.83
       40.0,       9.43,     9.61,     9.61,     9.54,     8.95
       41.0,       9.56,     9.75,     9.75,     9.68,     9.07
       42.0,       9.70,     9.89,     9.89,     9.82,     9.19
       43.0,       9.83,    10.02,    10.02,     9.95,     9.31
       44.0,       9.96,    10.16,    10.16,    10.08,     9.43
       45.0,      10.09,    10.29,    10.29,    10.22,     9.55
       46.0,      10.21,    10.43,    10.43,    10.35,     9.66
       47.0,      10.34,    10.56,    10.56,    10.48,     9.77
       48.0,      10.47,    10.69,    10.69,    10.60,     9.89
       49.0,      10.59,    10.82,    10.82,    10.73,    10.00
       50.0,      10.71,    10.95,    10.95,    10.86,    10.11
       51.0,      10.84,    11.07,    11.07,    10.98,    10.22
       52.0,      10.96,    11.20,    11.20,    11.11,    10.33
       53.0,      11.08,    11.32,    11.32,    11.23,    10.44
       54.0,      11.20,    11.45,    11.45,    11.35,    10.54
       55.0,      11.32,    11.57,    11.57,    11.47,    10.65
       56.0,      11.43,    11.69,    11.69,    11.59,    10.75
       57.0,      11.55,    11.81,    11.81,    11.71,    10.86
       58.0,      11.66,    11.93,    11.93,    11.83,    10.96
       59.0,      11.78,    12.05,    12.05,    11.95,    11.06
       60.0,      11.89,    12.17,    12.17,    12.06,    11.17
       61.0,      12.01,    12.29,    12.29,    12.18,    11.27
       62.0,      12.12,    12.41,    12.41,    12.29,    11.37
       63.0,      12.23,    12.52,    12.52,    12.41,    11.47
       64.0,      12.34,    12.64,    12.64,    12.52,    11.57
       65.0,      12.45,    12.75,    12.75,    12.64,    11.66
       66.0,      12.56,    12.87,    12.87,    12.75,    11.76
       67.0,      12.67,    12.98,    12.98,    12.86,    11.86
       68.0,      12.78,    13.09,    13.09,    12.97,    11.96
       69.0,      12.88,    13.20,    13.20,    13.08,    12.05
       70.0,      12.99,    13.31,    13.31,    13.19,    12.15
       71.0,      13.10,    13.42,    13.42,    13.30,    12.24
       72.0,      13.20,    13.53,    13.53,    13.40,    12.33
       73.0,      13.31,    13.64,    13.64,    13.51,    12.43
       74.0,      13.41,    13.75,    13.75,    13.62,    12.52
       75.0,      13.51,    13.86,    13.86,    13.73,    12.61
       76.0,      13.62,    13.97,    13.97,    13.83,    12.70
       77.0,      13.72,    14.07,    14.07,    13.94,    12.79
       78.0,      13.82,    14.18,    14.18,    14.04,    12.88
       79.0,      13.92,    14.29,    14.29,    14.14,    12.97
       80.0,      14.02,    14.39,    14.39,    14.25,    13.06
       81.0,      14.12,    14.49,    14.49,    14.35,    13.15
       82.0,      14.22,    14.60,    14.60,    14.45,    13.24
       83.0,      14.32,    14.70,    14.70,    14.55,    13.33
       84.0,      14.42,    14.80,    14.80,    14.65,    13.42
       85.0,      14.52,    14.91,    14.91,    14.75,    13.50
       86.0,      14.62,    15.01,    15.01,    14.86,    13.59
       87.0,      14.71,    15.11,    15.11,    14.95,    13.67
       88.0,      14.81,    15.21,    15.21,    15.05,    13.76
       89.0,      14.91,    15.31,    15.31,    15.15,    13.84
       90.0,      15.00,    15.41,    15.41,    15.25,    13.93
       91.0,      15.10,    15.51,    15.51,    15.35,    14.01
       92.0,      15.19,    15.61,    15.61,    15.45,    14.10
       93.0,      15.29,    15.71,    15.71,    15.54,    14.18
       94.0,      15.38,    15.81,    15.81,    15.64,    14.26
       95.0,      15.47,    15.90,    15.90,    15.73,    14.35
       96.0,      15.57,    16.00,    16.00,    15.83,    14.43
       97.0,      15.66,    16.10,    16.10,    15.93,    14.51
       98.0,      15.75,    16.20,    16.20,    16.02,    14.59
       99.0,      15.84,    16.29,    16.29,    16.11,    14.67
      100.0,      15.93,    16.39,    16.39,    16.21,    14.75
      101.0,      16.02,    16.48,    16.48,    16.30,    14.83
      102.0,      16.12,    16.58,    16.58,    16.40,    14.91
      103.0,      16.21,    16.67,    16.67,    16.49,    14.99
      104.0,      16.30,    16.77,    16.77,    16.58,    15.07
      105.0,      16.39,    16.86,    16.86,    16.67,    15.15
      106.0,      16.47,    16.95,    16.95,    16.76,    15.23
      107.0,      16.56,    17.05,    17.05,    16.86,    15.31
      108.0,      16.65,    17.14,    17.14,    16.95,    15.39
      109.0,      16.74,    17.23,    17.23,    17.04,    15.46
      110.0,      16.83,    17.32,    17.32,    17.13,    15.54
      111.0,      16.91,    17.41,    17.41,    17.22,    15.62
      112.0,      17.00,    17.50,    17.50,    17.31,    15.69
      113.0,      17.09,    17.60,    17.60,    17.40,    15.77
      114.0,      17.18,    17.69,    17.69,    17.48,    15.85
      115.0,      17.26,    17.78,    17.78,    17.57,    15.92
      116.0,      17.35,    17.87,    17.87,    17.66,    16.00
      117.0,      17.43,    17.96,    17.96,    17.75,    16.07
      118.0,      17.52,    18.04,    18.04,    17.84,    16.15
      119.0,      17.60,    18.13,    18.13,    17.92,    16.22
      120.0,      17.69,    18.22,    18.22,    18.01,    16.29
      121.0,      17.77,    18.31,    18.31,    18.10,    16.37
      122.0,      17.86,    18.40,    18.40,    18.18,    16.44
      123.0,      17.94,    18.49,    18.49,    18.27,    16.52
      124.0,      18.02,    18.57,    18.57,    18.35,    16.59
      125.0,      18.11,    18.66,    18.66,    18.44,    16.66
      126.0,      18.19,    18.75,    18.75,    18.53,    16.73
      127.0,      18.27,    18.83,    18.83,    18.61,    16.81
      128.0,      18.35,    18.92,    18.92,    18.69,    16.88
      129.0,      18.44,    19.01,    19.01,    18.78,    16.95
      130.0,      18.52,    19.09,    19.09,    18.86,    17.02
      131.0,      18.60,    19.18,    19.18,    18.95,    17.09
      132.0,      18.68,    19.26,    19.26,    19.03,    17.16
      133.0,      18.76,    19.35,    19.35,    19.11,    17.23
      134.0,      18.84,    19.43,    19.43,    19.20,    17.31
      135.0,      18.92,    19.52,    19.52,    19.28,    17.38
      136.0,      19.00,    19.60,    19.60,    19.36,    17.45
      137.0,      19.08,    19.68,    19.68,    19.44,    17.52
      138.0,      19.16,    19.77,    19.77,    19.53,    17.58
      139.0,      19.24,    19.85,    19.85,    19.61,    17.65
      140.0,      19.32,    19.93,    19.93,    19.69,    17.72
      141.0,      19.40,    20.02,    20.02,    19.77,    17.79
      142.0,      19.48,    20.10,    20.10,    19.85,    17.86
      143.0,      19.56,    20.18,    20.18,    19.93,    17.93
      144.0,      19.63,    20.26,    20.26,    20.01,    18.00
      145.0,      19.71,    20.34,    20.34,    20.09,    18.07
      146.0,      19.79,    20.43,    20.43,    20.17,    18.13
      147.0,      19.87,    20.51,    20.51,    20.25,    18.20
      148.0,      19.94,    20.59,    20.59,    20.33,    18.27
      149.0,      20.02,    20.67,    20.67,    20.41,    18.34
      150.0,      20.10,    20.75,    20.75,    20.49,    18.40
      151.0,      20.17,    20.83,    20.83,    20.57,    18.47
      152.0,      20.25,    20.91,    20.91,    20.65,    18.54
      153.0,      20.33,    20.99,    20.99,    20.73,    18.60
      154.0,      20.41,    21.07,    21.07,    20.81,    18.67
      155.0,      20.49,    21.15,    21.16,    20.89,    18.74
      156.0,      20.58,    21.24,    21.27,    21.00,    18.83
      157.0,      20.69,    21.35,    21.39,    21.11,    18.93
      158.0,      20.82,    21.47,    21.53,    21.25,    19.05
      159.0,      20.97,    21.61,    21.68,    21.39,    19.19
      160.0,      21.12,    21.77,    21.84,    21.54,    19.34
      161.0,      21.27,    21.93,    21.99,    21.68,    19.48
      162.0,      21.39,    22.06,    22.11,    21.79,    19.60
      163.0,      21.48,    22.17,    22.19,    21.87,    19.68
      164.0,      21.52,    22.22,    22.23,    21.91,    19.71
      165.0,      21.50,    22.22,    22.21,    21.90,    19.68
      166.0,      21.43,    22.15,    22.14,    21.84,    19.59
      167.0,      21.30,    22.01,    22.02,    21.74,    19.44
      168.0,      21.14,    21.83,    21.87,    21.61,    19.25
      169.0,      20.94,    21.60,    21.69,    21.45,    19.02
      170.0,      20.73,    21.35,    21.50,    21.29,    18.78
      171.0,      20.51,    21.08,    21.31,    21.12,    18.54
      172.0,      20.30,    20.83,    21.12,    20.97,    18.30
      173.0,      20.11,    20.58,    20.95,    20.82,    18.08
      174.0,      19.92,    20.35,    20.79,    20.68,    17.87
      175.0,      19.75,    20.14,    20.64,    20.55,    17.68
      176.0,      19.59,    19.94,    20.49,    20.42,    17.50
      177.0,      19.43,    19.75,    20.35,    20.30,    17.32
      178.0,      19.28,    19.57,    20.22,    20.18,    17.15
      179.0,      19.14,    19.40,    20.09,    20.07,    16.99
      180.0,      19.00,    19.23,    19.96,    19.96,    16.83
      181.0,      18.86,    19.06,    19.84,    19.85,    16.68
      182.0,      18.73,    18.91,    19.72,    19.75,    16.53
      183.0,      18.60,    18.75,    19.61,    19.65,    16.39
      184.0,      18.48,    18.61,    19.50,    19.56,    16.26
      185.0,      18.36,    18.46,    19.39,    19.46,    16.13
      186.0,      18.25,    18.33,    19.29,    19.37,    16.00
      187.0,      18.14,    18.19,    19.19,    19.29,    15.88
      188.0,      18.03,    18.06,    19.10,    19.20,    15.76
      189.0,      17.93,    17.94,    19.00,    19.12,    15.65
      190.0,      17.83,    17.82,    18.91,    19.04,    15.54
      191.0,      17.73,    17.70,    18.83,    18.97,    15.43
      192.0,      17.64,    17.59,    18.74,    18.89,    15.33
      193.0,      17.55,    17.48,    18.66,    18.82,    15.23
      194.0,      17.46,    17.37,    18.58,    18.75,    15.14
      195.0,      17.38,    17.27,    18.51,    18.68,    15.04
      196.0,      17.29,    17.17,    18.43,    18.62,    14.95
      197.0,      17.21,    17.08,    18.36,    18.55,    14.87
      198.0,      17.14,    16.98,    18.29,    18.49,    14.79
      199.0,      17.06,    16.89,    18.22,    18.43,    14.71
      200.0,      16.99,    16.80,    18.16,    18.37,    14.63
      201.0,      16.92,    16.72,    18.09,    18.31,    14.55
      202.0,      16.85,    16.64,    18.03,    18.26,    14.48
      203.0,      16.79,    16.56,    17.97,    18.20,    14.41
      204.0,      16.72,    16.48,    17.91,    18.15,    14.34
      205.0,      16.66,    16.40,    17.86,    18.10,    14.28
      206.0,      16.60,    16.33,    17.80,    18.05,    14.21
      207.0,      16.54,    16.26,    17.75,    18.00,    14.15
      208.0,      16.48,    16.19,    17.69,    17.96,    14.09
      209.0,      16.43,    16.12,    17.64,    17.91,    14.03
      210.0,      16.37,    16.05,    17.59,    17.87,    13.98
      211.0,      16.32,    15.99,    17.55,    17.82,    13.92
      212.0,      16.27,    15.93,    17.50,    17.78,    13.87
      213.0,      16.22,    15.87,    17.45,    17.74,    13.82
      214.0,      16.17,    15.81,    17.41,    17.70,    13.77
      215.0,      16.12,    15.75,    17.37,    17.66,    13.72
      216.0,      16.08,    15.70,    17.32,    17.62,    13.67
      217.0,      16.03,    15.64,    17.28,    17.58,    13.63
      218.0,      15.99,    15.59,    17.24,    17.54,    13.58
      219.0,      15.95,    15.54,    17.20,    17.51,    13.54
      220.0,      15.90,    15.48,    17.16,    17.47,    13.50
      221.0,      15.86,    15.43,    17.13,    17.44,    13.46
      222.0,      15.82,    15.39,    17.09,    17.40,    13.42
      223.0,      15.78,    15.34,    17.05,    17.37,    13.38
      224.0,      15.75,    15.29,    17.02,    17.34,    13.34
      225.0,      15.71,    15.25,    16.98,    17.30,    13.30
      226.0,      15.67,    15.20,    16.95,    17.27,    13.27
      227.0,      15.64,    15.16,    16.92,    17.24,    13.23
      228.0,      15.60,    15.12,    16.88,    17.21,    13.20
      229.0,      15.57,    15.08,    16.85,    17.18,    13.17
      230.0,      15.54,    15.03,    16.82,    17.15,    13.14
      231.0,      15.50,    14.99,    16.79,    17.12,    13.10
      232.0,      15.47,    14.96,    16.76,    17.09,    13.07
      233.0,      15.44,    14.92,    16.73,    17.07,    13.04
      234.0,      15.41,    14.88,    16.70,    17.04,    13.01
      235.0,      15.38,    14.84,    16.67,    17.01,    12.99
      236.0,      15.35,    14.81,    16.65,    16.99,    12.96
      237.0,      15.32,    14.77,    16.62,    16.96,    12.93
      238.0,      15.29,    14.74,    16.59,    16.93,    12.90
      239.0,      15.26,    14.70,    16.56,    16.91,    12.88
      240.0,      15.24,    14.67,    16.54,    16.88,    12.85
      241.0,      15.21,    14.63,    16.51,    16.86,    12.83
      242.0,      15.18,    14.60,    16.49,    16.84,    12.80
      243.0,      15.16,    14.57,    16.46,    16.81,    12.78
      244.0,      15.13,    14.54,    16.44,    16.79,    12.75
      245.0,      15.10,    14.51,    16.41,    16.76,    12.73
      246.0,      15.08,    14.47,    16.39,    16.74,    12.71
      247.0,      15.05,    14.44,    16.37,    16.72,    12.69
      248.0,      15.03,    14.41,    16.34,    16.70,    12.66
      249.0,      15.01,    14.38,    16.32,    16.67,    12.64
      250.0,      14.98,    14.36,    16.30,    16.65,    12.62
      251.0,      14.96,    14.33,    16.27,    16.63,    12.60
      252.0,      14.93,    14.30,    16.25,    16.61,    12.58
      253.0,      14.91,    14.27,    16.23,    16.59,    12.56
      254.0,      14.89,    14.24,    16.21,    16.56,    12.54
      255.0,      14.87,    14.22,    16.19,    16.54,    12.52
      256.0,      14.84,    14.19,    16.17,    16.52,    12.50
      257.0,      14.82,    14.16,    16.14,    16.50,    12.48
      258.0,      14.80,    14.13,    16.12,    16.48,    12.46
      259.0,      14.78,    14.11,    16.10,    16.46,    12.45
      260.0,      14.76,    14.08,    16.08,    16.44,    12.43
      261.0,      14.74,    14.06,    16.06,    16.42,    12.41
      262.0,      14.72,    14.03,    16.04,    16.40,    12.39
      263.0,      14.70,    14.01,    16.02,    16.38,    12.37
      264.0,      14.68,    13.98,    16.00,    16.36,    12.36
      265.0,      14.66,    13.96,    15.98,    16.34,    12.34
      266.0,      14.64,    13.93,    15.96,    16.32,    12.32
      267.0,      14.62,    13.91,    15.95,    16.31,    12.31
      268.0,      14.60,    13.88,    15.93,    16.29,    12.29
      269.0,      14.58,    13.86,    15.91,    16.27,    12.27
      270.0,      14.56,    13.84,    15.89,    16.25,    12.26
      271.0,      14.54,    13.81,    15.87,    16.23,    12.24
      272.0,      14.52,    13.79,    15.85,    16.21,    12.23
      273.0,      14.50,    13.77,    15.83,    16.19,    12.21
      274.0,      14.48,    13.74,    15.81,    16.17,    12.20
      275.0,      14.46,    13.72,    15.80,    16.16,    12.18
      276.0,      14.44,    13.70,    15.78,    16.14,    12.16
      277.0,      14.43,    13.68,    15.76,    16.12,    12.15
      278.0,      14.41,    13.65,    15.74,    16.10,    12.13
      279.0,      14.39,    13.63,    15.72,    16.09,    12.12
      280.0,      14.37,    13.61,    15.71,    16.07,    12.11
      281.0,      14.35,    13.59,    15.69,    16.05,    12.09
      282.0,      14.34,    13.56,    15.67,    16.03,    12.08
      283.0,      14.32,    13.54,    15.65,    16.01,    12.06
      284.0,      14.30,    13.52,    15.64,    16.00,    12.05
      285.0,      14.28,    13.50,    15.62,    15.98,    12.03
      286.0,      14.27,    13.48,    15.60,    15.96,    12.02
      287.0,      14.25,    13.46,    15.59,    15.95,    12.01
      288.0,      14.23,    13.44,    15.57,    15.93,    11.99
      289.0,      14.21,    13.42,    15.55,    15.91,    11.98
      290.0,      14.20,    13.39,    15.54,    15.89,    11.96
      291.0,      14.18,    13.37,    15.52,    15.88,    11.95
      292.0,      14.16,    13.35,    15.50,    15.86,    11.94
      293.0,      14.15,    13.33,    15.49,    15.84,    11.92
      294.0,      14.13,    13.31,    15.47,    15.83,    11.91
      295.0,      14.11,    13.29,    15.45,    15.81,    11.90
      296.0,      14.10,    13.27,    15.44,    15.79,    11.88
      297.0,      14.08,    13.25,    15.42,    15.78,    11.87
      298.0,      14.06,    13.23,    15.40,    15.76,    11.86
      299.0,      14.05,    13.21,    15.39,    15.74,    11.84
      300.0,      14.03,    13.19,    15.37,    15.73,    11.83
      301.0,      14.01,    13.17,    15.35,    15.71,    11.82
      302.0,      14.00,    13.15,    15.34,    15.69,    11.81
      303.0,      13.98,    13.13,    15.32,    15.68,    11.79
      304.0,      13.96,    13.11,    15.31,    15.66,    11.78
      305.0,      13.95,    13.09,    15.29,    15.65,    11.77
      306.0,      13.93,    13.07,    15.27,    15.63,    11.75
      307.0,      13.92,    13.05,    15.26,    15.61,    11.74
      308.0,      13.90,    13.03,    15.24,    15.60,    11.73
      309.0,      13.88,    13.01,    15.23,    15.58,    11.72
      310.0,      13.87,    12.99,    15.21,    15.56,    11.70
