Radius (km), Mean (m/s), NE (m/s), SE (m/s), SW (m/s), NW (m/s)
        0.0,       0.00,     0.00,     0.00,     0.00,     0.00
        1.0,       1.14,     1.12,     1.12,     1.13,     1.19
        2.0,       1.70,     1.68,     1.68,     1.68,     1.74
        3.0,       2.14,     2.13,     2.13,     2.13,     2.18
        4.0,       2.52,     2.51,     2.51,     2.52,     2.55
        5.0,       2.87,     2.86,     2.86,     2.86,     2.88
        6.0,       3.18,     3.18,     3.18,     3.18,     3.18
        7.0,       3.48,     3.48,     3.48,     3.48,     3.46
        8.0,       3.75,     3.76,     3.76,     3.76,     3.72
        9.0,       4.01,     4.03,     4.03,     4.03,     3.97
       10.0,       4.26,     4.28,     4.28,     4.28,     4.20
       11.0,       4.50,     4.53,     4.53,     4.52,     4.43
       12.0,       4.73,     4.76,     4.76,     4.76,     4.64
       13.0,       4.95,     4.99,     4.99,     4.98,     4.85
       14.0,       5.17,     5.21,     5.21,     5.20,     5.05
       15.0,       5.38,     5.42,     5.42,     5.42,     5.24
       16.0,       5.58,     5.63,     5.63,     5.62,     5.43
       17.0,       5.77,     5.83,     5.83,     5.82,     5.62
       18.0,       5.97,     6.03,     6.03,     6.02,     5.79
       19.0,       6.15,     6.22,     6.22,     6.21,     5.97
       20.0,       6.34,     6.41,     6.41,     6.40,     6.14
       21.0,       6.52,     6.59,     6.59,     6.58,     6.30
       22.0,       6.69,     6.77,     6.77,     6.76,     6.47
       23.0,       6.87,     6.95,     6.95,     6.94,     6.62
       24.0,       7.04,     7.12,     7.12,     7.11,     6.78
       25.0,       7.20,     7.30,     7.30,     7.28,     6.93
       26.0,       7.37,     7.46,     7.46,     7.45,     7.08
       27.0,       7.53,     7.63,     7.63,     7.62,     7.23
       28.0,       7.68,     7.79,     7.79,     7.78,     7.38
       29.0,       7.84,     7.95,     7.95,     7.94,     7.52
       30.0,       7.99,     8.11,     8.11,     8.09,     7.66
       31.0,       8.15,     8.27,     8.27,     8.25,     7.80
       32.0,       8.30,     8.42,     8.42,     8.40,     7.93
       33.0,       8.44,     8.57,     8.57,     8.56,     8.07
       34.0,       8.59,     8.72,     8.72,     8.70,     8.20
       35.0,       8.73,     8.87,     8.87,     8.85,     8.33
       36.0,       8.87,     9.02,     9.02,     9.00,     8.46
       37.0,       9.01,     9.16,     9.16,     9.14,     8.59
       38.0,       9.15,     9.31,     9.31,     9.28,     8.71
       39.0,       9.29,     9.45,     9.45,     9.43,     8.84
       40.0,       9.43,     9.59,     9.59,     9.56,     8.96
       41.0,       9.56,     9.73,     9.73,     9.70,     9.08
       42.0,       9.69,     9.86,     9.86,     9.84,     9.20
       43.0,       9.82,    10.00,    10.00,     9.97,     9.32
       44.0,       9.95,    10.13,    10.13,    10.11,     9.44
       45.0,      10.08,    10.27,    10.27,    10.24,     9.56
       46.0,      10.21,    10.40,    10.40,    10.37,     9.67
       47.0,      10.34,    10.53,    10.53,    10.50,     9.79
       48.0,      10.46,    10.66,    10.66,    10.63,     9.90
       49.0,      10.59,    10.79,    10.79,    10.76,    10.01
       50.0,      10.71,    10.92,    10.92,    10.89,    10.12
       51.0,      10.83,    11.04,    11.04,    11.01,    10.23
       52.0,      10.95,    11.17,    11.17,    11.14,    10.34
       53.0,      11.07,    11.29,    11.29,    11.26,    10.45
       54.0,      11.19,    11.42,    11.42,    11.38,    10.56
       55.0,      11.31,    11.54,    11.54,    11.51,    10.66
       56.0,      11.43,    11.66,    11.66,    11.63,    10.77
       57.0,      11.55,    11.78,    11.78,    11.75,    10.87
       58.0,      11.66,    11.90,    11.90,    11.87,    10.98
       59.0,      11.78,    12.02,    12.02,    11.98,    11.08
       60.0,      11.89,    12.14,    12.14,    12.10,    11.18
       61.0,      12.00,    12.25,    12.25,    12.22,    11.29
       62.0,      12.12,    12.37,    12.37,    12.33,    11.39
       63.0,      12.23,    12.49,    12.49,    12.45,    11.49
       64.0,      12.34,    12.60,    12.60,    12.56,    11.59
       65.0,      12.45,    12.72,    12.72,    12.68,    11.68
       66.0,      12.56,    12.83,    12.83,    12.79,    11.78
       67.0,      12.67,    12.94,    12.94,    12.90,    11.88
       68.0,      12.77,    13.05,    13.05,    13.01,    11.98
       69.0,      12.88,    13.16,    13.16,    13.12,    12.07
       70.0,      12.99,    13.28,    13.28,    13.23,    12.17
       71.0,      13.09,    13.39,    13.39,    13.34,    12.26
       72.0,      13.20,    13.49,    13.49,    13.45,    12.35
       73.0,      13.30,    13.60,    13.60,    13.56,    12.45
       74.0,      13.41,    13.71,    13.71,    13.67,    12.54
       75.0,      13.51,    13.82,    13.82,    13.77,    12.63
       76.0,      13.61,    13.93,    13.93,    13.88,    12.73
       77.0,      13.72,    14.03,    14.03,    13.98,    12.82
       78.0,      13.82,    14.14,    14.14,    14.09,    12.91
       79.0,      13.92,    14.24,    14.24,    14.19,    13.00
       80.0,      14.02,    14.35,    14.35,    14.30,    13.09
       81.0,      14.12,    14.45,    14.45,    14.40,    13.18
       82.0,      14.22,    14.55,    14.55,    14.50,    13.26
       83.0,      14.32,    14.66,    14.66,    14.61,    13.35
       84.0,      14.42,    14.76,    14.76,    14.71,    13.44
       85.0,      14.52,    14.86,    14.86,    14.81,    13.53
       86.0,      14.61,    14.96,    14.96,    14.91,    13.61
       87.0,      14.71,    15.06,    15.06,    15.01,    13.70
       88.0,      14.81,    15.16,    15.16,    15.11,    13.79
       89.0,      14.90,    15.26,    15.26,    15.21,    13.87
       90.0,      15.00,    15.36,    15.36,    15.31,    13.96
       91.0,      15.09,    15.46,    15.46,    15.41,    14.04
       92.0,      15.19,    15.56,    15.56,    15.51,    14.13
       93.0,      15.28,    15.66,    15.66,    15.60,    14.21
       94.0,      15.38,    15.76,    15.76,    15.70,    14.29
       95.0,      15.47,    15.85,    15.85,    15.80,    14.37
       96.0,      15.56,    15.95,    15.95,    15.89,    14.46
       97.0,      15.66,    16.05,    16.05,    15.99,    14.54
       98.0,      15.75,    16.14,    16.14,    16.08,    14.62
       99.0,      15.84,    16.24,    16.24,    16.18,    14.70
      100.0,      15.93,    16.33,    16.33,    16.27,    14.78
      101.0,      16.02,    16.43,    16.43,    16.37,    14.86
      102.0,      16.11,    16.52,    16.52,    16.46,    14.94
      103.0,      16.20,    16.62,    16.62,    16.56,    15.02
      104.0,      16.29,    16.71,    16.71,    16.65,    15.10
      105.0,      16.38,    16.80,    16.80,    16.74,    15.18
      106.0,      16.47,    16.90,    16.90,    16.83,    15.26
      107.0,      16.56,    16.99,    16.99,    16.92,    15.34
      108.0,      16.65,    17.08,    17.08,    17.02,    15.42
      109.0,      16.74,    17.17,    17.17,    17.11,    15.50
      110.0,      16.83,    17.27,    17.27,    17.20,    15.57
      111.0,      16.91,    17.36,    17.36,    17.29,    15.65
      112.0,      17.00,    17.45,    17.45,    17.38,    15.73
      113.0,      17.09,    17.54,    17.54,    17.47,    15.80
      114.0,      17.17,    17.63,    17.63,    17.56,    15.88
      115.0,      17.26,    17.72,    17.72,    17.65,    15.96
      116.0,      17.35,    17.81,    17.81,    17.74,    16.03
      117.0,      17.43,    17.90,    17.90,    17.83,    16.11
      118.0,      17.52,    17.98,    17.98,    17.91,    16.18
      119.0,      17.60,    18.07,    18.07,    18.00,    16.26
      120.0,      17.69,    18.16,    18.16,    18.09,    16.33
      121.0,      17.77,    18.25,    18.25,    18.18,    16.41
      122.0,      17.85,    18.34,    18.34,    18.26,    16.48
      123.0,      17.94,    18.42,    18.42,    18.35,    16.55
      124.0,      18.02,    18.51,    18.51,    18.44,    16.63
      125.0,      18.10,    18.60,    18.60,    18.52,    16.70
      126.0,      18.19,    18.68,    18.68,    18.61,    16.77
      127.0,      18.27,    18.77,    18.77,    18.69,    16.85
      128.0,      18.35,    18.86,    18.86,    18.78,    16.92
      129.0,      18.43,    18.94,    18.94,    18.86,    16.99
      130.0,      18.52,    19.03,    19.03,    18.95,    17.06
      131.0,      18.60,    19.11,    19.11,    19.03,    17.13
      132.0,      18.68,    19.20,    19.20,    19.12,    17.20
      133.0,      18.76,    19.28,    19.28,    19.20,    17.28
      134.0,      18.84,    19.36,    19.36,    19.28,    17.35
      135.0,      18.92,    19.45,    19.45,    19.37,    17.42
      136.0,      19.00,    19.53,    19.53,    19.45,    17.49
      137.0,      19.08,    19.62,    19.62,    19.53,    17.56
      138.0,      19.16,    19.70,    19.70,    19.62,    17.63
      139.0,      19.24,    19.78,    19.78,    19.70,    17.70
      140.0,      19.32,    19.86,    19.86,    19.78,    17.77
      141.0,      19.40,    19.95,    19.95,    19.86,    17.84
      142.0,      19.48,    20.03,    20.03,    19.94,    17.90
      143.0,      19.55,    20.11,    20.11,    20.03,    17.97
      144.0,      19.63,    20.19,    20.19,    20.11,    18.04
      145.0,      19.71,    20.27,    20.27,    20.19,    18.11
      146.0,      19.79,    20.35,    20.35,    20.27,    18.18
      147.0,      19.87,    20.44,    20.44,    20.35,    18.25
      148.0,      19.94,    20.52,    20.52,    20.43,    18.31
      149.0,      20.02,    20.60,    20.60,    20.51,    18.38
      150.0,      20.10,    20.68,    20.68,    20.59,    18.45
      151.0,      20.17,    20.76,    20.76,    20.67,    18.52
      152.0,      20.25,    20.84,    20.84,    20.75,    18.58
      153.0,      20.33,    20.92,    20.92,    20.83,    18.65
      154.0,      20.40,    21.00,    21.00,    20.91,    18.72
      155.0,      20.49,    21.09,    21.08,    21.00,    18.79
      156.0,      20.58,    21.19,    21.17,    21.10,    18.87
      157.0,      20.69,    21.32,    21.27,    21.21,    18.98
      158.0,      20.82,    21.47,    21.38,    21.34,    19.10
      159.0,      20.97,    21.63,    21.51,    21.49,    19.25
      160.0,      21.12,    21.81,    21.63,    21.63,    19.40
      161.0,      21.26,    21.98,    21.76,    21.76,    19.55
      162.0,      21.38,    22.12,    21.87,    21.88,    19.67
      163.0,      21.47,    22.21,    21.95,    21.96,    19.75
      164.0,      21.51,    22.24,    22.01,    22.00,    19.78
      165.0,      21.49,    22.20,    22.03,    21.99,    19.75
      166.0,      21.42,    22.09,    22.01,    21.94,    19.65
      167.0,      21.31,    21.92,    21.96,    21.85,    19.48
      168.0,      21.15,    21.70,    21.89,    21.74,    19.27
      169.0,      20.97,    21.44,    21.79,    21.60,    19.03
      170.0,      20.77,    21.17,    21.68,    21.46,    18.76
      171.0,      20.57,    20.89,    21.56,    21.31,    18.50
      172.0,      20.37,    20.63,    21.45,    21.17,    18.24
      173.0,      20.19,    20.38,    21.34,    21.04,    17.99
      174.0,      20.02,    20.14,    21.25,    20.91,    17.76
      175.0,      19.86,    19.92,    21.15,    20.80,    17.55
      176.0,      19.70,    19.71,    21.07,    20.69,    17.35
      177.0,      19.56,    19.51,    20.98,    20.58,    17.16
      178.0,      19.42,    19.32,    20.90,    20.47,    16.97
      179.0,      19.28,    19.14,    20.82,    20.37,    16.79
      180.0,      19.15,    18.96,    20.74,    20.28,    16.62
      181.0,      19.02,    18.79,    20.67,    20.18,    16.46
      182.0,      18.90,    18.62,    20.59,    20.09,    16.30
      183.0,      18.78,    18.46,    20.52,    20.00,    16.14
      184.0,      18.67,    18.30,    20.45,    19.92,    15.99
      185.0,      18.56,    18.15,    20.38,    19.83,    15.85
      186.0,      18.45,    18.01,    20.32,    19.75,    15.71
      187.0,      18.34,    17.87,    20.25,    19.68,    15.58
      188.0,      18.24,    17.74,    20.19,    19.60,    15.45
      189.0,      18.15,    17.61,    20.13,    19.53,    15.33
      190.0,      18.05,    17.48,    20.07,    19.45,    15.21
      191.0,      17.96,    17.36,    20.01,    19.39,    15.09
      192.0,      17.87,    17.25,    19.95,    19.32,    14.98
      193.0,      17.79,    17.14,    19.89,    19.25,    14.87
      194.0,      17.71,    17.03,    19.84,    19.19,    14.77
      195.0,      17.63,    16.92,    19.78,    19.13,    14.67
      196.0,      17.55,    16.82,    19.73,    19.07,    14.57
      197.0,      17.47,    16.72,    19.68,    19.01,    14.48
      198.0,      17.40,    16.63,    19.63,    18.95,    14.39
      199.0,      17.33,    16.54,    19.58,    18.90,    14.30
      200.0,      17.26,    16.45,    19.53,    18.85,    14.22
      201.0,      17.19,    16.36,    19.48,    18.79,    14.14
      202.0,      17.13,    16.28,    19.43,    18.74,    14.06
      203.0,      17.07,    16.20,    19.39,    18.69,    13.98
      204.0,      17.01,    16.12,    19.34,    18.65,    13.91
      205.0,      16.95,    16.05,    19.30,    18.60,    13.84
      206.0,      16.89,    15.98,    19.26,    18.55,    13.77
      207.0,      16.83,    15.91,    19.21,    18.51,    13.70
      208.0,      16.78,    15.84,    19.17,    18.46,    13.64
      209.0,      16.72,    15.77,    19.13,    18.42,    13.58
      210.0,      16.67,    15.71,    19.09,    18.38,    13.52
      211.0,      16.62,    15.65,    19.05,    18.34,    13.46
      212.0,      16.57,    15.59,    19.01,    18.30,    13.40
      213.0,      16.53,    15.53,    18.97,    18.26,    13.35
      214.0,      16.48,    15.47,    18.93,    18.22,    13.29
      215.0,      16.43,    15.42,    18.89,    18.19,    13.24
      216.0,      16.39,    15.36,    18.86,    18.15,    13.19
      217.0,      16.35,    15.31,    18.82,    18.11,    13.14
      218.0,      16.30,    15.26,    18.78,    18.08,    13.09
      219.0,      16.26,    15.21,    18.75,    18.04,    13.05
      220.0,      16.22,    15.17,    18.71,    18.01,    13.00
      221.0,      16.18,    15.12,    18.68,    17.98,    12.96
      222.0,      16.15,    15.08,    18.64,    17.95,    12.92
      223.0,      16.11,    15.03,    18.61,    17.91,    12.88
      224.0,      16.07,    14.99,    18.58,    17.88,    12.84
      225.0,      16.04,    14.95,    18.54,    17.85,    12.80
      226.0,      16.00,    14.91,    18.51,    17.82,    12.76
      227.0,      15.97,    14.87,    18.48,    17.79,    12.73
      228.0,      15.93,    14.83,    18.44,    17.76,    12.69
      229.0,      15.90,    14.79,    18.41,    17.73,    12.66
      230.0,      15.87,    14.76,    18.38,    17.71,    12.62
      231.0,      15.83,    14.72,    18.35,    17.68,    12.59
      232.0,      15.80,    14.69,    18.32,    17.65,    12.56
      233.0,      15.77,    14.65,    18.29,    17.62,    12.53
      234.0,      15.74,    14.62,    18.26,    17.60,    12.50
      235.0,      15.71,    14.59,    18.23,    17.57,    12.47
      236.0,      15.68,    14.55,    18.20,    17.55,    12.44
      237.0,      15.66,    14.52,    18.17,    17.52,    12.41
      238.0,      15.63,    14.49,    18.14,    17.50,    12.38
      239.0,      15.60,    14.46,    18.11,    17.47,    12.35
      240.0,      15.57,    14.44,    18.08,    17.45,    12.33
      241.0,      15.55,    14.41,    18.05,    17.42,    12.30
      242.0,      15.52,    14.38,    18.02,    17.40,    12.28
      243.0,      15.49,    14.35,    18.00,    17.37,    12.25
      244.0,      15.47,    14.33,    17.97,    17.35,    12.23
      245.0,      15.44,    14.30,    17.94,    17.33,    12.20
      246.0,      15.42,    14.27,    17.91,    17.31,    12.18
      247.0,      15.39,    14.25,    17.88,    17.28,    12.16
      248.0,      15.37,    14.22,    17.86,    17.26,    12.14
      249.0,      15.35,    14.20,    17.83,    17.24,    12.11
      250.0,      15.32,    14.18,    17.80,    17.22,    12.09
      251.0,      15.30,    14.15,    17.78,    17.19,    12.07
      252.0,      15.28,    14.13,    17.75,    17.17,    12.05
      253.0,      15.25,    14.11,    17.72,    17.15,    12.03
      254.0,      15.23,    14.08,    17.70,    17.13,    12.01
      255.0,      15.21,    14.06,    17.67,    17.11,    11.99
      256.0,      15.19,    14.04,    17.64,    17.09,    11.97
      257.0,      15.16,    14.02,    17.62,    17.07,    11.95
      258.0,      15.14,    14.00,    17.59,    17.05,    11.93
      259.0,      15.12,    13.98,    17.57,    17.03,    11.91
      260.0,      15.10,    13.96,    17.54,    17.01,    11.90
      261.0,      15.08,    13.94,    17.51,    16.99,    11.88
      262.0,      15.06,    13.92,    17.49,    16.97,    11.86
      263.0,      15.04,    13.90,    17.46,    16.95,    11.84
      264.0,      15.02,    13.88,    17.44,    16.93,    11.83
      265.0,      15.00,    13.86,    17.41,    16.91,    11.81
      266.0,      14.98,    13.84,    17.39,    16.89,    11.79
      267.0,      14.96,    13.82,    17.36,    16.87,    11.78
      268.0,      14.94,    13.80,    17.34,    16.85,    11.76
      269.0,      14.92,    13.78,    17.31,    16.83,    11.74
      270.0,      14.90,    13.76,    17.29,    16.81,    11.73
      271.0,      14.88,    13.75,    17.26,    16.79,    11.71
      272.0,      14.86,    13.73,    17.24,    16.78,    11.70
      273.0,      14.84,    13.71,    17.22,    16.76,    11.68
      274.0,      14.82,    13.69,    17.19,    16.74,    11.66
      275.0,      14.80,    13.68,    17.17,    16.72,    11.65
      276.0,      14.78,    13.66,    17.14,    16.70,    11.63
      277.0,      14.77,    13.64,    17.12,    16.68,    11.62
      278.0,      14.75,    13.63,    17.09,    16.66,    11.61
      279.0,      14.73,    13.61,    17.07,    16.65,    11.59
      280.0,      14.71,    13.59,    17.05,    16.63,    11.58
      281.0,      14.69,    13.58,    17.02,    16.61,    11.56
      282.0,      14.67,    13.56,    17.00,    16.59,    11.55
      283.0,      14.66,    13.54,    16.98,    16.57,    11.53
      284.0,      14.64,    13.53,    16.95,    16.56,    11.52
      285.0,      14.62,    13.51,    16.93,    16.54,    11.51
      286.0,      14.60,    13.50,    16.90,    16.52,    11.49
      287.0,      14.59,    13.48,    16.88,    16.50,    11.48
      288.0,      14.57,    13.46,    16.86,    16.49,    11.46
      289.0,      14.55,    13.45,    16.83,    16.47,    11.45
      290.0,      14.53,    13.43,    16.81,    16.45,    11.44
      291.0,      14.52,    13.42,    16.79,    16.43,    11.42
      292.0,      14.50,    13.40,    16.76,    16.42,    11.41
      293.0,      14.48,    13.39,    16.74,    16.40,    11.40
      294.0,      14.46,    13.37,    16.72,    16.38,    11.39
      295.0,      14.45,    13.36,    16.70,    16.37,    11.37
      296.0,      14.43,    13.34,    16.67,    16.35,    11.36
      297.0,      14.41,    13.33,    16.65,    16.33,    11.35
      298.0,      14.40,    13.31,    16.63,    16.31,    11.33
      299.0,      14.38,    13.30,    16.60,    16.30,    11.32
      300.0,      14.36,    13.28,    16.58,    16.28,    11.31
      301.0,      14.35,    13.27,    16.56,    16.26,    11.30
      302.0,      14.33,    13.26,    16.54,    16.25,    11.28
      303.0,      14.31,    13.24,    16.51,    16.23,    11.27
      304.0,      14.30,    13.23,    16.49,    16.21,    11.26
      305.0,      14.28,    13.21,    16.47,    16.20,    11.25
      306.0,      14.26,    13.20,    16.45,    16.18,    11.23
      307.0,      14.25,    13.18,    16.42,    16.16,    11.22
      308.0,      14.23,    13.17,    16.40,    16.15,    11.21
      309.0,      14.22,    13.16,    16.38,    16.13,    11.20
      310.0,      14.20,    13.14,    16.36,    16.11,    11.19
