Radius (km), Mean (m/s), NE (m/s), SE (m/s), SW (m/s), NW (m/s)
        0.0,       0.00,     0.00,     0.00,     0.00,     0.00
        1.0,       1.63,     1.59,     1.69,     1.69,     1.54
        2.0,       2.69,     2.65,     2.75,     2.75,     2.60
        3.0,       3.60,     3.58,     3.65,     3.65,     3.53
        4.0,       4.44,     4.43,     4.47,     4.47,     4.39
        5.0,       5.22,     5.22,     5.23,     5.23,     5.20
        6.0,       5.95,     5.97,     5.94,     5.94,     5.97
        7.0,       6.66,     6.69,     6.62,     6.62,     6.70
        8.0,       7.33,     7.38,     7.27,     7.27,     7.42
        9.0,       7.99,     8.05,     7.89,     7.89,     8.11
       10.0,       8.62,     8.70,     8.50,     8.50,     8.78
       11.0,       9.24,     9.34,     9.09,     9.09,     9.44
       12.0,       9.84,     9.96,     9.66,     9.66,    10.08
       13.0,      10.43,    10.56,    10.22,    10.22,    10.71
       14.0,      11.00,    11.15,    10.76,    10.76,    11.33
       15.0,      11.57,    11.74,    11.29,    11.29,    11.93
       16.0,      12.12,    12.31,    11.82,    11.82,    12.53
       17.0,      12.66,    12.87,    12.33,    12.33,    13.12
       18.0,      13.20,    13.43,    12.83,    12.83,    13.70
       19.0,      13.73,    13.97,    13.33,    13.33,    14.27
       20.0,      14.25,    14.51,    13.82,    13.82,    14.83
       21.0,      14.76,    15.05,    14.30,    14.30,    15.39
       22.0,      15.27,    15.57,    14.77,    14.77,    15.94
       23.0,      15.77,    16.09,    15.24,    15.24,    16.49
       24.0,      16.26,    16.60,    15.70,    15.70,    17.03
       25.0,      16.75,    17.11,    16.16,    16.16,    17.56
       26.0,      17.23,    17.61,    16.61,    16.61,    18.09
       27.0,      17.71,    18.11,    17.06,    17.06,    18.62
       28.0,      18.18,    18.60,    17.50,    17.50,    19.13
       29.0,      18.65,    19.09,    17.93,    17.93,    19.65
       30.0,      19.12,    19.58,    18.36,    18.36,    20.16
       31.0,      19.58,    20.06,    18.79,    18.79,    20.67
       32.0,      20.03,    20.53,    19.21,    19.21,    21.17
       33.0,      20.48,    21.00,    19.63,    19.63,    21.67
       34.0,      20.93,    21.47,    20.05,    20.05,    22.16
       35.0,      21.38,    21.94,    20.46,    20.46,    22.65
       36.0,      21.82,    22.40,    20.87,    20.87,    23.14
       37.0,      22.26,    22.85,    21.27,    21.27,    23.63
       38.0,      22.69,    23.31,    21.67,    21.67,    24.11
       39.0,      23.12,    23.76,    22.07,    22.07,    24.59
       40.0,      23.55,    24.21,    22.47,    22.47,    25.06
       41.0,      23.99,    24.67,    22.87,    22.86,    25.55
       42.0,      24.44,    25.15,    23.29,    23.27,    26.06
       43.0,      24.94,    25.69,    23.74,    23.69,    26.62
       44.0,      25.48,    26.29,    24.25,    24.16,    27.25
       45.0,      26.09,    26.96,    24.80,    24.66,    27.94
       46.0,      26.75,    27.69,    25.40,    25.20,    28.70
       47.0,      27.43,    28.44,    26.02,    25.77,    29.48
       48.0,      28.10,    29.17,    26.62,    26.34,    30.25
       49.0,      28.72,    29.84,    27.19,    26.88,    30.96
       50.0,      29.25,    30.41,    27.67,    27.36,    31.56
       51.0,      29.67,    30.83,    28.05,    27.76,    32.02
       52.0,      29.95,    31.10,    28.31,    28.06,    32.32
       53.0,      30.09,    31.21,    28.44,    28.25,    32.45
       54.0,      30.09,    31.16,    28.45,    28.33,    32.42
       55.0,      29.99,    30.99,    28.37,    28.33,    32.27
       56.0,      29.80,    30.73,    28.21,    28.24,    32.01
       57.0,      29.55,    30.41,    28.00,    28.11,    31.70
       58.0,      29.29,    30.06,    27.77,    27.95,    31.35
       59.0,      29.02,    29.72,    27.55,    27.78,    31.01
       60.0,      28.76,    29.40,    27.32,    27.62,    30.68
       61.0,      28.51,    29.09,    27.12,    27.47,    30.38
       62.0,      28.28,    28.80,    26.92,    27.32,    30.08
       63.0,      28.06,    28.52,    26.73,    27.19,    29.81
       64.0,      27.85,    28.25,    26.55,    27.05,    29.54
       65.0,      27.64,    27.99,    26.38,    26.92,    29.28
       66.0,      27.44,    27.74,    26.21,    26.80,    29.02
       67.0,      27.25,    27.49,    26.04,    26.67,    28.78
       68.0,      27.06,    27.26,    25.88,    26.55,    28.55
       69.0,      26.88,    27.03,    25.73,    26.44,    28.32
       70.0,      26.70,    26.81,    25.58,    26.32,    28.10
       71.0,      26.53,    26.60,    25.43,    26.21,    27.89
       72.0,      26.37,    26.40,    25.29,    26.10,    27.68
       73.0,      26.21,    26.20,    25.15,    25.99,    27.48
       74.0,      26.05,    26.01,    25.02,    25.89,    27.29
       75.0,      25.90,    25.83,    24.89,    25.79,    27.10
       76.0,      25.76,    25.65,    24.77,    25.69,    26.92
       77.0,      25.61,    25.47,    24.65,    25.59,    26.75
       78.0,      25.48,    25.31,    24.53,    25.49,    26.58
       79.0,      25.34,    25.14,    24.41,    25.40,    26.42
       80.0,      25.21,    24.99,    24.30,    25.30,    26.26
       81.0,      25.09,    24.84,    24.19,    25.21,    26.10
       82.0,      24.96,    24.69,    24.09,    25.12,    25.96
       83.0,      24.84,    24.55,    23.98,    25.04,    25.81
       84.0,      24.73,    24.41,    23.88,    24.95,    25.67
       85.0,      24.62,    24.28,    23.79,    24.87,    25.53
       86.0,      24.51,    24.15,    23.69,    24.78,    25.40
       87.0,      24.40,    24.02,    23.60,    24.70,    25.27
       88.0,      24.30,    23.90,    23.51,    24.62,    25.15
       89.0,      24.19,    23.78,    23.42,    24.54,    25.03
       90.0,      24.10,    23.67,    23.34,    24.47,    24.91
       91.0,      24.00,    23.55,    23.25,    24.39,    24.80
       92.0,      23.91,    23.45,    23.17,    24.32,    24.69
       93.0,      23.81,    23.34,    23.09,    24.24,    24.58
       94.0,      23.73,    23.24,    23.02,    24.17,    24.47
       95.0,      23.64,    23.14,    22.94,    24.10,    24.37
       96.0,      23.55,    23.04,    22.87,    24.03,    24.27
       97.0,      23.47,    22.95,    22.79,    23.96,    24.18
       98.0,      23.39,    22.86,    22.72,    23.89,    24.08
       99.0,      23.31,    22.77,    22.66,    23.83,    23.99
      100.0,      23.23,    22.68,    22.59,    23.76,    23.90
      101.0,      23.16,    22.60,    22.52,    23.69,    23.82
      102.0,      23.08,    22.52,    22.46,    23.63,    23.73
      103.0,      23.01,    22.44,    22.39,    23.57,    23.65
      104.0,      22.94,    22.36,    22.33,    23.50,    23.57
      105.0,      22.87,    22.29,    22.27,    23.44,    23.49
      106.0,      22.80,    22.21,    22.21,    23.38,    23.41
      107.0,      22.74,    22.14,    22.15,    23.32,    23.34
      108.0,      22.67,    22.07,    22.10,    23.26,    23.26
      109.0,      22.61,    22.00,    22.04,    23.20,    23.19
      110.0,      22.55,    21.94,    21.98,    23.14,    23.12
      111.0,      22.48,    21.87,    21.93,    23.08,    23.05
      112.0,      22.42,    21.81,    21.88,    23.02,    22.99
      113.0,      22.36,    21.75,    21.82,    22.97,    22.92
      114.0,      22.31,    21.68,    21.77,    22.91,    22.86
      115.0,      22.25,    21.63,    21.72,    22.86,    22.79
      116.0,      22.19,    21.57,    21.67,    22.80,    22.73
      117.0,      22.14,    21.51,    21.62,    22.75,    22.67
      118.0,      22.08,    21.45,    21.58,    22.69,    22.61
      119.0,      22.03,    21.40,    21.53,    22.64,    22.56
      120.0,      21.98,    21.35,    21.48,    22.59,    22.50
      121.0,      21.93,    21.29,    21.44,    22.53,    22.44
      122.0,      21.88,    21.24,    21.39,    22.48,    22.39
      123.0,      21.82,    21.19,    21.34,    22.43,    22.33
      124.0,      21.78,    21.14,    21.30,    22.38,    22.28
      125.0,      21.73,    21.10,    21.26,    22.33,    22.23
      126.0,      21.68,    21.05,    21.21,    22.28,    22.18
      127.0,      21.63,    21.00,    21.17,    22.22,    22.13
      128.0,      21.58,    20.95,    21.13,    22.17,    22.08
      129.0,      21.54,    20.91,    21.09,    22.13,    22.03
      130.0,      21.49,    20.87,    21.05,    22.08,    21.98
      131.0,      21.45,    20.82,    21.01,    22.03,    21.93
      132.0,      21.40,    20.78,    20.97,    21.98,    21.89
      133.0,      21.36,    20.74,    20.93,    21.93,    21.84
      134.0,      21.32,    20.70,    20.89,    21.88,    21.80
      135.0,      21.27,    20.65,    20.85,    21.83,    21.75
      136.0,      21.23,    20.61,    20.81,    21.79,    21.71
      137.0,      21.19,    20.57,    20.77,    21.74,    21.67
      138.0,      21.15,    20.54,    20.74,    21.69,    21.62
      139.0,      21.11,    20.50,    20.70,    21.65,    21.58
      140.0,      21.07,    20.46,    20.66,    21.60,    21.54
      141.0,      21.03,    20.42,    20.63,    21.56,    21.50
      142.0,      20.99,    20.38,    20.59,    21.51,    21.46
      143.0,      20.95,    20.35,    20.55,    21.46,    21.42
      144.0,      20.91,    20.31,    20.52,    21.42,    21.38
      145.0,      20.87,    20.28,    20.48,    21.37,    21.34
      146.0,      20.83,    20.24,    20.45,    21.33,    21.30
      147.0,      20.79,    20.21,    20.41,    21.28,    21.26
      148.0,      20.75,    20.17,    20.38,    21.24,    21.22
      149.0,      20.72,    20.14,    20.35,    21.20,    21.19
      150.0,      20.68,    20.10,    20.31,    21.15,    21.15
      151.0,      20.64,    20.07,    20.28,    21.11,    21.11
      152.0,      20.61,    20.04,    20.24,    21.06,    21.08
      153.0,      20.57,    20.00,    20.21,    21.02,    21.04
      154.0,      20.53,    19.97,    20.18,    20.98,    21.00
      155.0,      20.50,    19.94,    20.15,    20.94,    20.97
      156.0,      20.46,    19.91,    20.11,    20.89,    20.93
      157.0,      20.43,    19.88,    20.08,    20.85,    20.90
      158.0,      20.39,    19.84,    20.05,    20.81,    20.86
      159.0,      20.36,    19.81,    20.02,    20.76,    20.83
      160.0,      20.32,    19.78,    19.99,    20.72,    20.79
      161.0,      20.29,    19.75,    19.95,    20.68,    20.76
      162.0,      20.25,    19.72,    19.92,    20.64,    20.73
      163.0,      20.22,    19.69,    19.89,    20.60,    20.69
      164.0,      20.18,    19.66,    19.86,    20.56,    20.66
      165.0,      20.15,    19.63,    19.83,    20.51,    20.63
      166.0,      20.12,    19.60,    19.80,    20.47,    20.59
      167.0,      20.08,    19.57,    19.77,    20.43,    20.56
      168.0,      20.05,    19.55,    19.74,    20.39,    20.53
      169.0,      20.02,    19.52,    19.71,    20.35,    20.50
      170.0,      19.98,    19.49,    19.68,    20.31,    20.46
      171.0,      19.95,    19.46,    19.65,    20.27,    20.43
      172.0,      19.92,    19.43,    19.62,    20.23,    20.40
      173.0,      19.89,    19.40,    19.59,    20.19,    20.37
      174.0,      19.85,    19.38,    19.56,    20.15,    20.34
      175.0,      19.82,    19.35,    19.53,    20.11,    20.31
      176.0,      19.79,    19.32,    19.50,    20.07,    20.28
      177.0,      19.76,    19.29,    19.47,    20.03,    20.25
      178.0,      19.73,    19.27,    19.44,    19.99,    20.21
      179.0,      19.70,    19.24,    19.41,    19.95,    20.18
      180.0,      19.66,    19.21,    19.38,    19.91,    20.15
      181.0,      19.63,    19.19,    19.35,    19.87,    20.12
      182.0,      19.60,    19.16,    19.32,    19.83,    20.09
      183.0,      19.57,    19.13,    19.29,    19.79,    20.06
      184.0,      19.54,    19.11,    19.27,    19.75,    20.03
      185.0,      19.51,    19.08,    19.24,    19.71,    20.00
      186.0,      19.48,    19.05,    19.21,    19.67,    19.97
      187.0,      19.45,    19.03,    19.18,    19.64,    19.94
      188.0,      19.42,    19.00,    19.15,    19.60,    19.92
      189.0,      19.39,    18.97,    19.12,    19.56,    19.89
      190.0,      19.36,    18.95,    19.10,    19.52,    19.86
      191.0,      19.33,    18.92,    19.07,    19.48,    19.83
      192.0,      19.30,    18.90,    19.04,    19.44,    19.80
      193.0,      19.26,    18.87,    19.01,    19.41,    19.77
      194.0,      19.23,    18.85,    18.98,    19.37,    19.74
      195.0,      19.20,    18.82,    18.96,    19.33,    19.71
      196.0,      19.18,    18.80,    18.93,    19.29,    19.68
      197.0,      19.15,    18.77,    18.90,    19.25,    19.66
      198.0,      19.12,    18.75,    18.87,    19.22,    19.63
      199.0,      19.09,    18.72,    18.85,    19.18,    19.60
      200.0,      19.06,    18.70,    18.82,    19.14,    19.57
      201.0,      19.03,    18.67,    18.79,    19.10,    19.54
      202.0,      19.00,    18.65,    18.76,    19.07,    19.51
      203.0,      18.97,    18.62,    18.74,    19.03,    19.49
      204.0,      18.94,    18.60,    18.71,    18.99,    19.46
      205.0,      18.91,    18.57,    18.68,    18.96,    19.43
      206.0,      18.88,    18.55,    18.66,    18.92,    19.40
      207.0,      18.85,    18.52,    18.63,    18.88,    19.38
      208.0,      18.82,    18.50,    18.60,    18.84,    19.35
      209.0,      18.79,    18.47,    18.58,    18.81,    19.32
      210.0,      18.77,    18.45,    18.55,    18.77,    19.29
      211.0,      18.74,    18.43,    18.52,    18.74,    19.27
      212.0,      18.71,    18.40,    18.50,    18.70,    19.24
      213.0,      18.68,    18.38,    18.47,    18.66,    19.21
      214.0,      18.65,    18.35,    18.44,    18.63,    19.18
      215.0,      18.62,    18.33,    18.42,    18.59,    19.16
      216.0,      18.59,    18.31,    18.39,    18.55,    19.13
      217.0,      18.57,    18.28,    18.36,    18.52,    19.10
      218.0,      18.54,    18.26,    18.34,    18.48,    19.07
      219.0,      18.51,    18.23,    18.31,    18.45,    19.05
      220.0,      18.48,    18.21,    18.28,    18.41,    19.02
      221.0,      18.45,    18.19,    18.26,    18.37,    18.99
      222.0,      18.42,    18.16,    18.23,    18.34,    18.97
      223.0,      18.40,    18.14,    18.21,    18.30,    18.94
      224.0,      18.37,    18.12,    18.18,    18.27,    18.91
      225.0,      18.34,    18.09,    18.15,    18.23,    18.89
      226.0,      18.31,    18.07,    18.13,    18.20,    18.86
      227.0,      18.29,    18.05,    18.10,    18.16,    18.83
      228.0,      18.26,    18.02,    18.08,    18.13,    18.81
      229.0,      18.23,    18.00,    18.05,    18.09,    18.78
      230.0,      18.20,    17.98,    18.02,    18.06,    18.76
      231.0,      18.18,    17.95,    18.00,    18.02,    18.73
      232.0,      18.15,    17.93,    17.97,    17.99,    18.70
      233.0,      18.12,    17.91,    17.95,    17.95,    18.68
      234.0,      18.09,    17.88,    17.92,    17.92,    18.65
      235.0,      18.07,    17.86,    17.90,    17.88,    18.62
      236.0,      18.04,    17.84,    17.87,    17.85,    18.60
      237.0,      18.01,    17.81,    17.84,    17.81,    18.57
      238.0,      17.98,    17.79,    17.82,    17.78,    18.55
      239.0,      17.96,    17.77,    17.79,    17.74,    18.52
      240.0,      17.93,    17.74,    17.77,    17.71,    18.49
      241.0,      17.90,    17.72,    17.74,    17.67,    18.47
      242.0,      17.88,    17.70,    17.72,    17.64,    18.44
      243.0,      17.85,    17.68,    17.69,    17.61,    18.42
      244.0,      17.82,    17.65,    17.67,    17.57,    18.39
      245.0,      17.79,    17.63,    17.64,    17.54,    18.37
      246.0,      17.77,    17.61,    17.62,    17.50,    18.34
      247.0,      17.74,    17.59,    17.59,    17.47,    18.32
      248.0,      17.71,    17.56,    17.57,    17.44,    18.29
      249.0,      17.69,    17.54,    17.54,    17.40,    18.26
      250.0,      17.66,    17.52,    17.52,    17.37,    18.24
      251.0,      17.63,    17.50,    17.49,    17.34,    18.21
      252.0,      17.61,    17.47,    17.47,    17.30,    18.19
      253.0,      17.58,    17.45,    17.44,    17.27,    18.16
      254.0,      17.56,    17.43,    17.42,    17.24,    18.14
      255.0,      17.53,    17.41,    17.39,    17.20,    18.11
      256.0,      17.50,    17.38,    17.37,    17.17,    18.09
      257.0,      17.48,    17.36,    17.34,    17.14,    18.06
      258.0,      17.45,    17.34,    17.32,    17.10,    18.04
      259.0,      17.42,    17.32,    17.30,    17.07,    18.01
      260.0,      17.40,    17.30,    17.27,    17.04,    17.99
      261.0,      17.37,    17.27,    17.25,    17.00,    17.96
      262.0,      17.35,    17.25,    17.22,    16.97,    17.94
      263.0,      17.32,    17.23,    17.20,    16.94,    17.91
      264.0,      17.29,    17.21,    17.17,    16.91,    17.89
      265.0,      17.27,    17.19,    17.15,    16.87,    17.86
      266.0,      17.24,    17.16,    17.12,    16.84,    17.84
      267.0,      17.22,    17.14,    17.10,    16.81,    17.81
      268.0,      17.19,    17.12,    17.08,    16.77,    17.79
      269.0,      17.16,    17.10,    17.05,    16.74,    17.76
      270.0,      17.14,    17.08,    17.03,    16.71,    17.74
      271.0,      17.11,    17.05,    17.00,    16.68,    17.71
      272.0,      17.09,    17.03,    16.98,    16.65,    17.69
      273.0,      17.06,    17.01,    16.96,    16.61,    17.67
      274.0,      17.04,    16.99,    16.93,    16.58,    17.64
      275.0,      17.01,    16.97,    16.91,    16.55,    17.62
      276.0,      16.98,    16.95,    16.88,    16.52,    17.59
      277.0,      16.96,    16.92,    16.86,    16.49,    17.57
      278.0,      16.93,    16.90,    16.84,    16.45,    17.54
      279.0,      16.91,    16.88,    16.81,    16.42,    17.52
      280.0,      16.88,    16.86,    16.79,    16.39,    17.49
      281.0,      16.86,    16.84,    16.76,    16.36,    17.47
      282.0,      16.83,    16.82,    16.74,    16.33,    17.45
      283.0,      16.81,    16.79,    16.72,    16.30,    17.42
      284.0,      16.78,    16.77,    16.69,    16.26,    17.40
      285.0,      16.76,    16.75,    16.67,    16.23,    17.37
      286.0,      16.73,    16.73,    16.65,    16.20,    17.35
      287.0,      16.71,    16.71,    16.62,    16.17,    17.33
      288.0,      16.68,    16.69,    16.60,    16.14,    17.30
      289.0,      16.66,    16.67,    16.58,    16.11,    17.28
      290.0,      16.63,    16.65,    16.55,    16.08,    17.25
      291.0,      16.61,    16.62,    16.53,    16.05,    17.23
      292.0,      16.58,    16.60,    16.50,    16.01,    17.21
      293.0,      16.56,    16.58,    16.48,    15.98,    17.18
      294.0,      16.53,    16.56,    16.46,    15.95,    17.16
      295.0,      16.51,    16.54,    16.43,    15.92,    17.13
      296.0,      16.48,    16.52,    16.41,    15.89,    17.11
      297.0,      16.46,    16.50,    16.39,    15.86,    17.09
      298.0,      16.43,    16.48,    16.37,    15.83,    17.06
      299.0,      16.41,    16.46,    16.34,    15.80,    17.04
      300.0,      16.38,    16.43,    16.32,    15.77,    17.02
      301.0,      16.36,    16.41,    16.30,    15.74,    16.99
      302.0,      16.34,    16.39,    16.27,    15.71,    16.97
      303.0,      16.31,    16.37,    16.25,    15.68,    16.95
      304.0,      16.29,    16.35,    16.23,    15.65,    16.92
      305.0,      16.26,    16.33,    16.20,    15.62,    16.90
      306.0,      16.24,    16.31,    16.18,    15.59,    16.88
      307.0,      16.21,    16.29,    16.16,    15.56,    16.85
      308.0,      16.19,    16.27,    16.13,    15.53,    16.83
      309.0,      16.17,    16.25,    16.11,    15.50,    16.81
      310.0,      16.14,    16.23,    16.09,    15.47,    16.78
