Radius (km), Mean (m/s), NE (m/s), SE (m/s), SW (m/s), NW (m/s)
        0.0,       0.00,     0.00,     0.00,     0.00,     0.00
        1.0,       1.19,     1.42,     0.96,     0.96,     1.42
        2.0,       2.02,     2.30,     1.75,     1.75,     2.30
        3.0,       2.77,     3.04,     2.49,     2.49,     3.04
        4.0,       3.45,     3.71,     3.20,     3.20,     3.71
        5.0,       4.11,     4.34,     3.88,     3.88,     4.34
        6.0,       4.73,     4.92,     4.54,     4.54,     4.92
        7.0,       5.33,     5.48,     5.19,     5.19,     5.48
        8.0,       5.92,     6.01,     5.83,     5.83,     6.01
        9.0,       6.49,     6.52,     6.46,     6.46,     6.52
       10.0,       7.04,     7.01,     7.08,     7.08,     7.01
       11.0,       7.59,     7.49,     7.69,     7.69,     7.49
       12.0,       8.12,     7.96,     8.29,     8.29,     7.96
       13.0,       8.65,     8.41,     8.88,     8.88,     8.41
       14.0,       9.16,     8.86,     9.47,     9.47,     8.86
       15.0,       9.67,     9.29,    10.06,    10.06,     9.29
       16.0,      10.18,     9.72,    10.64,    10.64,     9.72
       17.0,      10.67,    10.13,    11.21,    11.21,    10.13
       18.0,      11.16,    10.54,    11.78,    11.78,    10.54
       19.0,      11.65,    10.95,    12.35,    12.35,    10.95
       20.0,      12.12,    11.34,    12.91,    12.91,    11.34
       21.0,      12.60,    11.73,    13.47,    13.47,    11.73
       22.0,      13.07,    12.12,    14.02,    14.02,    12.12
       23.0,      13.53,    12.50,    14.57,    14.57,    12.50
       24.0,      14.00,    12.87,    15.12,    15.12,    12.87
       25.0,      14.45,    13.24,    15.66,    15.66,    13.24
       26.0,      14.91,    13.61,    16.21,    16.21,    13.61
       27.0,      15.36,    13.97,    16.75,    16.75,    13.97
       28.0,      15.80,    14.32,    17.28,    17.28,    14.32
       29.0,      16.25,    14.68,    17.82,    17.82,    14.68
       30.0,      16.69,    15.03,    18.35,    18.35,    15.03
       31.0,      17.12,    15.37,    18.88,    18.88,    15.37
       32.0,      17.56,    15.71,    19.40,    19.40,    15.71
       33.0,      17.99,    16.05,    19.93,    19.93,    16.05
       34.0,      18.42,    16.39,    20.45,    20.45,    16.39
       35.0,      18.85,    16.72,    20.97,    20.97,    16.72
       36.0,      19.27,    17.05,    21.49,    21.49,    17.05
       37.0,      19.69,    17.38,    22.01,    22.01,    17.38
       38.0,      20.11,    17.70,    22.52,    22.52,    17.70
       39.0,      20.53,    18.03,    23.04,    23.04,    18.03
       40.0,      20.95,    18.35,    23.55,    23.55,    18.35
       41.0,      21.36,    18.66,    24.06,    24.06,    18.66
       42.0,      21.77,    18.98,    24.56,    24.56,    18.98
       43.0,      22.18,    19.29,    25.07,    25.07,    19.29
       44.0,      22.59,    19.60,    25.58,    25.58,    19.60
       45.0,      22.99,    19.91,    26.08,    26.08,    19.91
       46.0,      23.40,    20.21,    26.58,    26.58,    20.21
       47.0,      23.80,    20.52,    27.08,    27.08,    20.52
       48.0,      24.20,    20.82,    27.58,    27.58,    20.82
       49.0,      24.60,    21.12,    28.08,    28.08,    21.12
       50.0,      25.00,    21.42,    28.58,    28.58,    21.42
       51.0,      25.39,    21.71,    29.07,    29.07,    21.71
       52.0,      25.79,    22.01,    29.56,    29.56,    22.01
       53.0,      26.18,    22.30,    30.06,    30.06,    22.30
       54.0,      26.57,    22.59,    30.55,    30.55,    22.59
       55.0,      26.96,    22.88,    31.04,    31.04,    22.88
       56.0,      27.35,    23.17,    31.53,    31.53,    23.17
       57.0,      27.73,    23.46,    32.01,    32.01,    23.46
       58.0,      28.12,    23.74,    32.50,    32.50,    23.74
       59.0,      28.50,    24.02,    32.99,    32.99,    24.02
       60.0,      28.89,    24.31,    33.47,    33.48,    24.31
       61.0,      29.29,    24.60,    33.97,    33.99,    24.59
       62.0,      29.71,    24.90,    34.51,    34.56,    24.87
       63.0,      30.18,    25.23,    35.11,    35.21,    25.18
       64.0,      30.71,    25.59,    35.79,    35.94,    25.52
       65.0,      31.29,    25.99,    36.53,    36.76,    25.89
       66.0,      31.91,    26.40,    37.33,    37.62,    26.31
       67.0,      32.54,    26.82,    38.14,    38.47,    26.74
       68.0,      33.14,    27.22,    38.90,    39.26,    27.17
       69.0,      33.66,    27.57,    39.56,    39.93,    27.57
       70.0,      34.06,    27.86,    40.07,    40.41,    27.90
       71.0,      34.32,    28.06,    40.40,    40.69,    28.14
       72.0,      34.42,    28.17,    40.52,    40.73,    28.26
       73.0,      34.37,    28.20,    40.45,    40.57,    28.26
       74.0,      34.18,    28.14,    40.21,    40.22,    28.15
       75.0,      33.88,    28.02,    39.83,    39.73,    27.93
       76.0,      33.51,    27.86,    39.37,    39.16,    27.64
       77.0,      33.10,    27.67,    38.85,    38.56,    27.30
       78.0,      32.68,    27.47,    38.34,    37.95,    26.95
       79.0,      32.27,    27.27,    37.84,    37.37,    26.59
       80.0,      31.89,    27.09,    37.37,    36.83,    26.26
       81.0,      31.53,    26.91,    36.93,    36.32,    25.95
       82.0,      31.19,    26.74,    36.52,    35.84,    25.66
       83.0,      30.86,    26.57,    36.12,    35.38,    25.39
       84.0,      30.55,    26.41,    35.74,    34.93,    25.12
       85.0,      30.25,    26.24,    35.37,    34.50,    24.87
       86.0,      29.95,    26.08,    35.02,    34.08,    24.63
       87.0,      29.66,    25.91,    34.67,    33.68,    24.39
       88.0,      29.39,    25.75,    34.34,    33.29,    24.16
       89.0,      29.12,    25.59,    34.02,    32.92,    23.93
       90.0,      28.85,    25.44,    33.70,    32.56,    23.72
       91.0,      28.60,    25.28,    33.40,    32.21,    23.51
       92.0,      28.35,    25.12,    33.11,    31.88,    23.30
       93.0,      28.11,    24.97,    32.82,    31.55,    23.10
       94.0,      27.88,    24.82,    32.55,    31.24,    22.91
       95.0,      27.65,    24.67,    32.28,    30.94,    22.72
       96.0,      27.43,    24.52,    32.03,    30.65,    22.54
       97.0,      27.22,    24.37,    31.78,    30.37,    22.36
       98.0,      27.01,    24.22,    31.54,    30.09,    22.19
       99.0,      26.81,    24.08,    31.30,    29.83,    22.02
      100.0,      26.61,    23.94,    31.07,    29.58,    21.86
      101.0,      26.42,    23.79,    30.85,    29.33,    21.70
      102.0,      26.23,    23.65,    30.64,    29.09,    21.55
      103.0,      26.05,    23.51,    30.43,    28.86,    21.40
      104.0,      25.87,    23.37,    30.23,    28.64,    21.25
      105.0,      25.70,    23.24,    30.03,    28.43,    21.11
      106.0,      25.53,    23.10,    29.84,    28.22,    20.97
      107.0,      25.37,    22.97,    29.66,    28.02,    20.84
      108.0,      25.21,    22.83,    29.48,    27.82,    20.70
      109.0,      25.05,    22.70,    29.30,    27.63,    20.57
      110.0,      24.90,    22.57,    29.13,    27.45,    20.45
      111.0,      24.75,    22.44,    28.96,    27.27,    20.33
      112.0,      24.60,    22.31,    28.80,    27.10,    20.20
      113.0,      24.46,    22.18,    28.65,    26.93,    20.09
      114.0,      24.32,    22.06,    28.49,    26.77,    19.97
      115.0,      24.19,    21.93,    28.34,    26.61,    19.86
      116.0,      24.05,    21.81,    28.20,    26.46,    19.75
      117.0,      23.92,    21.68,    28.06,    26.32,    19.64
      118.0,      23.80,    21.56,    27.92,    26.17,    19.54
      119.0,      23.67,    21.44,    27.78,    26.03,    19.44
      120.0,      23.55,    21.32,    27.65,    25.90,    19.33
      121.0,      23.43,    21.20,    27.52,    25.77,    19.24
      122.0,      23.32,    21.08,    27.40,    25.64,    19.14
      123.0,      23.20,    20.97,    27.27,    25.51,    19.04
      124.0,      23.09,    20.85,    27.15,    25.39,    18.95
      125.0,      22.98,    20.74,    27.04,    25.28,    18.86
      126.0,      22.87,    20.63,    26.92,    25.16,    18.77
      127.0,      22.76,    20.51,    26.81,    25.05,    18.68
      128.0,      22.66,    20.40,    26.70,    24.94,    18.60
      129.0,      22.56,    20.29,    26.59,    24.84,    18.51
      130.0,      22.46,    20.18,    26.49,    24.73,    18.43
      131.0,      22.36,    20.07,    26.38,    24.63,    18.35
      132.0,      22.26,    19.97,    26.28,    24.54,    18.26
      133.0,      22.17,    19.86,    26.18,    24.44,    18.19
      134.0,      22.07,    19.76,    26.09,    24.35,    18.11
      135.0,      21.98,    19.65,    25.99,    24.26,    18.03
      136.0,      21.89,    19.55,    25.90,    24.17,    17.95
      137.0,      21.80,    19.45,    25.81,    24.08,    17.88
      138.0,      21.72,    19.34,    25.71,    24.00,    17.81
      139.0,      21.63,    19.24,    25.63,    23.92,    17.73
      140.0,      21.54,    19.14,    25.54,    23.83,    17.66
      141.0,      21.46,    19.04,    25.45,    23.75,    17.59
      142.0,      21.38,    18.95,    25.37,    23.68,    17.52
      143.0,      21.30,    18.85,    25.29,    23.60,    17.45
      144.0,      21.22,    18.75,    25.20,    23.53,    17.39
      145.0,      21.14,    18.66,    25.12,    23.45,    17.32
      146.0,      21.06,    18.56,    25.04,    23.38,    17.25
      147.0,      20.98,    18.47,    24.97,    23.31,    17.19
      148.0,      20.91,    18.38,    24.89,    23.24,    17.12
      149.0,      20.83,    18.29,    24.81,    23.18,    17.06
      150.0,      20.76,    18.19,    24.74,    23.11,    17.00
      151.0,      20.69,    18.10,    24.66,    23.05,    16.94
      152.0,      20.62,    18.01,    24.59,    22.98,    16.87
      153.0,      20.54,    17.93,    24.52,    22.92,    16.81
      154.0,      20.47,    17.84,    24.45,    22.86,    16.75
      155.0,      20.40,    17.75,    24.38,    22.80,    16.69
      156.0,      20.34,    17.66,    24.31,    22.74,    16.63
      157.0,      20.27,    17.58,    24.24,    22.68,    16.58
      158.0,      20.20,    17.49,    24.17,    22.62,    16.52
      159.0,      20.14,    17.41,    24.10,    22.57,    16.46
      160.0,      20.07,    17.33,    24.04,    22.51,    16.40
      161.0,      20.00,    17.24,    23.97,    22.45,    16.35
      162.0,      19.94,    17.16,    23.91,    22.40,    16.29
      163.0,      19.88,    17.08,    23.84,    22.35,    16.24
      164.0,      19.81,    17.00,    23.78,    22.29,    16.18
      165.0,      19.75,    16.92,    23.72,    22.24,    16.13
      166.0,      19.69,    16.84,    23.66,    22.19,    16.08
      167.0,      19.63,    16.76,    23.59,    22.14,    16.02
      168.0,      19.57,    16.68,    23.53,    22.09,    15.97
      169.0,      19.51,    16.61,    23.47,    22.04,    15.92
      170.0,      19.45,    16.53,    23.41,    21.99,    15.86
      171.0,      19.39,    16.46,    23.35,    21.94,    15.81
      172.0,      19.33,    16.38,    23.29,    21.90,    15.76
      173.0,      19.27,    16.31,    23.23,    21.85,    15.71
      174.0,      19.22,    16.23,    23.18,    21.80,    15.66
      175.0,      19.16,    16.16,    23.12,    21.76,    15.61
      176.0,      19.10,    16.09,    23.06,    21.71,    15.56
      177.0,      19.05,    16.01,    23.00,    21.66,    15.51
      178.0,      18.99,    15.94,    22.95,    21.62,    15.46
      179.0,      18.94,    15.87,    22.89,    21.57,    15.41
      180.0,      18.88,    15.80,    22.84,    21.53,    15.36
      181.0,      18.83,    15.73,    22.78,    21.49,    15.31
      182.0,      18.78,    15.66,    22.73,    21.44,    15.27
      183.0,      18.72,    15.60,    22.67,    21.40,    15.22
      184.0,      18.67,    15.53,    22.62,    21.36,    15.17
      185.0,      18.62,    15.46,    22.56,    21.32,    15.12
      186.0,      18.56,    15.40,    22.51,    21.27,    15.08
      187.0,      18.51,    15.33,    22.46,    21.23,    15.03
      188.0,      18.46,    15.26,    22.40,    21.19,    14.98
      189.0,      18.41,    15.20,    22.35,    21.15,    14.94
      190.0,      18.36,    15.14,    22.30,    21.11,    14.89
      191.0,      18.31,    15.07,    22.25,    21.07,    14.84
      192.0,      18.26,    15.01,    22.20,    21.03,    14.80
      193.0,      18.21,    14.95,    22.14,    20.99,    14.75
      194.0,      18.16,    14.88,    22.09,    20.95,    14.71
      195.0,      18.11,    14.82,    22.04,    20.91,    14.66
      196.0,      18.06,    14.76,    21.99,    20.87,    14.62
      197.0,      18.01,    14.70,    21.94,    20.83,    14.58
      198.0,      17.96,    14.64,    21.89,    20.80,    14.53
      199.0,      17.92,    14.58,    21.84,    20.76,    14.49
      200.0,      17.87,    14.52,    21.79,    20.72,    14.44
      201.0,      17.82,    14.46,    21.74,    20.68,    14.40
      202.0,      17.77,    14.41,    21.69,    20.64,    14.36
      203.0,      17.73,    14.35,    21.64,    20.61,    14.31
      204.0,      17.68,    14.29,    21.59,    20.57,    14.27
      205.0,      17.63,    14.24,    21.54,    20.53,    14.23
      206.0,      17.59,    14.18,    21.50,    20.49,    14.18
      207.0,      17.54,    14.12,    21.45,    20.46,    14.14
      208.0,      17.50,    14.07,    21.40,    20.42,    14.10
      209.0,      17.45,    14.01,    21.35,    20.39,    14.06
      210.0,      17.41,    13.96,    21.30,    20.35,    14.02
      211.0,      17.36,    13.91,    21.26,    20.31,    13.97
      212.0,      17.32,    13.85,    21.21,    20.28,    13.93
      213.0,      17.27,    13.80,    21.16,    20.24,    13.89
      214.0,      17.23,    13.75,    21.11,    20.21,    13.85
      215.0,      17.19,    13.70,    21.07,    20.17,    13.81
      216.0,      17.14,    13.64,    21.02,    20.13,    13.77
      217.0,      17.10,    13.59,    20.97,    20.10,    13.73
      218.0,      17.06,    13.54,    20.93,    20.06,    13.69
      219.0,      17.01,    13.49,    20.88,    20.03,    13.65
      220.0,      16.97,    13.44,    20.84,    19.99,    13.60
      221.0,      16.93,    13.39,    20.79,    19.96,    13.56
      222.0,      16.88,    13.34,    20.74,    19.93,    13.52
      223.0,      16.84,    13.30,    20.70,    19.89,    13.48
      224.0,      16.80,    13.25,    20.65,    19.86,    13.44
      225.0,      16.76,    13.20,    20.61,    19.82,    13.41
      226.0,      16.72,    13.15,    20.56,    19.79,    13.37
      227.0,      16.68,    13.10,    20.52,    19.75,    13.33
      228.0,      16.63,    13.06,    20.47,    19.72,    13.29
      229.0,      16.59,    13.01,    20.43,    19.69,    13.25
      230.0,      16.55,    12.97,    20.38,    19.65,    13.21
      231.0,      16.51,    12.92,    20.34,    19.62,    13.17
      232.0,      16.47,    12.87,    20.29,    19.59,    13.13
      233.0,      16.43,    12.83,    20.25,    19.55,    13.09
      234.0,      16.39,    12.79,    20.21,    19.52,    13.05
      235.0,      16.35,    12.74,    20.16,    19.49,    13.02
      236.0,      16.31,    12.70,    20.12,    19.45,    12.98
      237.0,      16.27,    12.65,    20.07,    19.42,    12.94
      238.0,      16.23,    12.61,    20.03,    19.39,    12.90
      239.0,      16.19,    12.57,    19.99,    19.35,    12.86
      240.0,      16.15,    12.53,    19.94,    19.32,    12.83
      241.0,      16.12,    12.48,    19.90,    19.29,    12.79
      242.0,      16.08,    12.44,    19.86,    19.26,    12.75
      243.0,      16.04,    12.40,    19.81,    19.22,    12.71
      244.0,      16.00,    12.36,    19.77,    19.19,    12.68
      245.0,      15.96,    12.32,    19.73,    19.16,    12.64
      246.0,      15.92,    12.28,    19.68,    19.13,    12.60
      247.0,      15.89,    12.24,    19.64,    19.09,    12.57
      248.0,      15.85,    12.20,    19.60,    19.06,    12.53
      249.0,      15.81,    12.16,    19.56,    19.03,    12.49
      250.0,      15.77,    12.12,    19.51,    19.00,    12.46
      251.0,      15.74,    12.08,    19.47,    18.97,    12.42
      252.0,      15.70,    12.04,    19.43,    18.93,    12.38
      253.0,      15.66,    12.00,    19.39,    18.90,    12.35
      254.0,      15.62,    11.97,    19.35,    18.87,    12.31
      255.0,      15.59,    11.93,    19.30,    18.84,    12.28
      256.0,      15.55,    11.89,    19.26,    18.81,    12.24
      257.0,      15.51,    11.85,    19.22,    18.78,    12.20
      258.0,      15.48,    11.82,    19.18,    18.75,    12.17
      259.0,      15.44,    11.78,    19.14,    18.71,    12.13
      260.0,      15.41,    11.75,    19.10,    18.68,    12.10
      261.0,      15.37,    11.71,    19.06,    18.65,    12.06
      262.0,      15.33,    11.67,    19.01,    18.62,    12.03
      263.0,      15.30,    11.64,    18.97,    18.59,    11.99
      264.0,      15.26,    11.60,    18.93,    18.56,    11.96
      265.0,      15.23,    11.57,    18.89,    18.53,    11.92
      266.0,      15.19,    11.53,    18.85,    18.50,    11.89
      267.0,      15.16,    11.50,    18.81,    18.47,    11.85
      268.0,      15.12,    11.46,    18.77,    18.43,    11.82
      269.0,      15.09,    11.43,    18.73,    18.40,    11.79
      270.0,      15.05,    11.40,    18.69,    18.37,    11.75
      271.0,      15.02,    11.36,    18.65,    18.34,    11.72
      272.0,      14.98,    11.33,    18.61,    18.31,    11.68
      273.0,      14.95,    11.30,    18.57,    18.28,    11.65
      274.0,      14.92,    11.27,    18.53,    18.25,    11.62
      275.0,      14.88,    11.23,    18.49,    18.22,    11.58
      276.0,      14.85,    11.20,    18.45,    18.19,    11.55
      277.0,      14.81,    11.17,    18.41,    18.16,    11.51
      278.0,      14.78,    11.14,    18.37,    18.13,    11.48
      279.0,      14.75,    11.11,    18.33,    18.10,    11.45
      280.0,      14.71,    11.08,    18.29,    18.07,    11.41
      281.0,      14.68,    11.04,    18.25,    18.04,    11.38
      282.0,      14.65,    11.01,    18.21,    18.01,    11.35
      283.0,      14.61,    10.98,    18.17,    17.98,    11.31
      284.0,      14.58,    10.95,    18.13,    17.95,    11.28
      285.0,      14.55,    10.92,    18.10,    17.92,    11.25
      286.0,      14.51,    10.89,    18.06,    17.89,    11.22
      287.0,      14.48,    10.86,    18.02,    17.86,    11.18
      288.0,      14.45,    10.83,    17.98,    17.83,    11.15
      289.0,      14.42,    10.81,    17.94,    17.80,    11.12
      290.0,      14.38,    10.78,    17.90,    17.77,    11.09
      291.0,      14.35,    10.75,    17.86,    17.74,    11.05
      292.0,      14.32,    10.72,    17.82,    17.71,    11.02
      293.0,      14.29,    10.69,    17.79,    17.68,    10.99
      294.0,      14.26,    10.66,    17.75,    17.65,    10.96
      295.0,      14.22,    10.63,    17.71,    17.63,    10.93
      296.0,      14.19,    10.61,    17.67,    17.60,    10.90
      297.0,      14.16,    10.58,    17.63,    17.57,    10.86
      298.0,      14.13,    10.55,    17.60,    17.54,    10.83
      299.0,      14.10,    10.52,    17.56,    17.51,    10.80
      300.0,      14.07,    10.50,    17.52,    17.48,    10.77
      301.0,      14.04,    10.47,    17.48,    17.45,    10.74
      302.0,      14.00,    10.44,    17.45,    17.42,    10.71
      303.0,      13.97,    10.42,    17.41,    17.39,    10.68
      304.0,      13.94,    10.39,    17.37,    17.36,    10.64
      305.0,      13.91,    10.37,    17.33,    17.34,    10.61
      306.0,      13.88,    10.34,    17.30,    17.31,    10.58
      307.0,      13.85,    10.31,    17.26,    17.28,    10.55
      308.0,      13.82,    10.29,    17.22,    17.25,    10.52
      309.0,      13.79,    10.26,    17.19,    17.22,    10.49
      310.0,      13.76,    10.24,    17.15,    17.19,    10.46
