Radius (km), Mean (m/s), NE (m/s), SE (m/s), SW (m/s), NW (m/s)
        0.0,       0.00,     0.00,     0.00,     0.00,     0.00
        1.0,       1.15,     1.13,     1.13,     1.14,     1.20
        2.0,       1.71,     1.69,     1.69,     1.70,     1.76
        3.0,       2.15,     2.14,     2.14,     2.14,     2.19
        4.0,       2.54,     2.53,     2.53,     2.53,     2.56
        5.0,       2.88,     2.87,     2.87,     2.88,     2.89
        6.0,       3.20,     3.20,     3.20,     3.20,     3.19
        7.0,       3.49,     3.50,     3.50,     3.50,     3.47
        8.0,       3.77,     3.78,     3.78,     3.78,     3.73
        9.0,       4.03,     4.05,     4.05,     4.04,     3.98
       10.0,       4.28,     4.30,     4.30,     4.29,     4.22
       11.0,       4.52,     4.55,     4.55,     4.54,     4.44
       12.0,       4.75,     4.78,     4.78,     4.77,     4.66
       13.0,       4.97,     5.01,     5.01,     5.00,     4.86
       14.0,       5.18,     5.23,     5.23,     5.22,     5.06
       15.0,       5.39,     5.44,     5.44,     5.43,     5.26
       16.0,       5.60,     5.65,     5.65,     5.63,     5.45
       17.0,       5.79,     5.85,     5.85,     5.83,     5.63
       18.0,       5.98,     6.05,     6.05,     6.03,     5.81
       19.0,       6.17,     6.25,     6.25,     6.22,     5.98
       20.0,       6.36,     6.43,     6.43,     6.41,     6.15
       21.0,       6.54,     6.62,     6.62,     6.59,     6.31
       22.0,       6.71,     6.80,     6.80,     6.77,     6.48
       23.0,       6.88,     6.98,     6.98,     6.94,     6.63
       24.0,       7.05,     7.15,     7.15,     7.12,     6.79
       25.0,       7.22,     7.33,     7.33,     7.29,     6.94
       26.0,       7.38,     7.49,     7.49,     7.45,     7.09
       27.0,       7.54,     7.66,     7.66,     7.62,     7.24
       28.0,       7.70,     7.82,     7.82,     7.78,     7.38
       29.0,       7.86,     7.99,     7.99,     7.94,     7.53
       30.0,       8.01,     8.14,     8.14,     8.10,     7.67
       31.0,       8.16,     8.30,     8.30,     8.25,     7.80
       32.0,       8.31,     8.46,     8.46,     8.40,     7.94
       33.0,       8.46,     8.61,     8.61,     8.55,     8.07
       34.0,       8.61,     8.76,     8.76,     8.70,     8.21
       35.0,       8.75,     8.91,     8.91,     8.85,     8.34
       36.0,       8.89,     9.05,     9.05,     8.99,     8.47
       37.0,       9.03,     9.20,     9.20,     9.14,     8.59
       38.0,       9.17,     9.34,     9.34,     9.28,     8.72
       39.0,       9.31,     9.49,     9.49,     9.42,     8.84
       40.0,       9.44,     9.63,     9.63,     9.56,     8.97
       41.0,       9.58,     9.77,     9.77,     9.69,     9.09
       42.0,       9.71,     9.90,     9.90,     9.83,     9.21
       43.0,       9.84,    10.04,    10.04,     9.96,     9.33
       44.0,       9.97,    10.17,    10.17,    10.10,     9.44
       45.0,      10.10,    10.31,    10.31,    10.23,     9.56
       46.0,      10.23,    10.44,    10.44,    10.36,     9.67
       47.0,      10.36,    10.57,    10.57,    10.49,     9.79
       48.0,      10.48,    10.70,    10.70,    10.62,     9.90
       49.0,      10.61,    10.83,    10.83,    10.75,    10.01
       50.0,      10.73,    10.96,    10.96,    10.87,    10.12
       51.0,      10.85,    11.09,    11.09,    11.00,    10.23
       52.0,      10.97,    11.21,    11.21,    11.12,    10.34
       53.0,      11.09,    11.34,    11.34,    11.24,    10.45
       54.0,      11.21,    11.46,    11.46,    11.36,    10.56
       55.0,      11.33,    11.58,    11.58,    11.49,    10.66
       56.0,      11.45,    11.71,    11.71,    11.61,    10.77
       57.0,      11.56,    11.83,    11.83,    11.72,    10.87
       58.0,      11.68,    11.95,    11.95,    11.84,    10.97
       59.0,      11.79,    12.07,    12.07,    11.96,    11.08
       60.0,      11.91,    12.18,    12.18,    12.08,    11.18
       61.0,      12.02,    12.30,    12.30,    12.19,    11.28
       62.0,      12.13,    12.42,    12.42,    12.31,    11.38
       63.0,      12.24,    12.53,    12.53,    12.42,    11.48
       64.0,      12.35,    12.65,    12.65,    12.54,    11.58
       65.0,      12.46,    12.76,    12.76,    12.65,    11.68
       66.0,      12.57,    12.88,    12.88,    12.76,    11.77
       67.0,      12.68,    12.99,    12.99,    12.87,    11.87
       68.0,      12.79,    13.10,    13.10,    12.98,    11.97
       69.0,      12.90,    13.22,    13.22,    13.09,    12.06
       70.0,      13.00,    13.33,    13.33,    13.20,    12.16
       71.0,      13.11,    13.44,    13.44,    13.31,    12.25
       72.0,      13.21,    13.55,    13.55,    13.42,    12.34
       73.0,      13.32,    13.66,    13.66,    13.52,    12.44
       74.0,      13.42,    13.76,    13.76,    13.63,    12.53
       75.0,      13.53,    13.87,    13.87,    13.74,    12.62
       76.0,      13.63,    13.98,    13.98,    13.84,    12.71
       77.0,      13.73,    14.09,    14.09,    13.95,    12.80
       78.0,      13.83,    14.19,    14.19,    14.05,    12.89
       79.0,      13.93,    14.30,    14.30,    14.15,    12.98
       80.0,      14.03,    14.40,    14.40,    14.26,    13.07
       81.0,      14.13,    14.51,    14.51,    14.36,    13.16
       82.0,      14.23,    14.61,    14.61,    14.46,    13.25
       83.0,      14.33,    14.71,    14.71,    14.56,    13.34
       84.0,      14.43,    14.82,    14.82,    14.67,    13.43
       85.0,      14.53,    14.92,    14.92,    14.77,    13.51
       86.0,      14.63,    15.02,    15.02,    14.87,    13.60
       87.0,      14.72,    15.12,    15.12,    14.97,    13.68
       88.0,      14.82,    15.22,    15.22,    15.06,    13.77
       89.0,      14.92,    15.32,    15.32,    15.16,    13.85
       90.0,      15.01,    15.42,    15.42,    15.26,    13.94
       91.0,      15.11,    15.52,    15.52,    15.36,    14.02
       92.0,      15.20,    15.62,    15.62,    15.46,    14.11
       93.0,      15.29,    15.72,    15.72,    15.55,    14.19
       94.0,      15.39,    15.82,    15.82,    15.65,    14.27
       95.0,      15.48,    15.91,    15.91,    15.74,    14.35
       96.0,      15.57,    16.01,    16.01,    15.84,    14.44
       97.0,      15.67,    16.11,    16.11,    15.93,    14.52
       98.0,      15.76,    16.20,    16.20,    16.03,    14.60
       99.0,      15.85,    16.30,    16.30,    16.12,    14.68
      100.0,      15.94,    16.40,    16.40,    16.22,    14.76
      101.0,      16.03,    16.49,    16.49,    16.31,    14.84
      102.0,      16.12,    16.59,    16.59,    16.40,    14.92
      103.0,      16.21,    16.68,    16.68,    16.50,    15.00
      104.0,      16.30,    16.77,    16.77,    16.59,    15.08
      105.0,      16.39,    16.87,    16.87,    16.68,    15.16
      106.0,      16.48,    16.96,    16.96,    16.77,    15.24
      107.0,      16.57,    17.05,    17.05,    16.86,    15.31
      108.0,      16.66,    17.15,    17.15,    16.95,    15.39
      109.0,      16.75,    17.24,    17.24,    17.04,    15.47
      110.0,      16.83,    17.33,    17.33,    17.13,    15.55
      111.0,      16.92,    17.42,    17.42,    17.22,    15.62
      112.0,      17.01,    17.51,    17.51,    17.31,    15.70
      113.0,      17.10,    17.60,    17.60,    17.40,    15.78
      114.0,      17.18,    17.69,    17.69,    17.49,    15.85
      115.0,      17.27,    17.78,    17.78,    17.58,    15.93
      116.0,      17.35,    17.87,    17.87,    17.67,    16.00
      117.0,      17.44,    17.96,    17.96,    17.76,    16.08
      118.0,      17.52,    18.05,    18.05,    17.84,    16.15
      119.0,      17.61,    18.14,    18.14,    17.93,    16.23
      120.0,      17.69,    18.23,    18.23,    18.02,    16.30
      121.0,      17.78,    18.32,    18.32,    18.10,    16.37
      122.0,      17.86,    18.40,    18.40,    18.19,    16.45
      123.0,      17.94,    18.49,    18.49,    18.28,    16.52
      124.0,      18.03,    18.58,    18.58,    18.36,    16.59
      125.0,      18.11,    18.67,    18.67,    18.45,    16.67
      126.0,      18.19,    18.75,    18.75,    18.53,    16.74
      127.0,      18.28,    18.84,    18.84,    18.62,    16.81
      128.0,      18.36,    18.93,    18.93,    18.70,    16.88
      129.0,      18.44,    19.01,    19.01,    18.78,    16.95
      130.0,      18.52,    19.10,    19.10,    18.87,    17.03
      131.0,      18.60,    19.18,    19.18,    18.95,    17.10
      132.0,      18.68,    19.27,    19.27,    19.04,    17.17
      133.0,      18.76,    19.35,    19.35,    19.12,    17.24
      134.0,      18.85,    19.44,    19.44,    19.20,    17.31
      135.0,      18.93,    19.52,    19.52,    19.28,    17.38
      136.0,      19.01,    19.60,    19.60,    19.37,    17.45
      137.0,      19.09,    19.69,    19.69,    19.45,    17.52
      138.0,      19.16,    19.77,    19.77,    19.53,    17.59
      139.0,      19.24,    19.85,    19.85,    19.61,    17.66
      140.0,      19.32,    19.94,    19.94,    19.69,    17.73
      141.0,      19.40,    20.02,    20.02,    19.77,    17.80
      142.0,      19.48,    20.10,    20.10,    19.85,    17.86
      143.0,      19.56,    20.18,    20.18,    19.94,    17.93
      144.0,      19.64,    20.27,    20.27,    20.02,    18.00
      145.0,      19.71,    20.35,    20.35,    20.10,    18.07
      146.0,      19.79,    20.43,    20.43,    20.18,    18.14
      147.0,      19.87,    20.51,    20.51,    20.25,    18.20
      148.0,      19.95,    20.59,    20.59,    20.33,    18.27
      149.0,      20.02,    20.67,    20.67,    20.41,    18.34
      150.0,      20.10,    20.75,    20.75,    20.49,    18.40
      151.0,      20.18,    20.83,    20.83,    20.57,    18.47
      152.0,      20.25,    20.91,    20.91,    20.65,    18.54
      153.0,      20.33,    20.99,    20.99,    20.73,    18.60
      154.0,      20.41,    21.07,    21.07,    20.81,    18.67
      155.0,      20.49,    21.15,    21.16,    20.89,    18.74
      156.0,      20.57,    21.24,    21.26,    20.97,    18.83
      157.0,      20.67,    21.33,    21.36,    21.07,    18.92
      158.0,      20.77,    21.43,    21.48,    21.17,    19.02
      159.0,      20.89,    21.53,    21.60,    21.28,    19.13
      160.0,      21.00,    21.64,    21.73,    21.40,    19.24
      161.0,      21.12,    21.75,    21.85,    21.51,    19.35
      162.0,      21.22,    21.86,    21.95,    21.62,    19.44
      163.0,      21.30,    21.95,    22.03,    21.70,    19.50
      164.0,      21.35,    22.02,    22.08,    21.76,    19.54
      165.0,      21.38,    22.06,    22.10,    21.79,    19.55
      166.0,      21.37,    22.07,    22.09,    21.79,    19.52
      167.0,      21.34,    22.06,    22.05,    21.77,    19.47
      168.0,      21.28,    22.01,    21.99,    21.71,    19.40
      169.0,      21.20,    21.95,    21.91,    21.64,    19.31
      170.0,      21.12,    21.88,    21.83,    21.56,    19.21
      171.0,      21.03,    21.80,    21.74,    21.47,    19.11
      172.0,      20.95,    21.72,    21.66,    21.39,    19.02
      173.0,      20.87,    21.64,    21.59,    21.31,    18.93
      174.0,      20.79,    21.56,    21.51,    21.23,    18.85
      175.0,      20.72,    21.49,    21.44,    21.16,    18.77
      176.0,      20.65,    21.43,    21.38,    21.09,    18.70
      177.0,      20.58,    21.37,    21.31,    21.03,    18.63
      178.0,      20.52,    21.30,    21.25,    20.97,    18.56
      179.0,      20.45,    21.24,    21.18,    20.90,    18.49
      180.0,      20.39,    21.18,    21.12,    20.84,    18.42
      181.0,      20.33,    21.12,    21.06,    20.78,    18.36
      182.0,      20.27,    21.06,    21.00,    20.73,    18.30
      183.0,      20.21,    21.00,    20.95,    20.67,    18.24
      184.0,      20.16,    20.94,    20.89,    20.61,    18.18
      185.0,      20.10,    20.89,    20.83,    20.56,    18.12
      186.0,      20.05,    20.83,    20.78,    20.50,    18.07
      187.0,      19.99,    20.77,    20.73,    20.45,    18.01
      188.0,      19.94,    20.72,    20.67,    20.40,    17.96
      189.0,      19.89,    20.66,    20.62,    20.35,    17.91
      190.0,      19.84,    20.61,    20.57,    20.30,    17.86
      191.0,      19.79,    20.56,    20.52,    20.25,    17.81
      192.0,      19.74,    20.50,    20.48,    20.20,    17.76
      193.0,      19.69,    20.45,    20.43,    20.15,    17.72
      194.0,      19.64,    20.40,    20.38,    20.11,    17.67
      195.0,      19.59,    20.35,    20.34,    20.06,    17.63
      196.0,      19.55,    20.30,    20.29,    20.02,    17.59
      197.0,      19.50,    20.25,    20.25,    19.97,    17.55
      198.0,      19.46,    20.20,    20.20,    19.93,    17.51
      199.0,      19.41,    20.15,    20.16,    19.89,    17.47
      200.0,      19.37,    20.10,    20.12,    19.84,    17.43
      201.0,      19.33,    20.05,    20.08,    19.80,    17.39
      202.0,      19.29,    20.00,    20.04,    19.76,    17.35
      203.0,      19.25,    19.96,    20.00,    19.72,    17.32
      204.0,      19.21,    19.91,    19.96,    19.68,    17.28
      205.0,      19.17,    19.86,    19.92,    19.64,    17.25
      206.0,      19.13,    19.82,    19.88,    19.60,    17.21
      207.0,      19.09,    19.77,    19.85,    19.56,    17.18
      208.0,      19.05,    19.72,    19.81,    19.52,    17.15
      209.0,      19.01,    19.68,    19.77,    19.48,    17.11
      210.0,      18.98,    19.63,    19.74,    19.45,    17.08
      211.0,      18.94,    19.59,    19.70,    19.41,    17.05
      212.0,      18.90,    19.55,    19.67,    19.37,    17.02
      213.0,      18.87,    19.50,    19.63,    19.34,    16.99
      214.0,      18.83,    19.46,    19.60,    19.30,    16.96
      215.0,      18.80,    19.42,    19.57,    19.26,    16.93
      216.0,      18.76,    19.37,    19.53,    19.23,    16.91
      217.0,      18.73,    19.33,    19.50,    19.19,    16.88
      218.0,      18.69,    19.29,    19.47,    19.16,    16.85
      219.0,      18.66,    19.25,    19.44,    19.13,    16.82
      220.0,      18.63,    19.21,    19.41,    19.09,    16.80
      221.0,      18.59,    19.17,    19.38,    19.06,    16.77
      222.0,      18.56,    19.13,    19.35,    19.02,    16.75
      223.0,      18.53,    19.08,    19.32,    18.99,    16.72
      224.0,      18.50,    19.04,    19.29,    18.96,    16.70
      225.0,      18.46,    19.00,    19.26,    18.93,    16.67
      226.0,      18.43,    18.96,    19.23,    18.89,    16.65
      227.0,      18.40,    18.93,    19.20,    18.86,    16.62
      228.0,      18.37,    18.89,    19.17,    18.83,    16.60
      229.0,      18.34,    18.85,    19.14,    18.80,    16.58
      230.0,      18.31,    18.81,    19.11,    18.77,    16.55
      231.0,      18.28,    18.77,    19.09,    18.73,    16.53
      232.0,      18.25,    18.73,    19.06,    18.70,    16.51
      233.0,      18.22,    18.69,    19.03,    18.67,    16.49
      234.0,      18.19,    18.66,    19.01,    18.64,    16.46
      235.0,      18.16,    18.62,    18.98,    18.61,    16.44
      236.0,      18.13,    18.58,    18.95,    18.58,    16.42
      237.0,      18.11,    18.54,    18.93,    18.55,    16.40
      238.0,      18.08,    18.51,    18.90,    18.52,    16.38
      239.0,      18.05,    18.47,    18.88,    18.49,    16.36
      240.0,      18.02,    18.43,    18.85,    18.46,    16.34
      241.0,      17.99,    18.40,    18.83,    18.43,    16.32
      242.0,      17.97,    18.36,    18.80,    18.40,    16.30
      243.0,      17.94,    18.32,    18.78,    18.37,    16.28
      244.0,      17.91,    18.29,    18.75,    18.34,    16.26
      245.0,      17.88,    18.25,    18.73,    18.31,    16.24
      246.0,      17.86,    18.22,    18.71,    18.29,    16.22
      247.0,      17.83,    18.18,    18.68,    18.26,    16.20
      248.0,      17.80,    18.15,    18.66,    18.23,    16.18
      249.0,      17.78,    18.11,    18.64,    18.20,    16.16
      250.0,      17.75,    18.08,    18.61,    18.17,    16.14
      251.0,      17.72,    18.04,    18.59,    18.14,    16.12
      252.0,      17.70,    18.01,    18.57,    18.11,    16.10
      253.0,      17.67,    17.97,    18.54,    18.09,    16.08
      254.0,      17.65,    17.94,    18.52,    18.06,    16.07
      255.0,      17.62,    17.90,    18.50,    18.03,    16.05
      256.0,      17.59,    17.87,    18.48,    18.00,    16.03
      257.0,      17.57,    17.84,    18.45,    17.98,    16.01
      258.0,      17.54,    17.80,    18.43,    17.95,    15.99
      259.0,      17.52,    17.77,    18.41,    17.92,    15.97
      260.0,      17.49,    17.74,    18.39,    17.89,    15.96
      261.0,      17.47,    17.70,    18.37,    17.87,    15.94
      262.0,      17.44,    17.67,    18.35,    17.84,    15.92
      263.0,      17.42,    17.64,    18.32,    17.81,    15.90
      264.0,      17.39,    17.60,    18.30,    17.78,    15.89
      265.0,      17.37,    17.57,    18.28,    17.76,    15.87
      266.0,      17.34,    17.54,    18.26,    17.73,    15.85
      267.0,      17.32,    17.51,    18.24,    17.70,    15.83
      268.0,      17.30,    17.47,    18.22,    17.68,    15.82
      269.0,      17.27,    17.44,    18.20,    17.65,    15.80
      270.0,      17.25,    17.41,    18.18,    17.62,    15.78
      271.0,      17.22,    17.38,    18.16,    17.60,    15.77
      272.0,      17.20,    17.34,    18.14,    17.57,    15.75
      273.0,      17.18,    17.31,    18.12,    17.54,    15.73
      274.0,      17.15,    17.28,    18.10,    17.52,    15.71
      275.0,      17.13,    17.25,    18.07,    17.49,    15.70
      276.0,      17.10,    17.22,    18.05,    17.47,    15.68
      277.0,      17.08,    17.19,    18.03,    17.44,    15.66
      278.0,      17.06,    17.15,    18.01,    17.41,    15.65
      279.0,      17.03,    17.12,    17.99,    17.39,    15.63
      280.0,      17.01,    17.09,    17.98,    17.36,    15.62
      281.0,      16.99,    17.06,    17.96,    17.34,    15.60
      282.0,      16.96,    17.03,    17.94,    17.31,    15.58
      283.0,      16.94,    17.00,    17.92,    17.28,    15.57
      284.0,      16.92,    16.97,    17.90,    17.26,    15.55
      285.0,      16.89,    16.94,    17.88,    17.23,    15.53
      286.0,      16.87,    16.91,    17.86,    17.21,    15.52
      287.0,      16.85,    16.88,    17.84,    17.18,    15.50
      288.0,      16.83,    16.85,    17.82,    17.16,    15.48
      289.0,      16.80,    16.81,    17.80,    17.13,    15.47
      290.0,      16.78,    16.78,    17.78,    17.10,    15.45
      291.0,      16.76,    16.75,    17.76,    17.08,    15.44
      292.0,      16.74,    16.72,    17.74,    17.05,    15.42
      293.0,      16.71,    16.69,    17.72,    17.03,    15.40
      294.0,      16.69,    16.66,    17.71,    17.00,    15.39
      295.0,      16.67,    16.63,    17.69,    16.98,    15.37
      296.0,      16.65,    16.60,    17.67,    16.95,    15.36
      297.0,      16.62,    16.57,    17.65,    16.93,    15.34
      298.0,      16.60,    16.54,    17.63,    16.90,    15.33
      299.0,      16.58,    16.52,    17.61,    16.88,    15.31
      300.0,      16.56,    16.49,    17.59,    16.85,    15.29
      301.0,      16.53,    16.46,    17.57,    16.83,    15.28
      302.0,      16.51,    16.43,    17.56,    16.80,    15.26
      303.0,      16.49,    16.40,    17.54,    16.78,    15.25
      304.0,      16.47,    16.37,    17.52,    16.75,    15.23
      305.0,      16.45,    16.34,    17.50,    16.73,    15.22
      306.0,      16.42,    16.31,    17.48,    16.71,    15.20
      307.0,      16.40,    16.28,    17.46,    16.68,    15.19
      308.0,      16.38,    16.25,    17.45,    16.66,    15.17
      309.0,      16.36,    16.22,    17.43,    16.63,    15.15
      310.0,      16.34,    16.19,    17.41,    16.61,    15.14
