Radius (km), Mean (m/s), NE (m/s), SE (m/s), SW (m/s), NW (m/s)
        0.0,       0.00,     0.00,     0.00,     0.00,     0.00
        1.0,       2.14,     2.19,     2.06,     2.13,     2.19
        2.0,       3.55,     3.59,     3.48,     3.55,     3.59
        3.0,       4.77,     4.79,     4.74,     4.77,     4.79
        4.0,       5.89,     5.88,     5.90,     5.90,     5.88
        5.0,       6.93,     6.89,     6.99,     6.94,     6.89
        6.0,       7.92,     7.85,     8.03,     7.94,     7.85
        7.0,       8.86,     8.76,     9.02,     8.89,     8.76
        8.0,       9.76,     9.63,     9.99,     9.80,     9.63
        9.0,      10.64,    10.47,    10.92,    10.69,    10.47
       10.0,      11.49,    11.29,    11.83,    11.55,    11.29
       11.0,      12.32,    12.08,    12.72,    12.38,    12.08
       12.0,      13.13,    12.86,    13.59,    13.20,    12.86
       13.0,      13.92,    13.61,    14.44,    14.00,    13.61
       14.0,      14.69,    14.35,    15.28,    14.78,    14.35
       15.0,      15.45,    15.07,    16.10,    15.55,    15.07
       16.0,      16.19,    15.78,    16.91,    16.30,    15.78
       17.0,      16.93,    16.48,    17.71,    17.04,    16.48
       18.0,      17.65,    17.16,    18.50,    17.77,    17.16
       19.0,      18.36,    17.83,    19.27,    18.49,    17.83
       20.0,      19.06,    18.50,    20.04,    19.20,    18.50
       21.0,      19.75,    19.15,    20.80,    19.90,    19.16
       22.0,      20.44,    19.80,    21.55,    20.60,    19.82
       23.0,      21.15,    20.45,    22.32,    21.31,    20.52
       24.0,      21.89,    21.11,    23.13,    22.05,    21.28
       25.0,      22.68,    21.81,    23.99,    22.84,    22.09
       26.0,      23.53,    22.55,    24.91,    23.69,    22.98
       27.0,      24.43,    23.34,    25.89,    24.59,    23.91
       28.0,      25.36,    24.17,    26.89,    25.52,    24.86
       29.0,      26.28,    25.01,    27.90,    26.44,    25.78
       30.0,      27.16,    25.83,    28.86,    27.33,    26.63
       31.0,      27.96,    26.59,    29.73,    28.13,    27.37
       32.0,      28.63,    27.27,    30.48,    28.82,    27.96
       33.0,      29.17,    27.82,    31.08,    29.37,    28.40
       34.0,      29.55,    28.23,    31.52,    29.77,    28.67
       35.0,      29.78,    28.51,    31.81,    30.03,    28.79
       36.0,      29.89,    28.65,    31.96,    30.15,    28.79
       37.0,      29.89,    28.69,    32.01,    30.17,    28.69
       38.0,      29.82,    28.64,    31.97,    30.12,    28.54
       39.0,      29.71,    28.55,    31.90,    30.03,    28.36
       40.0,      29.58,    28.43,    31.81,    29.93,    28.17
       41.0,      29.46,    28.30,    31.71,    29.82,    27.99
       42.0,      29.34,    28.18,    31.63,    29.72,    27.81
       43.0,      29.22,    28.07,    31.55,    29.63,    27.65
       44.0,      29.11,    27.97,    31.47,    29.54,    27.48
       45.0,      29.00,    27.87,    31.39,    29.45,    27.32
       46.0,      28.90,    27.76,    31.32,    29.36,    27.15
       47.0,      28.79,    27.66,    31.24,    29.27,    26.99
       48.0,      28.69,    27.56,    31.17,    29.18,    26.84
       49.0,      28.58,    27.46,    31.09,    29.09,    26.68
       50.0,      28.48,    27.36,    31.02,    29.00,    26.53
       51.0,      28.38,    27.26,    30.94,    28.92,    26.38
       52.0,      28.27,    27.17,    30.87,    28.83,    26.23
       53.0,      28.17,    27.07,    30.79,    28.74,    26.09
       54.0,      28.07,    26.97,    30.72,    28.66,    25.94
       55.0,      27.97,    26.87,    30.64,    28.57,    25.80
       56.0,      27.87,    26.77,    30.57,    28.49,    25.66
       57.0,      27.78,    26.68,    30.49,    28.40,    25.53
       58.0,      27.68,    26.58,    30.42,    28.32,    25.39
       59.0,      27.58,    26.49,    30.35,    28.23,    25.26
       60.0,      27.49,    26.39,    30.27,    28.15,    25.13
       61.0,      27.39,    26.30,    30.20,    28.07,    25.00
       62.0,      27.30,    26.20,    30.13,    27.99,    24.87
       63.0,      27.20,    26.11,    30.05,    27.90,    24.74
       64.0,      27.11,    26.02,    29.98,    27.82,    24.62
       65.0,      27.02,    25.92,    29.91,    27.74,    24.50
       66.0,      26.93,    25.83,    29.84,    27.66,    24.38
       67.0,      26.83,    25.74,    29.77,    27.58,    24.26
       68.0,      26.74,    25.65,    29.69,    27.50,    24.14
       69.0,      26.65,    25.55,    29.62,    27.42,    24.02
       70.0,      26.57,    25.46,    29.55,    27.34,    23.91
       71.0,      26.48,    25.37,    29.48,    27.26,    23.80
       72.0,      26.39,    25.28,    29.41,    27.18,    23.69
       73.0,      26.30,    25.19,    29.34,    27.10,    23.58
       74.0,      26.22,    25.10,    29.27,    27.03,    23.47
       75.0,      26.13,    25.01,    29.20,    26.95,    23.36
       76.0,      26.04,    24.92,    29.13,    26.87,    23.26
       77.0,      25.96,    24.84,    29.06,    26.79,    23.15
       78.0,      25.88,    24.75,    28.99,    26.72,    23.05
       79.0,      25.79,    24.66,    28.92,    26.64,    22.95
       80.0,      25.71,    24.57,    28.85,    26.56,    22.85
       81.0,      25.63,    24.49,    28.78,    26.49,    22.75
       82.0,      25.54,    24.40,    28.71,    26.41,    22.66
       83.0,      25.46,    24.31,    28.64,    26.34,    22.56
       84.0,      25.38,    24.23,    28.57,    26.26,    22.47
       85.0,      25.30,    24.14,    28.50,    26.19,    22.37
       86.0,      25.22,    24.06,    28.43,    26.12,    22.28
       87.0,      25.14,    23.97,    28.36,    26.04,    22.19
       88.0,      25.06,    23.89,    28.30,    25.97,    22.10
       89.0,      24.99,    23.81,    28.23,    25.90,    22.02
       90.0,      24.91,    23.72,    28.16,    25.82,    21.93
       91.0,      24.83,    23.64,    28.09,    25.75,    21.84
       92.0,      24.76,    23.56,    28.02,    25.68,    21.76
       93.0,      24.68,    23.47,    27.96,    25.61,    21.68
       94.0,      24.60,    23.39,    27.89,    25.54,    21.59
       95.0,      24.53,    23.31,    27.82,    25.47,    21.51
       96.0,      24.45,    23.23,    27.76,    25.40,    21.43
       97.0,      24.38,    23.15,    27.69,    25.33,    21.35
       98.0,      24.31,    23.07,    27.62,    25.26,    21.28
       99.0,      24.23,    22.99,    27.56,    25.19,    21.20
      100.0,      24.16,    22.91,    27.49,    25.12,    21.12
      101.0,      24.09,    22.83,    27.42,    25.05,    21.05
      102.0,      24.02,    22.75,    27.36,    24.98,    20.97
      103.0,      23.94,    22.67,    27.29,    24.91,    20.90
      104.0,      23.87,    22.59,    27.23,    24.84,    20.83
      105.0,      23.80,    22.51,    27.16,    24.77,    20.76
      106.0,      23.73,    22.44,    27.10,    24.71,    20.69
      107.0,      23.66,    22.36,    27.03,    24.64,    20.62
      108.0,      23.59,    22.28,    26.97,    24.57,    20.55
      109.0,      23.52,    22.20,    26.90,    24.51,    20.48
      110.0,      23.45,    22.13,    26.84,    24.44,    20.41
      111.0,      23.39,    22.05,    26.77,    24.37,    20.35
      112.0,      23.32,    21.97,    26.71,    24.31,    20.28
      113.0,      23.25,    21.90,    26.65,    24.24,    20.22
      114.0,      23.18,    21.82,    26.58,    24.18,    20.15
      115.0,      23.12,    21.75,    26.52,    24.11,    20.09
      116.0,      23.05,    21.67,    26.46,    24.05,    20.03
      117.0,      22.99,    21.60,    26.39,    23.98,    19.97
      118.0,      22.92,    21.53,    26.33,    23.92,    19.91
      119.0,      22.85,    21.45,    26.27,    23.85,    19.85
      120.0,      22.79,    21.38,    26.20,    23.79,    19.79
      121.0,      22.73,    21.30,    26.14,    23.73,    19.73
      122.0,      22.66,    21.23,    26.08,    23.66,    19.67
      123.0,      22.60,    21.16,    26.02,    23.60,    19.62
      124.0,      22.53,    21.09,    25.95,    23.54,    19.56
      125.0,      22.47,    21.02,    25.89,    23.47,    19.50
      126.0,      22.41,    20.94,    25.83,    23.41,    19.45
      127.0,      22.35,    20.87,    25.77,    23.35,    19.39
      128.0,      22.28,    20.80,    25.71,    23.29,    19.34
      129.0,      22.22,    20.73,    25.64,    23.23,    19.29
      130.0,      22.16,    20.66,    25.58,    23.17,    19.23
      131.0,      22.10,    20.59,    25.52,    23.11,    19.18
      132.0,      22.04,    20.52,    25.46,    23.04,    19.13
      133.0,      21.98,    20.45,    25.40,    22.98,    19.08
      134.0,      21.92,    20.38,    25.34,    22.92,    19.03
      135.0,      21.86,    20.31,    25.28,    22.86,    18.98
      136.0,      21.80,    20.24,    25.22,    22.80,    18.93
      137.0,      21.74,    20.17,    25.16,    22.74,    18.88
      138.0,      21.68,    20.11,    25.10,    22.69,    18.83
      139.0,      21.62,    20.04,    25.04,    22.63,    18.79
      140.0,      21.56,    19.97,    24.98,    22.57,    18.74
      141.0,      21.51,    19.90,    24.92,    22.51,    18.69
      142.0,      21.45,    19.84,    24.86,    22.45,    18.65
      143.0,      21.39,    19.77,    24.80,    22.39,    18.60
      144.0,      21.33,    19.70,    24.74,    22.34,    18.56
      145.0,      21.28,    19.64,    24.68,    22.28,    18.51
      146.0,      21.22,    19.57,    24.62,    22.22,    18.47
      147.0,      21.16,    19.50,    24.57,    22.16,    18.42
      148.0,      21.11,    19.44,    24.51,    22.11,    18.38
      149.0,      21.05,    19.37,    24.45,    22.05,    18.34
      150.0,      21.00,    19.31,    24.39,    21.99,    18.30
      151.0,      20.94,    19.24,    24.33,    21.94,    18.25
      152.0,      20.89,    19.18,    24.27,    21.88,    18.21
      153.0,      20.83,    19.12,    24.22,    21.82,    18.17
      154.0,      20.78,    19.05,    24.16,    21.77,    18.13
      155.0,      20.72,    18.99,    24.10,    21.71,    18.09
      156.0,      20.67,    18.92,    24.04,    21.66,    18.05
      157.0,      20.62,    18.86,    23.99,    21.60,    18.01
      158.0,      20.56,    18.80,    23.93,    21.55,    17.97
      159.0,      20.51,    18.74,    23.87,    21.49,    17.93
      160.0,      20.46,    18.67,    23.82,    21.44,    17.90
      161.0,      20.40,    18.61,    23.76,    21.39,    17.86
      162.0,      20.35,    18.55,    23.70,    21.33,    17.82
      163.0,      20.30,    18.49,    23.65,    21.28,    17.78
      164.0,      20.25,    18.43,    23.59,    21.22,    17.75
      165.0,      20.20,    18.36,    23.54,    21.17,    17.71
      166.0,      20.14,    18.30,    23.48,    21.12,    17.67
      167.0,      20.09,    18.24,    23.42,    21.07,    17.64
      168.0,      20.04,    18.18,    23.37,    21.01,    17.60
      169.0,      19.99,    18.12,    23.31,    20.96,    17.57
      170.0,      19.94,    18.06,    23.26,    20.91,    17.53
      171.0,      19.89,    18.00,    23.20,    20.86,    17.50
      172.0,      19.84,    17.94,    23.15,    20.80,    17.46
      173.0,      19.79,    17.88,    23.09,    20.75,    17.43
      174.0,      19.74,    17.82,    23.04,    20.70,    17.40
      175.0,      19.69,    17.77,    22.98,    20.65,    17.36
      176.0,      19.64,    17.71,    22.93,    20.60,    17.33
      177.0,      19.59,    17.65,    22.87,    20.55,    17.30
      178.0,      19.54,    17.59,    22.82,    20.50,    17.27
      179.0,      19.49,    17.53,    22.77,    20.44,    17.23
      180.0,      19.45,    17.47,    22.71,    20.39,    17.20
      181.0,      19.40,    17.42,    22.66,    20.34,    17.17
      182.0,      19.35,    17.36,    22.60,    20.29,    17.14
      183.0,      19.30,    17.30,    22.55,    20.24,    17.11
      184.0,      19.25,    17.25,    22.50,    20.19,    17.08
      185.0,      19.21,    17.19,    22.44,    20.14,    17.05
      186.0,      19.16,    17.13,    22.39,    20.10,    17.02
      187.0,      19.11,    17.08,    22.34,    20.05,    16.99
      188.0,      19.07,    17.02,    22.28,    20.00,    16.96
      189.0,      19.02,    16.97,    22.23,    19.95,    16.93
      190.0,      18.97,    16.91,    22.18,    19.90,    16.90
      191.0,      18.93,    16.85,    22.13,    19.85,    16.87
      192.0,      18.88,    16.80,    22.07,    19.80,    16.84
      193.0,      18.83,    16.74,    22.02,    19.75,    16.81
      194.0,      18.79,    16.69,    21.97,    19.71,    16.78
      195.0,      18.74,    16.64,    21.92,    19.66,    16.76
      196.0,      18.70,    16.58,    21.87,    19.61,    16.73
      197.0,      18.65,    16.53,    21.81,    19.56,    16.70
      198.0,      18.61,    16.47,    21.76,    19.52,    16.67
      199.0,      18.56,    16.42,    21.71,    19.47,    16.65
      200.0,      18.52,    16.37,    21.66,    19.42,    16.62
      201.0,      18.47,    16.31,    21.61,    19.37,    16.59
      202.0,      18.43,    16.26,    21.56,    19.33,    16.57
      203.0,      18.38,    16.21,    21.51,    19.28,    16.54
      204.0,      18.34,    16.16,    21.46,    19.23,    16.51
      205.0,      18.30,    16.10,    21.41,    19.19,    16.49
      206.0,      18.25,    16.05,    21.35,    19.14,    16.46
      207.0,      18.21,    16.00,    21.30,    19.10,    16.43
      208.0,      18.17,    15.95,    21.25,    19.05,    16.41
      209.0,      18.12,    15.90,    21.20,    19.01,    16.38
      210.0,      18.08,    15.84,    21.15,    18.96,    16.36
      211.0,      18.04,    15.79,    21.10,    18.91,    16.33
      212.0,      17.99,    15.74,    21.05,    18.87,    16.31
      213.0,      17.95,    15.69,    21.00,    18.82,    16.28
      214.0,      17.91,    15.64,    20.95,    18.78,    16.26
      215.0,      17.87,    15.59,    20.91,    18.73,    16.23
      216.0,      17.82,    15.54,    20.86,    18.69,    16.21
      217.0,      17.78,    15.49,    20.81,    18.65,    16.19
      218.0,      17.74,    15.44,    20.76,    18.60,    16.16
      219.0,      17.70,    15.39,    20.71,    18.56,    16.14
      220.0,      17.66,    15.34,    20.66,    18.51,    16.11
      221.0,      17.62,    15.29,    20.61,    18.47,    16.09
      222.0,      17.57,    15.24,    20.56,    18.43,    16.07
      223.0,      17.53,    15.19,    20.51,    18.38,    16.04
      224.0,      17.49,    15.14,    20.47,    18.34,    16.02
      225.0,      17.45,    15.10,    20.42,    18.30,    16.00
      226.0,      17.41,    15.05,    20.37,    18.25,    15.98
      227.0,      17.37,    15.00,    20.32,    18.21,    15.95
      228.0,      17.33,    14.95,    20.27,    18.17,    15.93
      229.0,      17.29,    14.90,    20.23,    18.12,    15.91
      230.0,      17.25,    14.86,    20.18,    18.08,    15.89
      231.0,      17.21,    14.81,    20.13,    18.04,    15.86
      232.0,      17.17,    14.76,    20.08,    18.00,    15.84
      233.0,      17.13,    14.71,    20.04,    17.96,    15.82
      234.0,      17.09,    14.67,    19.99,    17.91,    15.80
      235.0,      17.05,    14.62,    19.94,    17.87,    15.78
      236.0,      17.01,    14.57,    19.90,    17.83,    15.76
      237.0,      16.97,    14.53,    19.85,    17.79,    15.73
      238.0,      16.94,    14.48,    19.80,    17.75,    15.71
      239.0,      16.90,    14.43,    19.76,    17.71,    15.69
      240.0,      16.86,    14.39,    19.71,    17.66,    15.67
      241.0,      16.82,    14.34,    19.66,    17.62,    15.65
      242.0,      16.78,    14.30,    19.62,    17.58,    15.63
      243.0,      16.74,    14.25,    19.57,    17.54,    15.61
      244.0,      16.70,    14.21,    19.52,    17.50,    15.59
      245.0,      16.67,    14.16,    19.48,    17.46,    15.57
      246.0,      16.63,    14.12,    19.43,    17.42,    15.55
      247.0,      16.59,    14.07,    19.39,    17.38,    15.53
      248.0,      16.55,    14.03,    19.34,    17.34,    15.51
      249.0,      16.52,    13.98,    19.30,    17.30,    15.49
      250.0,      16.48,    13.94,    19.25,    17.26,    15.47
      251.0,      16.44,    13.89,    19.21,    17.22,    15.45
      252.0,      16.40,    13.85,    19.16,    17.18,    15.43
      253.0,      16.37,    13.81,    19.12,    17.14,    15.41
      254.0,      16.33,    13.76,    19.07,    17.10,    15.39
      255.0,      16.29,    13.72,    19.03,    17.06,    15.37
      256.0,      16.26,    13.68,    18.98,    17.02,    15.35
      257.0,      16.22,    13.63,    18.94,    16.98,    15.33
      258.0,      16.18,    13.59,    18.89,    16.94,    15.31
      259.0,      16.15,    13.55,    18.85,    16.91,    15.29
      260.0,      16.11,    13.50,    18.80,    16.87,    15.27
      261.0,      16.07,    13.46,    18.76,    16.83,    15.25
      262.0,      16.04,    13.42,    18.72,    16.79,    15.23
      263.0,      16.00,    13.38,    18.67,    16.75,    15.21
      264.0,      15.97,    13.33,    18.63,    16.71,    15.19
      265.0,      15.93,    13.29,    18.58,    16.67,    15.18
      266.0,      15.90,    13.25,    18.54,    16.64,    15.16
      267.0,      15.86,    13.21,    18.50,    16.60,    15.14
      268.0,      15.83,    13.17,    18.45,    16.56,    15.12
      269.0,      15.79,    13.13,    18.41,    16.52,    15.10
      270.0,      15.75,    13.08,    18.37,    16.49,    15.08
      271.0,      15.72,    13.04,    18.32,    16.45,    15.06
      272.0,      15.69,    13.00,    18.28,    16.41,    15.05
      273.0,      15.65,    12.96,    18.24,    16.37,    15.03
      274.0,      15.62,    12.92,    18.20,    16.34,    15.01
      275.0,      15.58,    12.88,    18.15,    16.30,    14.99
      276.0,      15.55,    12.84,    18.11,    16.26,    14.97
      277.0,      15.51,    12.80,    18.07,    16.23,    14.96
      278.0,      15.48,    12.76,    18.03,    16.19,    14.94
      279.0,      15.44,    12.72,    17.98,    16.15,    14.92
      280.0,      15.41,    12.68,    17.94,    16.12,    14.90
      281.0,      15.38,    12.64,    17.90,    16.08,    14.89
      282.0,      15.34,    12.60,    17.86,    16.04,    14.87
      283.0,      15.31,    12.56,    17.82,    16.01,    14.85
      284.0,      15.28,    12.52,    17.77,    15.97,    14.83
      285.0,      15.24,    12.48,    17.73,    15.94,    14.82
      286.0,      15.21,    12.44,    17.69,    15.90,    14.80
      287.0,      15.18,    12.41,    17.65,    15.86,    14.78
      288.0,      15.14,    12.37,    17.61,    15.83,    14.76
      289.0,      15.11,    12.33,    17.57,    15.79,    14.75
      290.0,      15.08,    12.29,    17.53,    15.76,    14.73
      291.0,      15.04,    12.25,    17.49,    15.72,    14.71
      292.0,      15.01,    12.21,    17.44,    15.69,    14.70
      293.0,      14.98,    12.18,    17.40,    15.65,    14.68
      294.0,      14.94,    12.14,    17.36,    15.62,    14.66
      295.0,      14.91,    12.10,    17.32,    15.58,    14.64
      296.0,      14.88,    12.06,    17.28,    15.55,    14.63
      297.0,      14.85,    12.03,    17.24,    15.51,    14.61
      298.0,      14.82,    11.99,    17.20,    15.48,    14.59
      299.0,      14.78,    11.95,    17.16,    15.44,    14.58
      300.0,      14.75,    11.91,    17.12,    15.41,    14.56
      301.0,      14.72,    11.88,    17.08,    15.37,    14.54
      302.0,      14.69,    11.84,    17.04,    15.34,    14.53
      303.0,      14.66,    11.80,    17.00,    15.31,    14.51
      304.0,      14.62,    11.77,    16.96,    15.27,    14.50
      305.0,      14.59,    11.73,    16.92,    15.24,    14.48
      306.0,      14.56,    11.69,    16.88,    15.20,    14.46
      307.0,      14.53,    11.66,    16.84,    15.17,    14.45
      308.0,      14.50,    11.62,    16.80,    15.14,    14.43
      309.0,      14.47,    11.59,    16.76,    15.10,    14.41
      310.0,      14.44,    11.55,    16.73,    15.07,    14.40
