Radius (km), Mean (m/s), NE (m/s), SE (m/s), SW (m/s), NW (m/s)
        0.0,       0.00,     0.00,     0.00,     0.00,     0.00
        1.0,       1.14,     1.12,     1.12,     1.13,     1.20
        2.0,       1.70,     1.68,     1.68,     1.69,     1.75
        3.0,       2.14,     2.13,     2.13,     2.13,     2.18
        4.0,       2.52,     2.51,     2.51,     2.52,     2.55
        5.0,       2.87,     2.86,     2.86,     2.87,     2.88
        6.0,       3.18,     3.18,     3.18,     3.19,     3.18
        7.0,       3.48,     3.48,     3.48,     3.48,     3.46
        8.0,       3.75,     3.76,     3.76,     3.76,     3.72
        9.0,       4.02,     4.03,     4.03,     4.03,     3.97
       10.0,       4.26,     4.29,     4.29,     4.28,     4.20
       11.0,       4.50,     4.53,     4.53,     4.52,     4.43
       12.0,       4.73,     4.77,     4.77,     4.76,     4.64
       13.0,       4.96,     4.99,     4.99,     4.98,     4.85
       14.0,       5.17,     5.22,     5.22,     5.20,     5.05
       15.0,       5.38,     5.43,     5.43,     5.41,     5.24
       16.0,       5.58,     5.64,     5.64,     5.62,     5.43
       17.0,       5.78,     5.84,     5.84,     5.82,     5.61
       18.0,       5.97,     6.04,     6.04,     6.01,     5.79
       19.0,       6.16,     6.23,     6.23,     6.20,     5.96
       20.0,       6.34,     6.42,     6.42,     6.39,     6.13
       21.0,       6.52,     6.60,     6.60,     6.57,     6.30
       22.0,       6.70,     6.79,     6.79,     6.75,     6.46
       23.0,       6.87,     6.96,     6.96,     6.93,     6.62
       24.0,       7.04,     7.14,     7.14,     7.10,     6.78
       25.0,       7.20,     7.31,     7.31,     7.27,     6.93
       26.0,       7.37,     7.48,     7.48,     7.44,     7.08
       27.0,       7.53,     7.64,     7.64,     7.60,     7.22
       28.0,       7.69,     7.81,     7.81,     7.76,     7.37
       29.0,       7.84,     7.97,     7.97,     7.92,     7.51
       30.0,       8.00,     8.13,     8.13,     8.08,     7.65
       31.0,       8.15,     8.29,     8.29,     8.23,     7.79
       32.0,       8.30,     8.44,     8.44,     8.39,     7.93
       33.0,       8.45,     8.59,     8.59,     8.54,     8.06
       34.0,       8.59,     8.74,     8.74,     8.69,     8.19
       35.0,       8.73,     8.89,     8.89,     8.83,     8.32
       36.0,       8.88,     9.04,     9.04,     8.98,     8.45
       37.0,       9.02,     9.18,     9.18,     9.12,     8.58
       38.0,       9.16,     9.33,     9.33,     9.26,     8.70
       39.0,       9.29,     9.47,     9.47,     9.40,     8.83
       40.0,       9.43,     9.61,     9.61,     9.54,     8.95
       41.0,       9.56,     9.75,     9.75,     9.68,     9.07
       42.0,       9.70,     9.89,     9.89,     9.82,     9.19
       43.0,       9.83,    10.02,    10.02,     9.95,     9.31
       44.0,       9.96,    10.16,    10.16,    10.08,     9.43
       45.0,      10.09,    10.29,    10.29,    10.21,     9.54
       46.0,      10.21,    10.43,    10.43,    10.35,     9.66
       47.0,      10.34,    10.56,    10.56,    10.47,     9.77
       48.0,      10.47,    10.69,    10.69,    10.60,     9.89
       49.0,      10.59,    10.82,    10.82,    10.73,    10.00
       50.0,      10.71,    10.94,    10.94,    10.86,    10.11
       51.0,      10.84,    11.07,    11.07,    10.98,    10.22
       52.0,      10.96,    11.20,    11.20,    11.11,    10.33
       53.0,      11.08,    11.32,    11.32,    11.23,    10.44
       54.0,      11.20,    11.45,    11.45,    11.35,    10.54
       55.0,      11.31,    11.57,    11.57,    11.47,    10.65
       56.0,      11.43,    11.69,    11.69,    11.59,    10.75
       57.0,      11.55,    11.81,    11.81,    11.71,    10.86
       58.0,      11.66,    11.93,    11.93,    11.83,    10.96
       59.0,      11.78,    12.05,    12.05,    11.95,    11.06
       60.0,      11.89,    12.17,    12.17,    12.06,    11.17
       61.0,      12.01,    12.29,    12.29,    12.18,    11.27
       62.0,      12.12,    12.40,    12.40,    12.29,    11.37
       63.0,      12.23,    12.52,    12.52,    12.41,    11.47
       64.0,      12.34,    12.64,    12.64,    12.52,    11.57
       65.0,      12.45,    12.75,    12.75,    12.63,    11.66
       66.0,      12.56,    12.86,    12.86,    12.75,    11.76
       67.0,      12.67,    12.98,    12.98,    12.86,    11.86
       68.0,      12.78,    13.09,    13.09,    12.97,    11.95
       69.0,      12.88,    13.20,    13.20,    13.08,    12.05
       70.0,      12.99,    13.31,    13.31,    13.19,    12.15
       71.0,      13.10,    13.42,    13.42,    13.30,    12.24
       72.0,      13.20,    13.53,    13.53,    13.40,    12.33
       73.0,      13.31,    13.64,    13.64,    13.51,    12.43
       74.0,      13.41,    13.75,    13.75,    13.62,    12.52
       75.0,      13.51,    13.86,    13.86,    13.72,    12.61
       76.0,      13.62,    13.97,    13.97,    13.83,    12.70
       77.0,      13.72,    14.07,    14.07,    13.93,    12.79
       78.0,      13.82,    14.18,    14.18,    14.04,    12.88
       79.0,      13.92,    14.28,    14.28,    14.14,    12.97
       80.0,      14.02,    14.39,    14.39,    14.25,    13.06
       81.0,      14.12,    14.49,    14.49,    14.35,    13.15
       82.0,      14.22,    14.60,    14.60,    14.45,    13.24
       83.0,      14.32,    14.70,    14.70,    14.55,    13.33
       84.0,      14.42,    14.80,    14.80,    14.65,    13.41
       85.0,      14.52,    14.91,    14.91,    14.75,    13.50
       86.0,      14.61,    15.01,    15.01,    14.85,    13.59
       87.0,      14.71,    15.11,    15.11,    14.95,    13.67
       88.0,      14.81,    15.21,    15.21,    15.05,    13.76
       89.0,      14.90,    15.31,    15.31,    15.15,    13.84
       90.0,      15.00,    15.41,    15.41,    15.25,    13.93
       91.0,      15.10,    15.51,    15.51,    15.35,    14.01
       92.0,      15.19,    15.61,    15.61,    15.45,    14.10
       93.0,      15.28,    15.71,    15.71,    15.54,    14.18
       94.0,      15.38,    15.81,    15.81,    15.64,    14.26
       95.0,      15.47,    15.90,    15.90,    15.73,    14.35
       96.0,      15.57,    16.00,    16.00,    15.83,    14.43
       97.0,      15.66,    16.10,    16.10,    15.93,    14.51
       98.0,      15.75,    16.19,    16.19,    16.02,    14.59
       99.0,      15.84,    16.29,    16.29,    16.11,    14.67
      100.0,      15.93,    16.39,    16.39,    16.21,    14.75
      101.0,      16.02,    16.48,    16.48,    16.30,    14.83
      102.0,      16.11,    16.58,    16.58,    16.39,    14.91
      103.0,      16.21,    16.67,    16.67,    16.49,    14.99
      104.0,      16.30,    16.76,    16.76,    16.58,    15.07
      105.0,      16.38,    16.86,    16.86,    16.67,    15.15
      106.0,      16.47,    16.95,    16.95,    16.76,    15.23
      107.0,      16.56,    17.04,    17.04,    16.85,    15.31
      108.0,      16.65,    17.14,    17.14,    16.95,    15.38
      109.0,      16.74,    17.23,    17.23,    17.04,    15.46
      110.0,      16.83,    17.32,    17.32,    17.13,    15.54
      111.0,      16.91,    17.41,    17.41,    17.22,    15.62
      112.0,      17.00,    17.50,    17.50,    17.31,    15.69
      113.0,      17.09,    17.59,    17.59,    17.39,    15.77
      114.0,      17.17,    17.69,    17.69,    17.48,    15.84
      115.0,      17.26,    17.78,    17.78,    17.57,    15.92
      116.0,      17.35,    17.87,    17.87,    17.66,    16.00
      117.0,      17.43,    17.95,    17.95,    17.75,    16.07
      118.0,      17.52,    18.04,    18.04,    17.84,    16.15
      119.0,      17.60,    18.13,    18.13,    17.92,    16.22
      120.0,      17.69,    18.22,    18.22,    18.01,    16.29
      121.0,      17.77,    18.31,    18.31,    18.10,    16.37
      122.0,      17.86,    18.40,    18.40,    18.18,    16.44
      123.0,      17.94,    18.49,    18.49,    18.27,    16.52
      124.0,      18.02,    18.57,    18.57,    18.35,    16.59
      125.0,      18.11,    18.66,    18.66,    18.44,    16.66
      126.0,      18.19,    18.75,    18.75,    18.53,    16.73
      127.0,      18.27,    18.83,    18.83,    18.61,    16.81
      128.0,      18.35,    18.92,    18.92,    18.69,    16.88
      129.0,      18.43,    19.01,    19.01,    18.78,    16.95
      130.0,      18.52,    19.09,    19.09,    18.86,    17.02
      131.0,      18.60,    19.18,    19.18,    18.95,    17.09
      132.0,      18.68,    19.26,    19.26,    19.03,    17.16
      133.0,      18.76,    19.35,    19.35,    19.11,    17.23
      134.0,      18.84,    19.43,    19.43,    19.20,    17.30
      135.0,      18.92,    19.52,    19.52,    19.28,    17.38
      136.0,      19.00,    19.60,    19.60,    19.36,    17.45
      137.0,      19.08,    19.68,    19.68,    19.44,    17.52
      138.0,      19.16,    19.77,    19.77,    19.53,    17.58
      139.0,      19.24,    19.85,    19.85,    19.61,    17.65
      140.0,      19.32,    19.93,    19.93,    19.69,    17.72
      141.0,      19.40,    20.02,    20.02,    19.77,    17.79
      142.0,      19.48,    20.10,    20.10,    19.85,    17.86
      143.0,      19.56,    20.18,    20.18,    19.93,    17.93
      144.0,      19.63,    20.26,    20.26,    20.01,    18.00
      145.0,      19.71,    20.34,    20.34,    20.09,    18.07
      146.0,      19.79,    20.43,    20.43,    20.17,    18.13
      147.0,      19.87,    20.51,    20.51,    20.25,    18.20
      148.0,      19.94,    20.59,    20.59,    20.33,    18.27
      149.0,      20.02,    20.67,    20.67,    20.41,    18.34
      150.0,      20.10,    20.75,    20.75,    20.49,    18.40
      151.0,      20.17,    20.83,    20.83,    20.57,    18.47
      152.0,      20.25,    20.91,    20.91,    20.65,    18.54
      153.0,      20.33,    20.99,    20.99,    20.73,    18.60
      154.0,      20.41,    21.07,    21.07,    20.81,    18.67
      155.0,      20.49,    21.15,    21.16,    20.89,    18.74
      156.0,      20.58,    21.24,    21.27,    20.99,    18.83
      157.0,      20.69,    21.35,    21.39,    21.11,    18.93
      158.0,      20.82,    21.47,    21.53,    21.24,    19.05
      159.0,      20.97,    21.61,    21.68,    21.39,    19.19
      160.0,      21.12,    21.77,    21.84,    21.54,    19.34
      161.0,      21.26,    21.92,    21.98,    21.67,    19.48
      162.0,      21.39,    22.06,    22.10,    21.79,    19.60
      163.0,      21.47,    22.17,    22.19,    21.87,    19.68
      164.0,      21.51,    22.22,    22.22,    21.91,    19.70
      165.0,      21.50,    22.22,    22.21,    21.90,    19.67
      166.0,      21.43,    22.15,    22.14,    21.84,    19.58
      167.0,      21.30,    22.02,    22.02,    21.74,    19.44
      168.0,      21.14,    21.83,    21.87,    21.61,    19.25
      169.0,      20.95,    21.60,    21.69,    21.46,    19.03
      170.0,      20.74,    21.35,    21.51,    21.30,    18.79
      171.0,      20.53,    21.09,    21.32,    21.14,    18.55
      172.0,      20.32,    20.84,    21.14,    20.98,    18.32
      173.0,      20.12,    20.60,    20.97,    20.83,    18.10
      174.0,      19.94,    20.37,    20.81,    20.69,    17.90
      175.0,      19.77,    20.16,    20.66,    20.57,    17.71
      176.0,      19.61,    19.97,    20.51,    20.44,    17.53
      177.0,      19.46,    19.78,    20.38,    20.32,    17.35
      178.0,      19.31,    19.60,    20.24,    20.21,    17.19
      179.0,      19.16,    19.42,    20.11,    20.09,    17.02
      180.0,      19.02,    19.26,    19.99,    19.99,    16.87
      181.0,      18.89,    19.09,    19.87,    19.88,    16.72
      182.0,      18.76,    18.94,    19.75,    19.78,    16.57
      183.0,      18.63,    18.78,    19.64,    19.68,    16.43
      184.0,      18.51,    18.64,    19.53,    19.59,    16.30
      185.0,      18.40,    18.50,    19.42,    19.49,    16.17
      186.0,      18.28,    18.36,    19.32,    19.40,    16.04
      187.0,      18.17,    18.23,    19.22,    19.32,    15.92
      188.0,      18.07,    18.10,    19.13,    19.23,    15.80
      189.0,      17.96,    17.97,    19.04,    19.15,    15.69
      190.0,      17.86,    17.85,    18.95,    19.07,    15.58
      191.0,      17.77,    17.74,    18.86,    19.00,    15.48
      192.0,      17.67,    17.62,    18.78,    18.92,    15.38
      193.0,      17.58,    17.51,    18.69,    18.85,    15.28
      194.0,      17.50,    17.41,    18.62,    18.78,    15.18
      195.0,      17.41,    17.31,    18.54,    18.71,    15.09
      196.0,      17.33,    17.21,    18.46,    18.65,    15.00
      197.0,      17.25,    17.11,    18.39,    18.58,    14.91
      198.0,      17.17,    17.02,    18.32,    18.52,    14.83
      199.0,      17.10,    16.93,    18.26,    18.46,    14.75
      200.0,      17.03,    16.84,    18.19,    18.40,    14.67
      201.0,      16.96,    16.75,    18.13,    18.35,    14.60
      202.0,      16.89,    16.67,    18.06,    18.29,    14.52
      203.0,      16.82,    16.59,    18.00,    18.24,    14.45
      204.0,      16.76,    16.51,    17.94,    18.18,    14.39
      205.0,      16.69,    16.44,    17.89,    18.13,    14.32
      206.0,      16.63,    16.36,    17.83,    18.08,    14.26
      207.0,      16.57,    16.29,    17.78,    18.03,    14.19
      208.0,      16.52,    16.22,    17.73,    17.99,    14.13
      209.0,      16.46,    16.15,    17.67,    17.94,    14.07
      210.0,      16.41,    16.09,    17.62,    17.90,    14.02
      211.0,      16.35,    16.02,    17.58,    17.85,    13.96
      212.0,      16.30,    15.96,    17.53,    17.81,    13.91
      213.0,      16.25,    15.90,    17.48,    17.77,    13.86
      214.0,      16.20,    15.84,    17.44,    17.73,    13.81
      215.0,      16.16,    15.78,    17.39,    17.69,    13.76
      216.0,      16.11,    15.73,    17.35,    17.65,    13.71
      217.0,      16.06,    15.67,    17.31,    17.61,    13.67
      218.0,      16.02,    15.62,    17.27,    17.57,    13.62
      219.0,      15.98,    15.57,    17.23,    17.53,    13.58
      220.0,      15.94,    15.52,    17.19,    17.50,    13.53
      221.0,      15.89,    15.47,    17.15,    17.46,    13.49
      222.0,      15.85,    15.42,    17.12,    17.43,    13.45
      223.0,      15.81,    15.37,    17.08,    17.39,    13.41
      224.0,      15.78,    15.32,    17.04,    17.36,    13.38
      225.0,      15.74,    15.28,    17.01,    17.33,    13.34
      226.0,      15.70,    15.23,    16.98,    17.30,    13.30
      227.0,      15.67,    15.19,    16.94,    17.27,    13.27
      228.0,      15.63,    15.15,    16.91,    17.24,    13.23
      229.0,      15.60,    15.11,    16.88,    17.21,    13.20
      230.0,      15.56,    15.06,    16.85,    17.18,    13.17
      231.0,      15.53,    15.02,    16.81,    17.15,    13.14
      232.0,      15.50,    14.99,    16.78,    17.12,    13.11
      233.0,      15.47,    14.95,    16.75,    17.09,    13.08
      234.0,      15.44,    14.91,    16.73,    17.06,    13.05
      235.0,      15.40,    14.87,    16.70,    17.03,    13.02
      236.0,      15.37,    14.84,    16.67,    17.01,    12.99
      237.0,      15.35,    14.80,    16.64,    16.98,    12.96
      238.0,      15.32,    14.76,    16.61,    16.96,    12.93
      239.0,      15.29,    14.73,    16.59,    16.93,    12.91
      240.0,      15.26,    14.70,    16.56,    16.90,    12.88
      241.0,      15.23,    14.66,    16.53,    16.88,    12.86
      242.0,      15.21,    14.63,    16.51,    16.86,    12.83
      243.0,      15.18,    14.60,    16.48,    16.83,    12.81
      244.0,      15.15,    14.56,    16.46,    16.81,    12.78
      245.0,      15.13,    14.53,    16.43,    16.78,    12.76
      246.0,      15.10,    14.50,    16.41,    16.76,    12.74
      247.0,      15.08,    14.47,    16.39,    16.74,    12.71
      248.0,      15.05,    14.44,    16.36,    16.71,    12.69
      249.0,      15.03,    14.41,    16.34,    16.69,    12.67
      250.0,      15.00,    14.38,    16.32,    16.67,    12.65
      251.0,      14.98,    14.35,    16.29,    16.65,    12.63
      252.0,      14.96,    14.32,    16.27,    16.62,    12.61
      253.0,      14.93,    14.30,    16.25,    16.60,    12.59
      254.0,      14.91,    14.27,    16.23,    16.58,    12.56
      255.0,      14.89,    14.24,    16.21,    16.56,    12.55
      256.0,      14.87,    14.21,    16.18,    16.54,    12.53
      257.0,      14.84,    14.19,    16.16,    16.52,    12.51
      258.0,      14.82,    14.16,    16.14,    16.50,    12.49
      259.0,      14.80,    14.13,    16.12,    16.48,    12.47
      260.0,      14.78,    14.11,    16.10,    16.46,    12.45
      261.0,      14.76,    14.08,    16.08,    16.44,    12.43
      262.0,      14.74,    14.06,    16.06,    16.42,    12.41
      263.0,      14.72,    14.03,    16.04,    16.40,    12.40
      264.0,      14.70,    14.01,    16.02,    16.38,    12.38
      265.0,      14.68,    13.98,    16.00,    16.36,    12.36
      266.0,      14.66,    13.96,    15.98,    16.34,    12.34
      267.0,      14.64,    13.93,    15.96,    16.32,    12.33
      268.0,      14.62,    13.91,    15.94,    16.30,    12.31
      269.0,      14.60,    13.88,    15.92,    16.28,    12.29
      270.0,      14.58,    13.86,    15.90,    16.26,    12.28
      271.0,      14.56,    13.84,    15.88,    16.24,    12.26
      272.0,      14.54,    13.81,    15.87,    16.23,    12.25
      273.0,      14.52,    13.79,    15.85,    16.21,    12.23
      274.0,      14.50,    13.77,    15.83,    16.19,    12.21
      275.0,      14.48,    13.74,    15.81,    16.17,    12.20
      276.0,      14.46,    13.72,    15.79,    16.15,    12.18
      277.0,      14.44,    13.70,    15.77,    16.13,    12.17
      278.0,      14.43,    13.68,    15.76,    16.12,    12.15
      279.0,      14.41,    13.65,    15.74,    16.10,    12.14
      280.0,      14.39,    13.63,    15.72,    16.08,    12.12
      281.0,      14.37,    13.61,    15.70,    16.06,    12.11
      282.0,      14.35,    13.59,    15.69,    16.04,    12.09
      283.0,      14.34,    13.57,    15.67,    16.03,    12.08
      284.0,      14.32,    13.54,    15.65,    16.01,    12.07
      285.0,      14.30,    13.52,    15.63,    15.99,    12.05
      286.0,      14.28,    13.50,    15.62,    15.97,    12.04
      287.0,      14.26,    13.48,    15.60,    15.96,    12.02
      288.0,      14.25,    13.46,    15.58,    15.94,    12.01
      289.0,      14.23,    13.44,    15.57,    15.92,    12.00
      290.0,      14.21,    13.42,    15.55,    15.91,    11.98
      291.0,      14.20,    13.40,    15.53,    15.89,    11.97
      292.0,      14.18,    13.37,    15.51,    15.87,    11.95
      293.0,      14.16,    13.35,    15.50,    15.86,    11.94
      294.0,      14.15,    13.33,    15.48,    15.84,    11.93
      295.0,      14.13,    13.31,    15.46,    15.82,    11.91
      296.0,      14.11,    13.29,    15.45,    15.80,    11.90
      297.0,      14.09,    13.27,    15.43,    15.79,    11.89
      298.0,      14.08,    13.25,    15.42,    15.77,    11.87
      299.0,      14.06,    13.23,    15.40,    15.75,    11.86
      300.0,      14.05,    13.21,    15.38,    15.74,    11.85
      301.0,      14.03,    13.19,    15.37,    15.72,    11.83
      302.0,      14.01,    13.17,    15.35,    15.71,    11.82
      303.0,      14.00,    13.15,    15.33,    15.69,    11.81
      304.0,      13.98,    13.13,    15.32,    15.67,    11.80
      305.0,      13.96,    13.11,    15.30,    15.66,    11.78
      306.0,      13.95,    13.09,    15.29,    15.64,    11.77
      307.0,      13.93,    13.07,    15.27,    15.62,    11.76
      308.0,      13.91,    13.05,    15.25,    15.61,    11.74
      309.0,      13.90,    13.03,    15.24,    15.59,    11.73
      310.0,      13.88,    13.01,    15.22,    15.58,    11.72
