Radius (km), Mean (m/s), NE (m/s), SE (m/s), SW (m/s), NW (m/s)
        0.0,       0.00,     0.00,     0.00,     0.00,     0.00
        1.0,       1.50,     1.60,     1.42,     1.42,     1.54
        2.0,       2.41,     2.51,     2.34,     2.34,     2.46
        3.0,       3.19,     3.28,     3.12,     3.12,     3.24
        4.0,       3.89,     3.96,     3.84,     3.84,     3.93
        5.0,       4.54,     4.58,     4.50,     4.50,     4.56
        6.0,       5.14,     5.16,     5.13,     5.13,     5.16
        7.0,       5.72,     5.71,     5.72,     5.72,     5.73
        8.0,       6.27,     6.23,     6.30,     6.30,     6.26
        9.0,       6.80,     6.73,     6.85,     6.85,     6.78
       10.0,       7.32,     7.21,     7.39,     7.39,     7.28
       11.0,       7.81,     7.67,     7.91,     7.91,     7.76
       12.0,       8.30,     8.12,     8.42,     8.42,     8.23
       13.0,       8.77,     8.56,     8.91,     8.91,     8.69
       14.0,       9.23,     8.99,     9.40,     9.40,     9.13
       15.0,       9.68,     9.40,     9.87,     9.87,     9.57
       16.0,      10.12,     9.81,    10.34,    10.34,     9.99
       17.0,      10.55,    10.21,    10.80,    10.80,    10.41
       18.0,      10.98,    10.59,    11.25,    11.25,    10.82
       19.0,      11.40,    10.98,    11.69,    11.69,    11.22
       20.0,      11.81,    11.35,    12.13,    12.13,    11.61
       21.0,      12.21,    11.72,    12.56,    12.56,    12.00
       22.0,      12.61,    12.08,    12.98,    12.98,    12.38
       23.0,      13.00,    12.44,    13.40,    13.40,    12.76
       24.0,      13.39,    12.79,    13.82,    13.82,    13.13
       25.0,      13.77,    13.14,    14.23,    14.23,    13.50
       26.0,      14.15,    13.48,    14.63,    14.63,    13.86
       27.0,      14.52,    13.82,    15.03,    15.03,    14.22
       28.0,      14.89,    14.15,    15.43,    15.43,    14.57
       29.0,      15.26,    14.48,    15.82,    15.82,    14.92
       30.0,      15.62,    14.81,    16.21,    16.21,    15.26
       31.0,      15.98,    15.13,    16.59,    16.59,    15.60
       32.0,      16.33,    15.44,    16.98,    16.98,    15.94
       33.0,      16.68,    15.76,    17.35,    17.35,    16.27
       34.0,      17.03,    16.07,    17.73,    17.73,    16.60
       35.0,      17.38,    16.38,    18.10,    18.10,    16.93
       36.0,      17.72,    16.68,    18.47,    18.47,    17.26
       37.0,      18.06,    16.99,    18.83,    18.83,    17.58
       38.0,      18.39,    17.28,    19.20,    19.20,    17.90
       39.0,      18.73,    17.58,    19.56,    19.56,    18.21
       40.0,      19.06,    17.88,    19.91,    19.91,    18.53
       41.0,      19.38,    18.17,    20.27,    20.27,    18.84
       42.0,      19.71,    18.46,    20.62,    20.62,    19.14
       43.0,      20.03,    18.74,    20.97,    20.97,    19.45
       44.0,      20.35,    19.03,    21.32,    21.32,    19.75
       45.0,      20.67,    19.31,    21.66,    21.66,    20.06
       46.0,      20.99,    19.59,    22.01,    22.01,    20.35
       47.0,      21.30,    19.87,    22.35,    22.35,    20.65
       48.0,      21.62,    20.14,    22.69,    22.69,    20.95
       49.0,      21.93,    20.42,    23.02,    23.02,    21.24
       50.0,      22.23,    20.69,    23.36,    23.36,    21.53
       51.0,      22.54,    20.96,    23.69,    23.69,    21.82
       52.0,      22.85,    21.23,    24.02,    24.02,    22.11
       53.0,      23.15,    21.49,    24.35,    24.35,    22.39
       54.0,      23.45,    21.76,    24.68,    24.68,    22.68
       55.0,      23.75,    22.02,    25.01,    25.01,    22.96
       56.0,      24.05,    22.28,    25.33,    25.33,    23.24
       57.0,      24.34,    22.54,    25.65,    25.65,    23.52
       58.0,      24.64,    22.80,    25.97,    25.97,    23.79
       59.0,      24.93,    23.06,    26.29,    26.30,    24.07
       60.0,      25.23,    23.32,    26.62,    26.63,    24.36
       61.0,      25.56,    23.60,    26.96,    27.00,    24.67
       62.0,      25.93,    23.91,    27.35,    27.41,    25.03
       63.0,      26.35,    24.27,    27.82,    27.89,    25.43
       64.0,      26.84,    24.69,    28.36,    28.43,    25.89
       65.0,      27.38,    25.15,    28.98,    29.01,    26.38
       66.0,      27.94,    25.63,    29.63,    29.59,    26.88
       67.0,      28.48,    26.11,    30.28,    30.16,    27.36
       68.0,      28.96,    26.53,    30.87,    30.65,    27.78
       69.0,      29.34,    26.88,    31.34,    31.03,    28.12
       70.0,      29.60,    27.11,    31.65,    31.29,    28.34
       71.0,      29.71,    27.22,    31.77,    31.40,    28.44
       72.0,      29.67,    27.19,    31.69,    31.37,    28.42
       73.0,      29.49,    27.04,    31.41,    31.22,    28.29
       74.0,      29.20,    26.79,    30.98,    30.97,    28.08
       75.0,      28.84,    26.46,    30.43,    30.64,    27.81
       76.0,      28.42,    26.09,    29.81,    30.29,    27.50
       77.0,      27.99,    25.69,    29.16,    29.92,    27.19
       78.0,      27.57,    25.31,    28.52,    29.56,    26.88
       79.0,      27.16,    24.94,    27.90,    29.22,    26.59
       80.0,      26.78,    24.59,    27.33,    28.90,    26.32
       81.0,      26.42,    24.25,    26.78,    28.60,    26.06
       82.0,      26.08,    23.94,    26.27,    28.30,    25.81
       83.0,      25.75,    23.63,    25.77,    28.02,    25.57
       84.0,      25.43,    23.34,    25.30,    27.75,    25.34
       85.0,      25.13,    23.05,    24.84,    27.49,    25.11
       86.0,      24.83,    22.78,    24.40,    27.24,    24.90
       87.0,      24.55,    22.51,    23.98,    27.00,    24.69
       88.0,      24.27,    22.26,    23.57,    26.76,    24.49
       89.0,      24.01,    22.01,    23.18,    26.54,    24.30
       90.0,      23.75,    21.77,    22.80,    26.32,    24.11
       91.0,      23.50,    21.54,    22.44,    26.11,    23.93
       92.0,      23.27,    21.31,    22.09,    25.91,    23.76
       93.0,      23.04,    21.10,    21.76,    25.71,    23.59
       94.0,      22.82,    20.89,    21.43,    25.52,    23.43
       95.0,      22.61,    20.68,    21.12,    25.34,    23.27
       96.0,      22.40,    20.49,    20.82,    25.17,    23.12
       97.0,      22.20,    20.30,    20.53,    25.00,    22.98
       98.0,      22.01,    20.11,    20.26,    24.83,    22.84
       99.0,      21.83,    19.94,    19.99,    24.68,    22.70
      100.0,      21.65,    19.77,    19.73,    24.52,    22.57
      101.0,      21.48,    19.60,    19.49,    24.38,    22.44
      102.0,      21.31,    19.44,    19.25,    24.23,    22.32
      103.0,      21.15,    19.28,    19.02,    24.10,    22.20
      104.0,      20.99,    19.13,    18.80,    23.96,    22.09
      105.0,      20.85,    18.99,    18.58,    23.83,    21.98
      106.0,      20.70,    18.85,    18.38,    23.71,    21.87
      107.0,      20.56,    18.71,    18.18,    23.59,    21.77
      108.0,      20.43,    18.58,    17.99,    23.47,    21.66
      109.0,      20.30,    18.45,    17.81,    23.36,    21.57
      110.0,      20.17,    18.32,    17.63,    23.25,    21.47
      111.0,      20.05,    18.20,    17.46,    23.14,    21.38
      112.0,      19.93,    18.09,    17.30,    23.04,    21.29
      113.0,      19.82,    17.98,    17.14,    22.94,    21.21
      114.0,      19.71,    17.87,    16.99,    22.85,    21.12
      115.0,      19.60,    17.76,    16.84,    22.75,    21.04
      116.0,      19.50,    17.66,    16.70,    22.66,    20.97
      117.0,      19.40,    17.56,    16.56,    22.58,    20.89
      118.0,      19.30,    17.46,    16.43,    22.49,    20.82
      119.0,      19.21,    17.37,    16.30,    22.41,    20.74
      120.0,      19.11,    17.28,    16.18,    22.33,    20.67
      121.0,      19.03,    17.19,    16.06,    22.25,    20.61
      122.0,      18.94,    17.10,    15.95,    22.18,    20.54
      123.0,      18.86,    17.02,    15.84,    22.10,    20.48
      124.0,      18.78,    16.94,    15.73,    22.03,    20.42
      125.0,      18.70,    16.86,    15.63,    21.96,    20.36
      126.0,      18.63,    16.78,    15.53,    21.90,    20.30
      127.0,      18.55,    16.71,    15.43,    21.83,    20.24
      128.0,      18.48,    16.64,    15.34,    21.77,    20.18
      129.0,      18.41,    16.57,    15.25,    21.70,    20.13
      130.0,      18.35,    16.50,    15.16,    21.64,    20.08
      131.0,      18.28,    16.43,    15.08,    21.59,    20.03
      132.0,      18.22,    16.37,    15.00,    21.53,    19.97
      133.0,      18.16,    16.31,    14.92,    21.47,    19.93
      134.0,      18.10,    16.24,    14.84,    21.42,    19.88
      135.0,      18.04,    16.19,    14.77,    21.37,    19.83
      136.0,      17.98,    16.13,    14.70,    21.31,    19.79
      137.0,      17.93,    16.07,    14.63,    21.26,    19.74
      138.0,      17.87,    16.02,    14.56,    21.21,    19.70
      139.0,      17.82,    15.96,    14.50,    21.17,    19.66
      140.0,      17.77,    15.91,    14.44,    21.12,    19.61
      141.0,      17.72,    15.86,    14.38,    21.07,    19.57
      142.0,      17.67,    15.81,    14.32,    21.03,    19.53
      143.0,      17.63,    15.76,    14.26,    20.98,    19.49
      144.0,      17.58,    15.72,    14.21,    20.94,    19.46
      145.0,      17.54,    15.67,    14.15,    20.90,    19.42
      146.0,      17.49,    15.63,    14.10,    20.86,    19.38
      147.0,      17.45,    15.58,    14.05,    20.82,    19.35
      148.0,      17.41,    15.54,    14.00,    20.78,    19.31
      149.0,      17.37,    15.50,    13.95,    20.74,    19.28
      150.0,      17.33,    15.46,    13.91,    20.70,    19.24
      151.0,      17.29,    15.42,    13.86,    20.66,    19.21
      152.0,      17.25,    15.38,    13.82,    20.63,    19.18
      153.0,      17.21,    15.34,    13.78,    20.59,    19.14
      154.0,      17.18,    15.30,    13.74,    20.56,    19.11
      155.0,      17.14,    15.27,    13.70,    20.52,    19.08
      156.0,      17.11,    15.23,    13.66,    20.49,    19.05
      157.0,      17.07,    15.19,    13.62,    20.45,    19.02
      158.0,      17.04,    15.16,    13.58,    20.42,    18.99
      159.0,      17.01,    15.13,    13.55,    20.39,    18.96
      160.0,      16.97,    15.09,    13.51,    20.36,    18.93
      161.0,      16.94,    15.06,    13.48,    20.32,    18.90
      162.0,      16.91,    15.03,    13.44,    20.29,    18.88
      163.0,      16.88,    15.00,    13.41,    20.26,    18.85
      164.0,      16.85,    14.97,    13.38,    20.23,    18.82
      165.0,      16.82,    14.94,    13.35,    20.20,    18.79
      166.0,      16.79,    14.91,    13.32,    20.17,    18.77
      167.0,      16.76,    14.88,    13.29,    20.14,    18.74
      168.0,      16.74,    14.85,    13.26,    20.12,    18.72
      169.0,      16.71,    14.82,    13.23,    20.09,    18.69
      170.0,      16.68,    14.80,    13.20,    20.06,    18.67
      171.0,      16.65,    14.77,    13.18,    20.03,    18.64
      172.0,      16.63,    14.74,    13.15,    20.01,    18.62
      173.0,      16.60,    14.72,    13.13,    19.98,    18.59
      174.0,      16.58,    14.69,    13.10,    19.95,    18.57
      175.0,      16.55,    14.66,    13.08,    19.93,    18.54
      176.0,      16.53,    14.64,    13.05,    19.90,    18.52
      177.0,      16.50,    14.61,    13.03,    19.87,    18.50
      178.0,      16.48,    14.59,    13.00,    19.85,    18.47
      179.0,      16.45,    14.57,    12.98,    19.82,    18.45
      180.0,      16.43,    14.54,    12.96,    19.80,    18.43
      181.0,      16.41,    14.52,    12.94,    19.77,    18.40
      182.0,      16.38,    14.50,    12.91,    19.75,    18.38
      183.0,      16.36,    14.47,    12.89,    19.72,    18.36
      184.0,      16.34,    14.45,    12.87,    19.70,    18.34
      185.0,      16.32,    14.43,    12.85,    19.68,    18.32
      186.0,      16.30,    14.41,    12.83,    19.65,    18.29
      187.0,      16.27,    14.39,    12.81,    19.63,    18.27
      188.0,      16.25,    14.36,    12.79,    19.61,    18.25
      189.0,      16.23,    14.34,    12.77,    19.58,    18.23
      190.0,      16.21,    14.32,    12.75,    19.56,    18.21
      191.0,      16.19,    14.30,    12.73,    19.54,    18.19
      192.0,      16.17,    14.28,    12.71,    19.51,    18.17
      193.0,      16.15,    14.26,    12.69,    19.49,    18.14
      194.0,      16.13,    14.24,    12.68,    19.47,    18.12
      195.0,      16.11,    14.22,    12.66,    19.45,    18.10
      196.0,      16.09,    14.20,    12.64,    19.42,    18.08
      197.0,      16.07,    14.18,    12.62,    19.40,    18.06
      198.0,      16.05,    14.16,    12.61,    19.38,    18.04
      199.0,      16.03,    14.14,    12.59,    19.36,    18.02
      200.0,      16.01,    14.12,    12.57,    19.34,    18.00
      201.0,      15.99,    14.11,    12.56,    19.31,    17.98
      202.0,      15.97,    14.09,    12.54,    19.29,    17.96
      203.0,      15.95,    14.07,    12.52,    19.27,    17.94
      204.0,      15.93,    14.05,    12.51,    19.25,    17.92
      205.0,      15.91,    14.03,    12.49,    19.23,    17.90
      206.0,      15.90,    14.01,    12.47,    19.21,    17.88
      207.0,      15.88,    14.00,    12.46,    19.19,    17.87
      208.0,      15.86,    13.98,    12.44,    19.17,    17.85
      209.0,      15.84,    13.96,    12.43,    19.15,    17.83
      210.0,      15.82,    13.94,    12.41,    19.12,    17.81
      211.0,      15.80,    13.93,    12.40,    19.10,    17.79
      212.0,      15.79,    13.91,    12.38,    19.08,    17.77
      213.0,      15.77,    13.89,    12.37,    19.06,    17.75
      214.0,      15.75,    13.87,    12.35,    19.04,    17.73
      215.0,      15.73,    13.86,    12.34,    19.02,    17.71
      216.0,      15.71,    13.84,    12.32,    19.00,    17.69
      217.0,      15.70,    13.82,    12.31,    18.98,    17.68
      218.0,      15.68,    13.81,    12.29,    18.96,    17.66
      219.0,      15.66,    13.79,    12.28,    18.94,    17.64
      220.0,      15.64,    13.77,    12.27,    18.92,    17.62
      221.0,      15.63,    13.76,    12.25,    18.90,    17.60
      222.0,      15.61,    13.74,    12.24,    18.88,    17.58
      223.0,      15.59,    13.72,    12.22,    18.86,    17.56
      224.0,      15.58,    13.71,    12.21,    18.84,    17.55
      225.0,      15.56,    13.69,    12.20,    18.82,    17.53
      226.0,      15.54,    13.68,    12.18,    18.80,    17.51
      227.0,      15.53,    13.66,    12.17,    18.78,    17.49
      228.0,      15.51,    13.64,    12.15,    18.76,    17.47
      229.0,      15.49,    13.63,    12.14,    18.74,    17.46
      230.0,      15.48,    13.61,    12.13,    18.73,    17.44
      231.0,      15.46,    13.60,    12.11,    18.71,    17.42
      232.0,      15.44,    13.58,    12.10,    18.69,    17.40
      233.0,      15.43,    13.57,    12.09,    18.67,    17.38
      234.0,      15.41,    13.55,    12.07,    18.65,    17.37
      235.0,      15.39,    13.53,    12.06,    18.63,    17.35
      236.0,      15.38,    13.52,    12.05,    18.61,    17.33
      237.0,      15.36,    13.50,    12.03,    18.59,    17.31
      238.0,      15.34,    13.49,    12.02,    18.57,    17.29
      239.0,      15.33,    13.47,    12.01,    18.55,    17.28
      240.0,      15.31,    13.46,    12.00,    18.53,    17.26
      241.0,      15.30,    13.44,    11.98,    18.51,    17.24
      242.0,      15.28,    13.43,    11.97,    18.50,    17.22
      243.0,      15.26,    13.41,    11.96,    18.48,    17.21
      244.0,      15.25,    13.40,    11.95,    18.46,    17.19
      245.0,      15.23,    13.38,    11.93,    18.44,    17.17
      246.0,      15.22,    13.37,    11.92,    18.42,    17.15
      247.0,      15.20,    13.35,    11.91,    18.40,    17.14
      248.0,      15.18,    13.34,    11.89,    18.38,    17.12
      249.0,      15.17,    13.32,    11.88,    18.36,    17.10
      250.0,      15.15,    13.31,    11.87,    18.34,    17.08
      251.0,      15.14,    13.29,    11.86,    18.33,    17.07
      252.0,      15.12,    13.28,    11.84,    18.31,    17.05
      253.0,      15.10,    13.26,    11.83,    18.29,    17.03
      254.0,      15.09,    13.25,    11.82,    18.27,    17.01
      255.0,      15.07,    13.23,    11.81,    18.25,    17.00
      256.0,      15.06,    13.22,    11.80,    18.23,    16.98
      257.0,      15.04,    13.21,    11.78,    18.22,    16.96
      258.0,      15.03,    13.19,    11.77,    18.20,    16.95
      259.0,      15.01,    13.18,    11.76,    18.18,    16.93
      260.0,      15.00,    13.16,    11.75,    18.16,    16.91
      261.0,      14.98,    13.15,    11.73,    18.14,    16.89
      262.0,      14.96,    13.13,    11.72,    18.12,    16.88
      263.0,      14.95,    13.12,    11.71,    18.10,    16.86
      264.0,      14.93,    13.10,    11.70,    18.09,    16.84
      265.0,      14.92,    13.09,    11.69,    18.07,    16.83
      266.0,      14.90,    13.08,    11.67,    18.05,    16.81
      267.0,      14.89,    13.06,    11.66,    18.03,    16.79
      268.0,      14.87,    13.05,    11.65,    18.01,    16.78
      269.0,      14.86,    13.03,    11.64,    18.00,    16.76
      270.0,      14.84,    13.02,    11.63,    17.98,    16.74
      271.0,      14.83,    13.00,    11.62,    17.96,    16.73
      272.0,      14.81,    12.99,    11.60,    17.94,    16.71
      273.0,      14.80,    12.98,    11.59,    17.92,    16.69
      274.0,      14.78,    12.96,    11.58,    17.91,    16.67
      275.0,      14.77,    12.95,    11.57,    17.89,    16.66
      276.0,      14.75,    12.93,    11.56,    17.87,    16.64
      277.0,      14.74,    12.92,    11.54,    17.85,    16.62
      278.0,      14.72,    12.91,    11.53,    17.83,    16.61
      279.0,      14.70,    12.89,    11.52,    17.82,    16.59
      280.0,      14.69,    12.88,    11.51,    17.80,    16.57
      281.0,      14.67,    12.86,    11.50,    17.78,    16.56
      282.0,      14.66,    12.85,    11.49,    17.76,    16.54
      283.0,      14.64,    12.84,    11.47,    17.74,    16.52
      284.0,      14.63,    12.82,    11.46,    17.73,    16.51
      285.0,      14.62,    12.81,    11.45,    17.71,    16.49
      286.0,      14.60,    12.80,    11.44,    17.69,    16.47
      287.0,      14.59,    12.78,    11.43,    17.67,    16.46
      288.0,      14.57,    12.77,    11.42,    17.65,    16.44
      289.0,      14.56,    12.75,    11.40,    17.64,    16.43
      290.0,      14.54,    12.74,    11.39,    17.62,    16.41
      291.0,      14.53,    12.73,    11.38,    17.60,    16.39
      292.0,      14.51,    12.71,    11.37,    17.58,    16.38
      293.0,      14.50,    12.70,    11.36,    17.57,    16.36
      294.0,      14.48,    12.69,    11.35,    17.55,    16.34
      295.0,      14.47,    12.67,    11.34,    17.53,    16.33
      296.0,      14.45,    12.66,    11.32,    17.51,    16.31
      297.0,      14.44,    12.65,    11.31,    17.50,    16.29
      298.0,      14.42,    12.63,    11.30,    17.48,    16.28
      299.0,      14.41,    12.62,    11.29,    17.46,    16.26
      300.0,      14.39,    12.61,    11.28,    17.44,    16.25
      301.0,      14.38,    12.59,    11.27,    17.43,    16.23
      302.0,      14.36,    12.58,    11.26,    17.41,    16.21
      303.0,      14.35,    12.56,    11.24,    17.39,    16.20
      304.0,      14.33,    12.55,    11.23,    17.37,    16.18
      305.0,      14.32,    12.54,    11.22,    17.36,    16.16
      306.0,      14.31,    12.52,    11.21,    17.34,    16.15
      307.0,      14.29,    12.51,    11.20,    17.32,    16.13
      308.0,      14.28,    12.50,    11.19,    17.30,    16.12
      309.0,      14.26,    12.48,    11.18,    17.29,    16.10
      310.0,      14.25,    12.47,    11.17,    17.27,    16.08
