Radius (km), Mean (m/s), NE (m/s), SE (m/s), SW (m/s), NW (m/s)
        0.0,       0.00,     0.00,     0.00,     0.00,     0.00
        1.0,       2.21,     2.22,     2.19,     2.22,     2.22
        2.0,       3.59,     3.60,     3.58,     3.60,     3.60
        3.0,       4.77,     4.77,     4.77,     4.77,     4.77
        4.0,       5.84,     5.83,     5.85,     5.83,     5.83
        5.0,       6.82,     6.82,     6.85,     6.82,     6.82
        6.0,       7.75,     7.74,     7.80,     7.74,     7.74
        7.0,       8.64,     8.62,     8.70,     8.62,     8.62
        8.0,       9.49,     9.46,     9.56,     9.46,     9.46
        9.0,      10.30,    10.27,    10.39,    10.27,    10.27
       10.0,      11.09,    11.05,    11.20,    11.05,    11.05
       11.0,      11.86,    11.81,    11.98,    11.81,    11.81
       12.0,      12.60,    12.55,    12.74,    12.55,    12.55
       13.0,      13.33,    13.27,    13.49,    13.27,    13.27
       14.0,      14.04,    13.98,    14.21,    13.98,    13.98
       15.0,      14.73,    14.67,    14.93,    14.67,    14.67
       16.0,      15.41,    15.34,    15.63,    15.34,    15.34
       17.0,      16.08,    16.01,    16.31,    16.01,    16.01
       18.0,      16.74,    16.66,    16.99,    16.66,    16.66
       19.0,      17.39,    17.30,    17.65,    17.30,    17.30
       20.0,      18.02,    17.93,    18.30,    17.93,    17.93
       21.0,      18.65,    18.55,    18.95,    18.55,    18.56
       22.0,      19.28,    19.16,    19.59,    19.17,    19.20
       23.0,      19.92,    19.78,    20.24,    19.80,    19.87
       24.0,      20.60,    20.42,    20.92,    20.47,    20.58
       25.0,      21.33,    21.11,    21.66,    21.19,    21.36
       26.0,      22.12,    21.85,    22.46,    21.96,    22.18
       27.0,      22.95,    22.66,    23.32,    22.79,    23.05
       28.0,      23.82,    23.51,    24.21,    23.64,    23.91
       29.0,      24.68,    24.37,    25.11,    24.49,    24.75
       30.0,      25.49,    25.21,    25.96,    25.29,    25.51
       31.0,      26.22,    25.98,    26.73,    26.00,    26.18
       32.0,      26.84,    26.64,    27.38,    26.61,    26.72
       33.0,      27.30,    27.15,    27.88,    27.07,    27.12
       34.0,      27.62,    27.49,    28.21,    27.39,    27.39
       35.0,      27.79,    27.66,    28.38,    27.56,    27.54
       36.0,      27.82,    27.68,    28.42,    27.61,    27.59
       37.0,      27.76,    27.57,    28.33,    27.57,    27.56
       38.0,      27.62,    27.37,    28.17,    27.45,    27.50
       39.0,      27.45,    27.11,    27.97,    27.31,    27.41
       40.0,      27.26,    26.83,    27.75,    27.15,    27.32
       41.0,      27.07,    26.54,    27.53,    26.99,    27.23
       42.0,      26.89,    26.27,    27.32,    26.84,    27.14
       43.0,      26.72,    26.02,    27.12,    26.70,    27.06
       44.0,      26.56,    25.78,    26.94,    26.56,    26.98
       45.0,      26.40,    25.54,    26.75,    26.43,    26.89
       46.0,      26.25,    25.31,    26.57,    26.30,    26.81
       47.0,      26.10,    25.09,    26.40,    26.17,    26.73
       48.0,      25.95,    24.87,    26.23,    26.04,    26.66
       49.0,      25.80,    24.65,    26.06,    25.91,    26.58
       50.0,      25.66,    24.44,    25.90,    25.79,    26.50
       51.0,      25.52,    24.24,    25.74,    25.67,    26.42
       52.0,      25.38,    24.04,    25.58,    25.55,    26.35
       53.0,      25.24,    23.84,    25.42,    25.43,    26.27
       54.0,      25.11,    23.65,    25.27,    25.32,    26.20
       55.0,      24.98,    23.46,    25.12,    25.21,    26.12
       56.0,      24.85,    23.27,    24.98,    25.09,    26.05
       57.0,      24.72,    23.09,    24.84,    24.98,    25.98
       58.0,      24.60,    22.92,    24.70,    24.88,    25.91
       59.0,      24.48,    22.74,    24.56,    24.77,    25.84
       60.0,      24.36,    22.57,    24.43,    24.67,    25.77
       61.0,      24.24,    22.41,    24.30,    24.56,    25.70
       62.0,      24.13,    22.24,    24.17,    24.46,    25.63
       63.0,      24.01,    22.08,    24.04,    24.36,    25.56
       64.0,      23.90,    21.93,    23.92,    24.26,    25.49
       65.0,      23.79,    21.78,    23.80,    24.17,    25.42
       66.0,      23.68,    21.63,    23.68,    24.07,    25.36
       67.0,      23.58,    21.48,    23.56,    23.98,    25.29
       68.0,      23.47,    21.33,    23.45,    23.89,    25.23
       69.0,      23.37,    21.19,    23.34,    23.79,    25.16
       70.0,      23.27,    21.05,    23.23,    23.71,    25.10
       71.0,      23.17,    20.92,    23.12,    23.62,    25.03
       72.0,      23.07,    20.78,    23.01,    23.53,    24.97
       73.0,      22.98,    20.65,    22.91,    23.44,    24.91
       74.0,      22.88,    20.53,    22.80,    23.36,    24.84
       75.0,      22.79,    20.40,    22.70,    23.28,    24.78
       76.0,      22.70,    20.28,    22.60,    23.19,    24.72
       77.0,      22.61,    20.16,    22.51,    23.11,    24.66
       78.0,      22.52,    20.04,    22.41,    23.03,    24.60
       79.0,      22.43,    19.92,    22.32,    22.95,    24.54
       80.0,      22.35,    19.81,    22.22,    22.87,    24.48
       81.0,      22.26,    19.69,    22.13,    22.80,    24.42
       82.0,      22.18,    19.58,    22.04,    22.72,    24.37
       83.0,      22.10,    19.48,    21.96,    22.65,    24.31
       84.0,      22.02,    19.37,    21.87,    22.57,    24.25
       85.0,      21.94,    19.26,    21.78,    22.50,    24.20
       86.0,      21.86,    19.16,    21.70,    22.43,    24.14
       87.0,      21.78,    19.06,    21.62,    22.36,    24.08
       88.0,      21.70,    18.96,    21.54,    22.29,    24.03
       89.0,      21.63,    18.86,    21.46,    22.22,    23.97
       90.0,      21.55,    18.77,    21.38,    22.15,    23.92
       91.0,      21.48,    18.67,    21.30,    22.08,    23.87
       92.0,      21.41,    18.58,    21.22,    22.01,    23.81
       93.0,      21.34,    18.49,    21.15,    21.95,    23.76
       94.0,      21.27,    18.40,    21.07,    21.88,    23.71
       95.0,      21.20,    18.31,    21.00,    21.82,    23.66
       96.0,      21.13,    18.23,    20.93,    21.75,    23.60
       97.0,      21.06,    18.14,    20.85,    21.69,    23.55
       98.0,      20.99,    18.06,    20.78,    21.63,    23.50
       99.0,      20.93,    17.98,    20.71,    21.56,    23.45
      100.0,      20.86,    17.90,    20.65,    21.50,    23.40
      101.0,      20.80,    17.82,    20.58,    21.44,    23.35
      102.0,      20.73,    17.74,    20.51,    21.38,    23.30
      103.0,      20.67,    17.66,    20.45,    21.32,    23.25
      104.0,      20.61,    17.58,    20.38,    21.26,    23.20
      105.0,      20.55,    17.51,    20.32,    21.21,    23.16
      106.0,      20.49,    17.43,    20.25,    21.15,    23.11
      107.0,      20.43,    17.36,    20.19,    21.09,    23.06
      108.0,      20.37,    17.29,    20.13,    21.03,    23.01
      109.0,      20.31,    17.22,    20.07,    20.98,    22.97
      110.0,      20.25,    17.15,    20.01,    20.92,    22.92
      111.0,      20.19,    17.08,    19.95,    20.87,    22.88
      112.0,      20.14,    17.01,    19.89,    20.81,    22.83
      113.0,      20.08,    16.95,    19.83,    20.76,    22.78
      114.0,      20.03,    16.88,    19.77,    20.71,    22.74
      115.0,      19.97,    16.82,    19.71,    20.66,    22.69
      116.0,      19.92,    16.75,    19.66,    20.60,    22.65
      117.0,      19.86,    16.69,    19.60,    20.55,    22.61
      118.0,      19.81,    16.63,    19.55,    20.50,    22.56
      119.0,      19.76,    16.56,    19.49,    20.45,    22.52
      120.0,      19.70,    16.50,    19.44,    20.40,    22.48
      121.0,      19.65,    16.44,    19.38,    20.35,    22.43
      122.0,      19.60,    16.38,    19.33,    20.30,    22.39
      123.0,      19.55,    16.33,    19.28,    20.25,    22.35
      124.0,      19.50,    16.27,    19.23,    20.20,    22.31
      125.0,      19.45,    16.21,    19.18,    20.15,    22.27
      126.0,      19.40,    16.16,    19.12,    20.11,    22.22
      127.0,      19.35,    16.10,    19.07,    20.06,    22.18
      128.0,      19.31,    16.04,    19.02,    20.01,    22.14
      129.0,      19.26,    15.99,    18.97,    19.96,    22.10
      130.0,      19.21,    15.94,    18.92,    19.92,    22.06
      131.0,      19.16,    15.88,    18.88,    19.87,    22.02
      132.0,      19.12,    15.83,    18.83,    19.82,    21.98
      133.0,      19.07,    15.78,    18.78,    19.78,    21.94
      134.0,      19.02,    15.73,    18.73,    19.73,    21.90
      135.0,      18.98,    15.68,    18.68,    19.69,    21.87
      136.0,      18.93,    15.63,    18.64,    19.65,    21.83
      137.0,      18.89,    15.58,    18.59,    19.60,    21.79
      138.0,      18.84,    15.53,    18.54,    19.56,    21.75
      139.0,      18.80,    15.48,    18.50,    19.51,    21.71
      140.0,      18.76,    15.43,    18.45,    19.47,    21.68
      141.0,      18.71,    15.38,    18.41,    19.43,    21.64
      142.0,      18.67,    15.34,    18.36,    19.38,    21.60
      143.0,      18.63,    15.29,    18.32,    19.34,    21.56
      144.0,      18.59,    15.24,    18.27,    19.30,    21.53
      145.0,      18.54,    15.20,    18.23,    19.26,    21.49
      146.0,      18.50,    15.15,    18.19,    19.22,    21.45
      147.0,      18.46,    15.11,    18.14,    19.17,    21.42
      148.0,      18.42,    15.06,    18.10,    19.13,    21.38
      149.0,      18.38,    15.02,    18.06,    19.09,    21.35
      150.0,      18.34,    14.97,    18.02,    19.05,    21.31
      151.0,      18.30,    14.93,    17.97,    19.01,    21.28
      152.0,      18.26,    14.89,    17.93,    18.97,    21.24
      153.0,      18.22,    14.85,    17.89,    18.93,    21.21
      154.0,      18.18,    14.80,    17.85,    18.89,    21.17
      155.0,      18.14,    14.76,    17.81,    18.85,    21.14
      156.0,      18.10,    14.72,    17.77,    18.81,    21.10
      157.0,      18.06,    14.68,    17.73,    18.77,    21.07
      158.0,      18.02,    14.64,    17.69,    18.74,    21.04
      159.0,      17.99,    14.60,    17.65,    18.70,    21.00
      160.0,      17.95,    14.56,    17.61,    18.66,    20.97
      161.0,      17.91,    14.52,    17.57,    18.62,    20.94
      162.0,      17.87,    14.48,    17.53,    18.58,    20.90
      163.0,      17.84,    14.44,    17.49,    18.54,    20.87
      164.0,      17.80,    14.40,    17.45,    18.51,    20.84
      165.0,      17.76,    14.36,    17.41,    18.47,    20.81
      166.0,      17.72,    14.32,    17.37,    18.43,    20.77
      167.0,      17.69,    14.28,    17.33,    18.39,    20.74
      168.0,      17.65,    14.25,    17.29,    18.36,    20.71
      169.0,      17.62,    14.21,    17.26,    18.32,    20.68
      170.0,      17.58,    14.17,    17.22,    18.28,    20.65
      171.0,      17.54,    14.13,    17.18,    18.25,    20.62
      172.0,      17.51,    14.10,    17.14,    18.21,    20.59
      173.0,      17.47,    14.06,    17.11,    18.17,    20.55
      174.0,      17.44,    14.02,    17.07,    18.14,    20.52
      175.0,      17.40,    13.99,    17.03,    18.10,    20.49
      176.0,      17.37,    13.95,    17.00,    18.07,    20.46
      177.0,      17.33,    13.92,    16.96,    18.03,    20.43
      178.0,      17.30,    13.88,    16.92,    18.00,    20.40
      179.0,      17.27,    13.85,    16.89,    17.96,    20.37
      180.0,      17.23,    13.81,    16.85,    17.93,    20.34
      181.0,      17.20,    13.78,    16.81,    17.89,    20.31
      182.0,      17.16,    13.74,    16.78,    17.86,    20.28
      183.0,      17.13,    13.71,    16.74,    17.82,    20.25
      184.0,      17.10,    13.67,    16.71,    17.79,    20.22
      185.0,      17.06,    13.64,    16.67,    17.75,    20.20
      186.0,      17.03,    13.61,    16.64,    17.72,    20.17
      187.0,      17.00,    13.57,    16.60,    17.68,    20.14
      188.0,      16.97,    13.54,    16.57,    17.65,    20.11
      189.0,      16.93,    13.50,    16.53,    17.62,    20.08
      190.0,      16.90,    13.47,    16.50,    17.58,    20.05
      191.0,      16.87,    13.44,    16.46,    17.55,    20.02
      192.0,      16.84,    13.41,    16.43,    17.52,    20.00
      193.0,      16.80,    13.37,    16.39,    17.48,    19.97
      194.0,      16.77,    13.34,    16.36,    17.45,    19.94
      195.0,      16.74,    13.31,    16.32,    17.42,    19.91
      196.0,      16.71,    13.28,    16.29,    17.38,    19.88
      197.0,      16.68,    13.25,    16.26,    17.35,    19.86
      198.0,      16.65,    13.21,    16.22,    17.32,    19.83
      199.0,      16.61,    13.18,    16.19,    17.28,    19.80
      200.0,      16.58,    13.15,    16.15,    17.25,    19.77
      201.0,      16.55,    13.12,    16.12,    17.22,    19.75
      202.0,      16.52,    13.09,    16.09,    17.19,    19.72
      203.0,      16.49,    13.06,    16.05,    17.16,    19.69
      204.0,      16.46,    13.03,    16.02,    17.12,    19.67
      205.0,      16.43,    13.00,    15.99,    17.09,    19.64
      206.0,      16.40,    12.96,    15.96,    17.06,    19.61
      207.0,      16.37,    12.93,    15.92,    17.03,    19.59
      208.0,      16.34,    12.90,    15.89,    17.00,    19.56
      209.0,      16.31,    12.87,    15.86,    16.96,    19.54
      210.0,      16.28,    12.84,    15.83,    16.93,    19.51
      211.0,      16.25,    12.81,    15.79,    16.90,    19.48
      212.0,      16.22,    12.78,    15.76,    16.87,    19.46
      213.0,      16.19,    12.75,    15.73,    16.84,    19.43
      214.0,      16.16,    12.72,    15.70,    16.81,    19.41
      215.0,      16.13,    12.70,    15.66,    16.78,    19.38
      216.0,      16.10,    12.67,    15.63,    16.74,    19.36
      217.0,      16.07,    12.64,    15.60,    16.71,    19.33
      218.0,      16.04,    12.61,    15.57,    16.68,    19.31
      219.0,      16.01,    12.58,    15.54,    16.65,    19.28
      220.0,      15.98,    12.55,    15.51,    16.62,    19.26
      221.0,      15.95,    12.52,    15.47,    16.59,    19.23
      222.0,      15.93,    12.49,    15.44,    16.56,    19.21
      223.0,      15.90,    12.46,    15.41,    16.53,    19.18
      224.0,      15.87,    12.44,    15.38,    16.50,    19.16
      225.0,      15.84,    12.41,    15.35,    16.47,    19.13
      226.0,      15.81,    12.38,    15.32,    16.44,    19.11
      227.0,      15.78,    12.35,    15.29,    16.41,    19.08
      228.0,      15.75,    12.32,    15.26,    16.38,    19.06
      229.0,      15.73,    12.29,    15.23,    16.35,    19.03
      230.0,      15.70,    12.27,    15.19,    16.32,    19.01
      231.0,      15.67,    12.24,    15.16,    16.29,    18.99
      232.0,      15.64,    12.21,    15.13,    16.26,    18.96
      233.0,      15.61,    12.18,    15.10,    16.23,    18.94
      234.0,      15.59,    12.16,    15.07,    16.20,    18.92
      235.0,      15.56,    12.13,    15.04,    16.17,    18.89
      236.0,      15.53,    12.10,    15.01,    16.14,    18.87
      237.0,      15.50,    12.07,    14.98,    16.11,    18.85
      238.0,      15.48,    12.05,    14.95,    16.08,    18.82
      239.0,      15.45,    12.02,    14.92,    16.05,    18.80
      240.0,      15.42,    11.99,    14.89,    16.02,    18.78
      241.0,      15.39,    11.97,    14.86,    16.00,    18.75
      242.0,      15.37,    11.94,    14.83,    15.97,    18.73
      243.0,      15.34,    11.91,    14.80,    15.94,    18.71
      244.0,      15.31,    11.89,    14.77,    15.91,    18.68
      245.0,      15.29,    11.86,    14.74,    15.88,    18.66
      246.0,      15.26,    11.83,    14.71,    15.85,    18.64
      247.0,      15.23,    11.81,    14.68,    15.82,    18.61
      248.0,      15.21,    11.78,    14.65,    15.79,    18.59
      249.0,      15.18,    11.75,    14.63,    15.77,    18.57
      250.0,      15.15,    11.73,    14.60,    15.74,    18.55
      251.0,      15.13,    11.70,    14.57,    15.71,    18.52
      252.0,      15.10,    11.68,    14.54,    15.68,    18.50
      253.0,      15.07,    11.65,    14.51,    15.65,    18.48
      254.0,      15.05,    11.62,    14.48,    15.62,    18.46
      255.0,      15.02,    11.60,    14.45,    15.60,    18.44
      256.0,      14.99,    11.57,    14.42,    15.57,    18.41
      257.0,      14.97,    11.55,    14.39,    15.54,    18.39
      258.0,      14.94,    11.52,    14.37,    15.51,    18.37
      259.0,      14.92,    11.50,    14.34,    15.48,    18.35
      260.0,      14.89,    11.47,    14.31,    15.46,    18.33
      261.0,      14.86,    11.45,    14.28,    15.43,    18.30
      262.0,      14.84,    11.42,    14.25,    15.40,    18.28
      263.0,      14.81,    11.40,    14.22,    15.37,    18.26
      264.0,      14.79,    11.37,    14.19,    15.35,    18.24
      265.0,      14.76,    11.35,    14.17,    15.32,    18.22
      266.0,      14.74,    11.32,    14.14,    15.29,    18.20
      267.0,      14.71,    11.30,    14.11,    15.26,    18.18
      268.0,      14.69,    11.27,    14.08,    15.24,    18.15
      269.0,      14.66,    11.25,    14.05,    15.21,    18.13
      270.0,      14.64,    11.22,    14.03,    15.18,    18.11
      271.0,      14.61,    11.20,    14.00,    15.15,    18.09
      272.0,      14.58,    11.17,    13.97,    15.13,    18.07
      273.0,      14.56,    11.15,    13.94,    15.10,    18.05
      274.0,      14.53,    11.12,    13.92,    15.07,    18.03
      275.0,      14.51,    11.10,    13.89,    15.05,    18.01
      276.0,      14.49,    11.07,    13.86,    15.02,    17.99
      277.0,      14.46,    11.05,    13.83,    14.99,    17.97
      278.0,      14.44,    11.03,    13.80,    14.97,    17.95
      279.0,      14.41,    11.00,    13.78,    14.94,    17.92
      280.0,      14.39,    10.98,    13.75,    14.91,    17.90
      281.0,      14.36,    10.95,    13.72,    14.89,    17.88
      282.0,      14.34,    10.93,    13.70,    14.86,    17.86
      283.0,      14.31,    10.91,    13.67,    14.83,    17.84
      284.0,      14.29,    10.88,    13.64,    14.81,    17.82
      285.0,      14.26,    10.86,    13.61,    14.78,    17.80
      286.0,      14.24,    10.83,    13.59,    14.75,    17.78
      287.0,      14.22,    10.81,    13.56,    14.73,    17.76
      288.0,      14.19,    10.79,    13.53,    14.70,    17.74
      289.0,      14.17,    10.76,    13.51,    14.67,    17.72
      290.0,      14.14,    10.74,    13.48,    14.65,    17.70
      291.0,      14.12,    10.72,    13.45,    14.62,    17.68
      292.0,      14.09,    10.69,    13.43,    14.60,    17.66
      293.0,      14.07,    10.67,    13.40,    14.57,    17.64
      294.0,      14.05,    10.65,    13.37,    14.54,    17.62
      295.0,      14.02,    10.62,    13.35,    14.52,    17.60
      296.0,      14.00,    10.60,    13.32,    14.49,    17.58
      297.0,      13.98,    10.58,    13.29,    14.47,    17.56
      298.0,      13.95,    10.56,    13.27,    14.44,    17.54
      299.0,      13.93,    10.53,    13.24,    14.42,    17.52
      300.0,      13.90,    10.51,    13.22,    14.39,    17.50
      301.0,      13.88,    10.49,    13.19,    14.36,    17.48
      302.0,      13.86,    10.46,    13.16,    14.34,    17.46
      303.0,      13.83,    10.44,    13.14,    14.31,    17.44
      304.0,      13.81,    10.42,    13.11,    14.29,    17.42
      305.0,      13.79,    10.40,    13.09,    14.26,    17.41
      306.0,      13.76,    10.37,    13.06,    14.24,    17.39
      307.0,      13.74,    10.35,    13.03,    14.21,    17.37
      308.0,      13.72,    10.33,    13.01,    14.19,    17.35
      309.0,      13.69,    10.31,    12.98,    14.16,    17.33
      310.0,      13.67,    10.28,    12.96,    14.14,    17.31
