Radius (km), Mean (m/s), NE (m/s), SE (m/s), SW (m/s), NW (m/s)
        0.0,       0.00,     0.00,     0.00,     0.00,     0.00
        1.0,       1.14,     1.12,     1.12,     1.13,     1.20
        2.0,       1.70,     1.68,     1.68,     1.69,     1.75
        3.0,       2.14,     2.13,     2.13,     2.14,     2.18
        4.0,       2.53,     2.52,     2.52,     2.52,     2.55
        5.0,       2.87,     2.86,     2.86,     2.87,     2.88
        6.0,       3.19,     3.19,     3.19,     3.19,     3.18
        7.0,       3.48,     3.48,     3.48,     3.48,     3.46
        8.0,       3.76,     3.77,     3.77,     3.76,     3.72
        9.0,       4.02,     4.03,     4.03,     4.03,     3.97
       10.0,       4.27,     4.29,     4.29,     4.28,     4.20
       11.0,       4.51,     4.53,     4.53,     4.53,     4.43
       12.0,       4.74,     4.77,     4.77,     4.76,     4.64
       13.0,       4.96,     5.00,     5.00,     4.98,     4.85
       14.0,       5.17,     5.22,     5.22,     5.20,     5.05
       15.0,       5.38,     5.43,     5.43,     5.41,     5.25
       16.0,       5.58,     5.64,     5.64,     5.62,     5.43
       17.0,       5.78,     5.84,     5.84,     5.82,     5.62
       18.0,       5.97,     6.04,     6.04,     6.02,     5.79
       19.0,       6.16,     6.23,     6.23,     6.21,     5.97
       20.0,       6.34,     6.42,     6.42,     6.39,     6.14
       21.0,       6.52,     6.61,     6.61,     6.58,     6.30
       22.0,       6.70,     6.79,     6.79,     6.76,     6.46
       23.0,       6.87,     6.97,     6.97,     6.93,     6.62
       24.0,       7.04,     7.14,     7.14,     7.10,     6.78
       25.0,       7.21,     7.31,     7.31,     7.27,     6.93
       26.0,       7.37,     7.48,     7.48,     7.44,     7.08
       27.0,       7.53,     7.65,     7.65,     7.60,     7.23
       28.0,       7.69,     7.81,     7.81,     7.77,     7.37
       29.0,       7.85,     7.97,     7.97,     7.92,     7.51
       30.0,       8.00,     8.13,     8.13,     8.08,     7.65
       31.0,       8.15,     8.29,     8.29,     8.24,     7.79
       32.0,       8.30,     8.44,     8.44,     8.39,     7.93
       33.0,       8.45,     8.59,     8.59,     8.54,     8.06
       34.0,       8.59,     8.74,     8.74,     8.69,     8.19
       35.0,       8.74,     8.89,     8.89,     8.83,     8.32
       36.0,       8.88,     9.04,     9.04,     8.98,     8.45
       37.0,       9.02,     9.19,     9.19,     9.12,     8.58
       38.0,       9.16,     9.33,     9.33,     9.27,     8.71
       39.0,       9.29,     9.47,     9.47,     9.41,     8.83
       40.0,       9.43,     9.61,     9.61,     9.54,     8.95
       41.0,       9.56,     9.75,     9.75,     9.68,     9.07
       42.0,       9.70,     9.89,     9.89,     9.82,     9.19
       43.0,       9.83,    10.03,    10.03,     9.95,     9.31
       44.0,       9.96,    10.16,    10.16,    10.08,     9.43
       45.0,      10.09,    10.29,    10.29,    10.22,     9.55
       46.0,      10.22,    10.43,    10.43,    10.35,     9.66
       47.0,      10.34,    10.56,    10.56,    10.48,     9.78
       48.0,      10.47,    10.69,    10.69,    10.60,     9.89
       49.0,      10.59,    10.82,    10.82,    10.73,    10.00
       50.0,      10.72,    10.95,    10.95,    10.86,    10.11
       51.0,      10.84,    11.07,    11.07,    10.98,    10.22
       52.0,      10.96,    11.20,    11.20,    11.11,    10.33
       53.0,      11.08,    11.32,    11.32,    11.23,    10.44
       54.0,      11.20,    11.45,    11.45,    11.35,    10.54
       55.0,      11.32,    11.57,    11.57,    11.47,    10.65
       56.0,      11.43,    11.69,    11.69,    11.59,    10.76
       57.0,      11.55,    11.81,    11.81,    11.71,    10.86
       58.0,      11.67,    11.93,    11.93,    11.83,    10.96
       59.0,      11.78,    12.05,    12.05,    11.95,    11.07
       60.0,      11.89,    12.17,    12.17,    12.06,    11.17
       61.0,      12.01,    12.29,    12.29,    12.18,    11.27
       62.0,      12.12,    12.41,    12.41,    12.30,    11.37
       63.0,      12.23,    12.52,    12.52,    12.41,    11.47
       64.0,      12.34,    12.64,    12.64,    12.52,    11.57
       65.0,      12.45,    12.75,    12.75,    12.64,    11.67
       66.0,      12.56,    12.87,    12.87,    12.75,    11.76
       67.0,      12.67,    12.98,    12.98,    12.86,    11.86
       68.0,      12.78,    13.09,    13.09,    12.97,    11.96
       69.0,      12.88,    13.20,    13.20,    13.08,    12.05
       70.0,      12.99,    13.31,    13.31,    13.19,    12.15
       71.0,      13.10,    13.42,    13.42,    13.30,    12.24
       72.0,      13.20,    13.53,    13.53,    13.41,    12.33
       73.0,      13.31,    13.64,    13.64,    13.51,    12.43
       74.0,      13.41,    13.75,    13.75,    13.62,    12.52
       75.0,      13.51,    13.86,    13.86,    13.73,    12.61
       76.0,      13.62,    13.97,    13.97,    13.83,    12.70
       77.0,      13.72,    14.07,    14.07,    13.94,    12.79
       78.0,      13.82,    14.18,    14.18,    14.04,    12.88
       79.0,      13.92,    14.29,    14.29,    14.14,    12.97
       80.0,      14.02,    14.39,    14.39,    14.25,    13.06
       81.0,      14.12,    14.50,    14.50,    14.35,    13.15
       82.0,      14.22,    14.60,    14.60,    14.45,    13.24
       83.0,      14.32,    14.70,    14.70,    14.55,    13.33
       84.0,      14.42,    14.81,    14.81,    14.65,    13.42
       85.0,      14.52,    14.91,    14.91,    14.76,    13.50
       86.0,      14.62,    15.01,    15.01,    14.86,    13.59
       87.0,      14.71,    15.11,    15.11,    14.96,    13.67
       88.0,      14.81,    15.21,    15.21,    15.05,    13.76
       89.0,      14.91,    15.31,    15.31,    15.15,    13.85
       90.0,      15.00,    15.41,    15.41,    15.25,    13.93
       91.0,      15.10,    15.51,    15.51,    15.35,    14.01
       92.0,      15.19,    15.61,    15.61,    15.45,    14.10
       93.0,      15.29,    15.71,    15.71,    15.54,    14.18
       94.0,      15.38,    15.81,    15.81,    15.64,    14.26
       95.0,      15.47,    15.91,    15.91,    15.74,    14.35
       96.0,      15.57,    16.00,    16.00,    15.83,    14.43
       97.0,      15.66,    16.10,    16.10,    15.93,    14.51
       98.0,      15.75,    16.20,    16.20,    16.02,    14.59
       99.0,      15.84,    16.29,    16.29,    16.12,    14.67
      100.0,      15.93,    16.39,    16.39,    16.21,    14.75
      101.0,      16.03,    16.48,    16.48,    16.30,    14.83
      102.0,      16.12,    16.58,    16.58,    16.40,    14.91
      103.0,      16.21,    16.67,    16.67,    16.49,    14.99
      104.0,      16.30,    16.77,    16.77,    16.58,    15.07
      105.0,      16.39,    16.86,    16.86,    16.67,    15.15
      106.0,      16.47,    16.95,    16.95,    16.76,    15.23
      107.0,      16.56,    17.05,    17.05,    16.86,    15.31
      108.0,      16.65,    17.14,    17.14,    16.95,    15.39
      109.0,      16.74,    17.23,    17.23,    17.04,    15.46
      110.0,      16.83,    17.32,    17.32,    17.13,    15.54
      111.0,      16.92,    17.41,    17.41,    17.22,    15.62
      112.0,      17.00,    17.50,    17.50,    17.31,    15.69
      113.0,      17.09,    17.60,    17.60,    17.40,    15.77
      114.0,      17.18,    17.69,    17.69,    17.48,    15.85
      115.0,      17.26,    17.78,    17.78,    17.57,    15.92
      116.0,      17.35,    17.87,    17.87,    17.66,    16.00
      117.0,      17.43,    17.96,    17.96,    17.75,    16.07
      118.0,      17.52,    18.04,    18.04,    17.84,    16.15
      119.0,      17.60,    18.13,    18.13,    17.92,    16.22
      120.0,      17.69,    18.22,    18.22,    18.01,    16.30
      121.0,      17.77,    18.31,    18.31,    18.10,    16.37
      122.0,      17.86,    18.40,    18.40,    18.18,    16.44
      123.0,      17.94,    18.49,    18.49,    18.27,    16.52
      124.0,      18.02,    18.57,    18.57,    18.36,    16.59
      125.0,      18.11,    18.66,    18.66,    18.44,    16.66
      126.0,      18.19,    18.75,    18.75,    18.53,    16.73
      127.0,      18.27,    18.83,    18.83,    18.61,    16.81
      128.0,      18.35,    18.92,    18.92,    18.70,    16.88
      129.0,      18.44,    19.01,    19.01,    18.78,    16.95
      130.0,      18.52,    19.09,    19.09,    18.86,    17.02
      131.0,      18.60,    19.18,    19.18,    18.95,    17.09
      132.0,      18.68,    19.26,    19.26,    19.03,    17.16
      133.0,      18.76,    19.35,    19.35,    19.11,    17.23
      134.0,      18.84,    19.43,    19.43,    19.20,    17.31
      135.0,      18.92,    19.52,    19.52,    19.28,    17.38
      136.0,      19.00,    19.60,    19.60,    19.36,    17.45
      137.0,      19.08,    19.68,    19.68,    19.44,    17.52
      138.0,      19.16,    19.77,    19.77,    19.53,    17.59
      139.0,      19.24,    19.85,    19.85,    19.61,    17.65
      140.0,      19.32,    19.93,    19.93,    19.69,    17.72
      141.0,      19.40,    20.02,    20.02,    19.77,    17.79
      142.0,      19.48,    20.10,    20.10,    19.85,    17.86
      143.0,      19.56,    20.18,    20.18,    19.93,    17.93
      144.0,      19.63,    20.26,    20.26,    20.01,    18.00
      145.0,      19.71,    20.34,    20.34,    20.09,    18.07
      146.0,      19.79,    20.43,    20.43,    20.17,    18.13
      147.0,      19.87,    20.51,    20.51,    20.25,    18.20
      148.0,      19.94,    20.59,    20.59,    20.33,    18.27
      149.0,      20.02,    20.67,    20.67,    20.41,    18.34
      150.0,      20.10,    20.75,    20.75,    20.49,    18.40
      151.0,      20.17,    20.83,    20.83,    20.57,    18.47
      152.0,      20.25,    20.91,    20.91,    20.65,    18.54
      153.0,      20.33,    20.99,    20.99,    20.73,    18.60
      154.0,      20.41,    21.07,    21.07,    20.81,    18.67
      155.0,      20.49,    21.15,    21.16,    20.89,    18.74
      156.0,      20.58,    21.24,    21.27,    21.00,    18.83
      157.0,      20.69,    21.35,    21.39,    21.11,    18.93
      158.0,      20.82,    21.47,    21.53,    21.25,    19.05
      159.0,      20.97,    21.61,    21.68,    21.39,    19.19
      160.0,      21.12,    21.77,    21.84,    21.54,    19.34
      161.0,      21.27,    21.92,    21.99,    21.68,    19.48
      162.0,      21.39,    22.06,    22.11,    21.79,    19.60
      163.0,      21.48,    22.17,    22.19,    21.88,    19.68
      164.0,      21.52,    22.22,    22.23,    21.91,    19.71
      165.0,      21.50,    22.22,    22.21,    21.90,    19.68
      166.0,      21.43,    22.15,    22.14,    21.84,    19.59
      167.0,      21.30,    22.01,    22.02,    21.74,    19.44
      168.0,      21.14,    21.83,    21.87,    21.61,    19.25
      169.0,      20.94,    21.60,    21.69,    21.45,    19.03
      170.0,      20.73,    21.34,    21.51,    21.29,    18.79
      171.0,      20.52,    21.08,    21.32,    21.12,    18.55
      172.0,      20.31,    20.82,    21.14,    20.96,    18.32
      173.0,      20.11,    20.58,    20.97,    20.81,    18.10
      174.0,      19.93,    20.35,    20.81,    20.67,    17.90
      175.0,      19.76,    20.13,    20.66,    20.54,    17.71
      176.0,      19.60,    19.94,    20.51,    20.42,    17.53
      177.0,      19.44,    19.75,    20.38,    20.29,    17.36
      178.0,      19.29,    19.56,    20.24,    20.18,    17.19
      179.0,      19.15,    19.39,    20.12,    20.06,    17.03
      180.0,      19.01,    19.22,    19.99,    19.95,    16.87
      181.0,      18.87,    19.05,    19.87,    19.85,    16.72
      182.0,      18.74,    18.89,    19.76,    19.74,    16.58
      183.0,      18.62,    18.74,    19.64,    19.64,    16.44
      184.0,      18.50,    18.59,    19.54,    19.55,    16.31
      185.0,      18.38,    18.45,    19.43,    19.46,    16.18
      186.0,      18.27,    18.31,    19.33,    19.37,    16.05
      187.0,      18.16,    18.18,    19.23,    19.28,    15.93
      188.0,      18.05,    18.05,    19.14,    19.19,    15.82
      189.0,      17.95,    17.92,    19.05,    19.11,    15.71
      190.0,      17.85,    17.80,    18.96,    19.03,    15.60
      191.0,      17.75,    17.68,    18.87,    18.96,    15.49
      192.0,      17.66,    17.57,    18.79,    18.88,    15.39
      193.0,      17.57,    17.46,    18.71,    18.81,    15.30
      194.0,      17.48,    17.36,    18.63,    18.74,    15.20
      195.0,      17.40,    17.25,    18.55,    18.67,    15.11
      196.0,      17.32,    17.15,    18.48,    18.61,    15.02
      197.0,      17.24,    17.06,    18.41,    18.54,    14.94
      198.0,      17.16,    16.96,    18.34,    18.48,    14.86
      199.0,      17.08,    16.87,    18.27,    18.42,    14.78
      200.0,      17.01,    16.78,    18.21,    18.36,    14.70
      201.0,      16.94,    16.70,    18.14,    18.30,    14.63
      202.0,      16.87,    16.61,    18.08,    18.25,    14.55
      203.0,      16.81,    16.53,    18.02,    18.19,    14.49
      204.0,      16.75,    16.46,    17.97,    18.14,    14.42
      205.0,      16.68,    16.38,    17.91,    18.09,    14.35
      206.0,      16.62,    16.31,    17.86,    18.04,    14.29
      207.0,      16.56,    16.23,    17.80,    17.99,    14.23
      208.0,      16.51,    16.16,    17.75,    17.94,    14.17
      209.0,      16.45,    16.10,    17.70,    17.90,    14.11
      210.0,      16.40,    16.03,    17.65,    17.85,    14.06
      211.0,      16.35,    15.97,    17.60,    17.81,    14.00
      212.0,      16.29,    15.90,    17.56,    17.77,    13.95
      213.0,      16.24,    15.84,    17.51,    17.72,    13.90
      214.0,      16.20,    15.78,    17.47,    17.68,    13.85
      215.0,      16.15,    15.72,    17.42,    17.64,    13.80
      216.0,      16.10,    15.67,    17.38,    17.61,    13.76
      217.0,      16.06,    15.61,    17.34,    17.57,    13.71
      218.0,      16.01,    15.56,    17.30,    17.53,    13.67
      219.0,      15.97,    15.51,    17.26,    17.49,    13.62
      220.0,      15.93,    15.46,    17.22,    17.46,    13.58
      221.0,      15.89,    15.41,    17.19,    17.42,    13.54
      222.0,      15.85,    15.36,    17.15,    17.39,    13.50
      223.0,      15.81,    15.31,    17.11,    17.36,    13.47
      224.0,      15.77,    15.26,    17.08,    17.32,    13.43
      225.0,      15.74,    15.22,    17.04,    17.29,    13.39
      226.0,      15.70,    15.17,    17.01,    17.26,    13.36
      227.0,      15.66,    15.13,    16.98,    17.23,    13.32
      228.0,      15.63,    15.09,    16.95,    17.20,    13.29
      229.0,      15.60,    15.05,    16.91,    17.17,    13.26
      230.0,      15.56,    15.00,    16.88,    17.14,    13.22
      231.0,      15.53,    14.96,    16.85,    17.11,    13.19
      232.0,      15.50,    14.93,    16.82,    17.08,    13.16
      233.0,      15.47,    14.89,    16.79,    17.05,    13.13
      234.0,      15.44,    14.85,    16.77,    17.03,    13.10
      235.0,      15.41,    14.81,    16.74,    17.00,    13.08
      236.0,      15.38,    14.78,    16.71,    16.97,    13.05
      237.0,      15.35,    14.74,    16.68,    16.95,    13.02
      238.0,      15.32,    14.70,    16.66,    16.92,    12.99
      239.0,      15.29,    14.67,    16.63,    16.90,    12.97
      240.0,      15.26,    14.64,    16.60,    16.87,    12.94
      241.0,      15.24,    14.60,    16.58,    16.85,    12.92
      242.0,      15.21,    14.57,    16.55,    16.82,    12.89
      243.0,      15.18,    14.54,    16.53,    16.80,    12.87
      244.0,      15.16,    14.50,    16.50,    16.77,    12.85
      245.0,      15.13,    14.47,    16.48,    16.75,    12.82
      246.0,      15.11,    14.44,    16.45,    16.73,    12.80
      247.0,      15.08,    14.41,    16.43,    16.70,    12.78
      248.0,      15.06,    14.38,    16.41,    16.68,    12.76
      249.0,      15.03,    14.35,    16.38,    16.66,    12.73
      250.0,      15.01,    14.32,    16.36,    16.64,    12.71
      251.0,      14.99,    14.29,    16.34,    16.62,    12.69
      252.0,      14.96,    14.26,    16.32,    16.59,    12.67
      253.0,      14.94,    14.24,    16.30,    16.57,    12.65
      254.0,      14.92,    14.21,    16.27,    16.55,    12.63
      255.0,      14.89,    14.18,    16.25,    16.53,    12.61
      256.0,      14.87,    14.15,    16.23,    16.51,    12.59
      257.0,      14.85,    14.13,    16.21,    16.49,    12.57
      258.0,      14.83,    14.10,    16.19,    16.47,    12.56
      259.0,      14.81,    14.07,    16.17,    16.45,    12.54
      260.0,      14.79,    14.05,    16.15,    16.43,    12.52
      261.0,      14.76,    14.02,    16.13,    16.41,    12.50
      262.0,      14.74,    14.00,    16.11,    16.39,    12.48
      263.0,      14.72,    13.97,    16.09,    16.37,    12.47
      264.0,      14.70,    13.95,    16.07,    16.35,    12.45
      265.0,      14.68,    13.92,    16.05,    16.33,    12.43
      266.0,      14.66,    13.90,    16.03,    16.31,    12.42
      267.0,      14.64,    13.87,    16.01,    16.29,    12.40
      268.0,      14.62,    13.85,    15.99,    16.27,    12.38
      269.0,      14.60,    13.82,    15.97,    16.25,    12.37
      270.0,      14.58,    13.80,    15.95,    16.24,    12.35
      271.0,      14.57,    13.78,    15.93,    16.22,    12.33
      272.0,      14.55,    13.75,    15.92,    16.20,    12.32
      273.0,      14.53,    13.73,    15.90,    16.18,    12.30
      274.0,      14.51,    13.71,    15.88,    16.16,    12.29
      275.0,      14.49,    13.68,    15.86,    16.14,    12.27
      276.0,      14.47,    13.66,    15.84,    16.13,    12.26
      277.0,      14.45,    13.64,    15.83,    16.11,    12.24
      278.0,      14.43,    13.61,    15.81,    16.09,    12.23
      279.0,      14.42,    13.59,    15.79,    16.07,    12.21
      280.0,      14.40,    13.57,    15.77,    16.05,    12.20
      281.0,      14.38,    13.55,    15.75,    16.04,    12.18
      282.0,      14.36,    13.53,    15.74,    16.02,    12.17
      283.0,      14.34,    13.50,    15.72,    16.00,    12.15
      284.0,      14.33,    13.48,    15.70,    15.98,    12.14
      285.0,      14.31,    13.46,    15.68,    15.97,    12.12
      286.0,      14.29,    13.44,    15.67,    15.95,    12.11
      287.0,      14.27,    13.42,    15.65,    15.93,    12.10
      288.0,      14.26,    13.40,    15.63,    15.91,    12.08
      289.0,      14.24,    13.38,    15.62,    15.90,    12.07
      290.0,      14.22,    13.35,    15.60,    15.88,    12.06
      291.0,      14.21,    13.33,    15.58,    15.86,    12.04
      292.0,      14.19,    13.31,    15.57,    15.85,    12.03
      293.0,      14.17,    13.29,    15.55,    15.83,    12.01
      294.0,      14.15,    13.27,    15.53,    15.81,    12.00
      295.0,      14.14,    13.25,    15.52,    15.80,    11.99
      296.0,      14.12,    13.23,    15.50,    15.78,    11.97
      297.0,      14.10,    13.21,    15.48,    15.76,    11.96
      298.0,      14.09,    13.19,    15.47,    15.75,    11.95
      299.0,      14.07,    13.17,    15.45,    15.73,    11.93
      300.0,      14.05,    13.15,    15.43,    15.71,    11.92
      301.0,      14.04,    13.13,    15.42,    15.70,    11.91
      302.0,      14.02,    13.11,    15.40,    15.68,    11.90
      303.0,      14.01,    13.09,    15.39,    15.66,    11.88
      304.0,      13.99,    13.07,    15.37,    15.65,    11.87
      305.0,      13.97,    13.05,    15.35,    15.63,    11.86
      306.0,      13.96,    13.03,    15.34,    15.62,    11.84
      307.0,      13.94,    13.01,    15.32,    15.60,    11.83
      308.0,      13.92,    12.99,    15.31,    15.58,    11.82
      309.0,      13.91,    12.97,    15.29,    15.57,    11.81
      310.0,      13.89,    12.95,    15.27,    15.55,    11.79
