Radius (km), Mean (m/s), NE (m/s), SE (m/s), SW (m/s), NW (m/s)
        0.0,       0.00,     0.00,     0.00,     0.00,     0.00
        1.0,       1.40,     1.58,     1.34,     1.35,     1.34
        2.0,       2.34,     2.53,     2.27,     2.29,     2.27
        3.0,       3.16,     3.33,     3.10,     3.11,     3.10
        4.0,       3.91,     4.05,     3.86,     3.87,     3.86
        5.0,       4.61,     4.71,     4.58,     4.59,     4.58
        6.0,       5.28,     5.33,     5.26,     5.27,     5.26
        7.0,       5.92,     5.92,     5.92,     5.92,     5.92
        8.0,       6.53,     6.48,     6.55,     6.55,     6.55
        9.0,       7.13,     7.02,     7.17,     7.17,     7.17
       10.0,       7.71,     7.54,     7.77,     7.76,     7.77
       11.0,       8.28,     8.04,     8.36,     8.35,     8.36
       12.0,       8.83,     8.53,     8.93,     8.92,     8.93
       13.0,       9.37,     9.01,     9.49,     9.48,     9.49
       14.0,       9.90,     9.47,    10.05,    10.03,    10.05
       15.0,      10.42,     9.93,    10.59,    10.57,    10.59
       16.0,      10.93,    10.37,    11.13,    11.10,    11.13
       17.0,      11.43,    10.81,    11.65,    11.62,    11.65
       18.0,      11.93,    11.23,    12.17,    12.14,    12.17
       19.0,      12.42,    11.66,    12.69,    12.65,    12.69
       20.0,      12.90,    12.07,    13.19,    13.15,    13.19
       21.0,      13.38,    12.47,    13.69,    13.65,    13.69
       22.0,      13.85,    12.88,    14.19,    14.14,    14.19
       23.0,      14.31,    13.27,    14.68,    14.62,    14.68
       24.0,      14.77,    13.66,    15.16,    15.10,    15.16
       25.0,      15.23,    14.04,    15.64,    15.58,    15.64
       26.0,      15.68,    14.42,    16.12,    16.05,    16.12
       27.0,      16.12,    14.80,    16.59,    16.52,    16.59
       28.0,      16.57,    15.17,    17.06,    16.98,    17.06
       29.0,      17.00,    15.53,    17.52,    17.44,    17.52
       30.0,      17.44,    15.89,    17.98,    17.89,    17.98
       31.0,      17.87,    16.25,    18.44,    18.34,    18.44
       32.0,      18.30,    16.61,    18.89,    18.79,    18.89
       33.0,      18.72,    16.96,    19.34,    19.24,    19.34
       34.0,      19.14,    17.30,    19.79,    19.68,    19.79
       35.0,      19.56,    17.65,    20.23,    20.12,    20.23
       36.0,      19.97,    17.99,    20.67,    20.55,    20.67
       37.0,      20.38,    18.33,    21.11,    20.98,    21.11
       38.0,      20.79,    18.66,    21.54,    21.41,    21.54
       39.0,      21.20,    18.99,    21.97,    21.84,    21.97
       40.0,      21.60,    19.32,    22.40,    22.27,    22.40
       41.0,      22.00,    19.65,    22.83,    22.69,    22.83
       42.0,      22.40,    19.97,    23.25,    23.11,    23.25
       43.0,      22.79,    20.30,    23.67,    23.52,    23.67
       44.0,      23.19,    20.62,    24.09,    23.94,    24.09
       45.0,      23.58,    20.93,    24.51,    24.35,    24.51
       46.0,      23.96,    21.25,    24.93,    24.76,    24.93
       47.0,      24.35,    21.56,    25.34,    25.17,    25.34
       48.0,      24.74,    21.87,    25.75,    25.57,    25.75
       49.0,      25.12,    22.18,    26.16,    25.98,    26.16
       50.0,      25.50,    22.49,    26.56,    26.38,    26.56
       51.0,      25.88,    22.79,    26.97,    26.78,    26.97
       52.0,      26.25,    23.09,    27.37,    27.18,    27.37
       53.0,      26.63,    23.40,    27.77,    27.57,    27.78
       54.0,      27.01,    23.71,    28.18,    27.98,    28.19
       55.0,      27.42,    24.05,    28.60,    28.39,    28.65
       56.0,      27.88,    24.44,    29.05,    28.85,    29.18
       57.0,      28.40,    24.90,    29.55,    29.35,    29.79
       58.0,      28.98,    25.43,    30.10,    29.90,    30.51
       59.0,      29.63,    26.01,    30.70,    30.51,    31.29
       60.0,      30.29,    26.61,    31.33,    31.13,    32.10
       61.0,      30.94,    27.18,    31.95,    31.74,    32.88
       62.0,      31.52,    27.68,    32.53,    32.31,    33.56
       63.0,      31.99,    28.06,    33.02,    32.79,    34.09
       64.0,      32.31,    28.29,    33.40,    33.15,    34.40
       65.0,      32.47,    28.36,    33.64,    33.38,    34.50
       66.0,      32.46,    28.26,    33.74,    33.47,    34.36
       67.0,      32.29,    28.01,    33.70,    33.42,    34.02
       68.0,      31.99,    27.64,    33.54,    33.27,    33.51
       69.0,      31.60,    27.19,    33.30,    33.04,    32.89
       70.0,      31.16,    26.69,    33.00,    32.75,    32.20
       71.0,      30.70,    26.19,    32.67,    32.45,    31.50
       72.0,      30.25,    25.69,    32.35,    32.15,    30.82
       73.0,      29.82,    25.22,    32.04,    31.86,    30.17
       74.0,      29.42,    24.78,    31.74,    31.59,    29.56
       75.0,      29.04,    24.36,    31.47,    31.33,    28.99
       76.0,      28.68,    23.96,    31.21,    31.09,    28.44
       77.0,      28.33,    23.57,    30.96,    30.86,    27.91
       78.0,      27.99,    23.20,    30.72,    30.63,    27.40
       79.0,      27.67,    22.85,    30.49,    30.41,    26.91
       80.0,      27.35,    22.51,    30.26,    30.20,    26.44
       81.0,      27.05,    22.18,    30.04,    29.99,    25.99
       82.0,      26.76,    21.86,    29.82,    29.79,    25.55
       83.0,      26.48,    21.55,    29.62,    29.60,    25.14
       84.0,      26.21,    21.26,    29.42,    29.41,    24.73
       85.0,      25.94,    20.98,    29.22,    29.23,    24.35
       86.0,      25.69,    20.71,    29.03,    29.05,    23.97
       87.0,      25.45,    20.44,    28.85,    28.88,    23.61
       88.0,      25.21,    20.19,    28.67,    28.71,    23.27
       89.0,      24.98,    19.95,    28.49,    28.55,    22.94
       90.0,      24.76,    19.71,    28.32,    28.39,    22.62
       91.0,      24.55,    19.49,    28.16,    28.24,    22.31
       92.0,      24.34,    19.27,    28.00,    28.09,    22.01
       93.0,      24.14,    19.06,    27.84,    27.94,    21.73
       94.0,      23.95,    18.86,    27.69,    27.80,    21.45
       95.0,      23.76,    18.66,    27.54,    27.66,    21.19
       96.0,      23.58,    18.48,    27.40,    27.53,    20.93
       97.0,      23.41,    18.30,    27.26,    27.40,    20.69
       98.0,      23.24,    18.12,    27.12,    27.27,    20.45
       99.0,      23.08,    17.96,    26.99,    27.14,    20.22
      100.0,      22.92,    17.79,    26.86,    27.02,    20.00
      101.0,      22.77,    17.64,    26.73,    26.90,    19.79
      102.0,      22.62,    17.49,    26.61,    26.79,    19.59
      103.0,      22.47,    17.34,    26.49,    26.67,    19.39
      104.0,      22.33,    17.20,    26.37,    26.56,    19.20
      105.0,      22.20,    17.07,    26.25,    26.46,    19.02
      106.0,      22.07,    16.94,    26.14,    26.35,    18.84
      107.0,      21.94,    16.81,    26.03,    26.25,    18.67
      108.0,      21.82,    16.69,    25.92,    26.15,    18.51
      109.0,      21.70,    16.58,    25.82,    26.05,    18.35
      110.0,      21.58,    16.46,    25.71,    25.95,    18.20
      111.0,      21.47,    16.35,    25.61,    25.86,    18.05
      112.0,      21.36,    16.25,    25.51,    25.76,    17.91
      113.0,      21.25,    16.15,    25.42,    25.67,    17.78
      114.0,      21.15,    16.05,    25.32,    25.58,    17.65
      115.0,      21.05,    15.95,    25.23,    25.50,    17.52
      116.0,      20.95,    15.86,    25.14,    25.41,    17.40
      117.0,      20.86,    15.77,    25.05,    25.33,    17.28
      118.0,      20.76,    15.69,    24.96,    25.25,    17.16
      119.0,      20.67,    15.61,    24.87,    25.16,    17.05
      120.0,      20.59,    15.53,    24.79,    25.08,    16.95
      121.0,      20.50,    15.45,    24.70,    25.01,    16.84
      122.0,      20.42,    15.37,    24.62,    24.93,    16.74
      123.0,      20.34,    15.30,    24.54,    24.85,    16.65
      124.0,      20.26,    15.23,    24.46,    24.78,    16.56
      125.0,      20.18,    15.16,    24.38,    24.71,    16.47
      126.0,      20.10,    15.10,    24.30,    24.63,    16.38
      127.0,      20.03,    15.03,    24.23,    24.56,    16.29
      128.0,      19.96,    14.97,    24.15,    24.49,    16.21
      129.0,      19.89,    14.91,    24.08,    24.42,    16.13
      130.0,      19.82,    14.85,    24.01,    24.36,    16.06
      131.0,      19.75,    14.80,    23.94,    24.29,    15.99
      132.0,      19.69,    14.74,    23.87,    24.22,    15.91
      133.0,      19.62,    14.69,    23.80,    24.16,    15.84
      134.0,      19.56,    14.64,    23.73,    24.09,    15.78
      135.0,      19.50,    14.59,    23.66,    24.03,    15.71
      136.0,      19.44,    14.54,    23.59,    23.97,    15.65
      137.0,      19.38,    14.49,    23.53,    23.91,    15.59
      138.0,      19.32,    14.44,    23.46,    23.84,    15.53
      139.0,      19.26,    14.40,    23.40,    23.78,    15.47
      140.0,      19.21,    14.36,    23.33,    23.72,    15.42
      141.0,      19.15,    14.31,    23.27,    23.67,    15.36
      142.0,      19.10,    14.27,    23.21,    23.61,    15.31
      143.0,      19.05,    14.23,    23.15,    23.55,    15.26
      144.0,      19.00,    14.19,    23.09,    23.49,    15.21
      145.0,      18.94,    14.16,    23.03,    23.43,    15.16
      146.0,      18.89,    14.12,    22.97,    23.38,    15.11
      147.0,      18.85,    14.08,    22.91,    23.32,    15.07
      148.0,      18.80,    14.05,    22.85,    23.27,    15.03
      149.0,      18.75,    14.01,    22.79,    23.21,    14.98
      150.0,      18.70,    13.98,    22.73,    23.16,    14.94
      151.0,      18.66,    13.95,    22.67,    23.11,    14.90
      152.0,      18.61,    13.92,    22.62,    23.05,    14.86
      153.0,      18.57,    13.88,    22.56,    23.00,    14.82
      154.0,      18.52,    13.85,    22.51,    22.95,    14.78
      155.0,      18.48,    13.82,    22.45,    22.90,    14.75
      156.0,      18.44,    13.80,    22.40,    22.84,    14.71
      157.0,      18.39,    13.77,    22.34,    22.79,    14.68
      158.0,      18.35,    13.74,    22.29,    22.74,    14.64
      159.0,      18.31,    13.71,    22.23,    22.69,    14.61
      160.0,      18.27,    13.68,    22.18,    22.64,    14.57
      161.0,      18.23,    13.66,    22.13,    22.59,    14.54
      162.0,      18.19,    13.63,    22.08,    22.54,    14.51
      163.0,      18.15,    13.61,    22.02,    22.49,    14.48
      164.0,      18.11,    13.58,    21.97,    22.45,    14.45
      165.0,      18.07,    13.56,    21.92,    22.40,    14.42
      166.0,      18.04,    13.54,    21.87,    22.35,    14.39
      167.0,      18.00,    13.51,    21.82,    22.30,    14.37
      168.0,      17.96,    13.49,    21.77,    22.25,    14.34
      169.0,      17.93,    13.47,    21.72,    22.21,    14.31
      170.0,      17.89,    13.44,    21.67,    22.16,    14.28
      171.0,      17.85,    13.42,    21.62,    22.11,    14.26
      172.0,      17.82,    13.40,    21.57,    22.07,    14.23
      173.0,      17.78,    13.38,    21.52,    22.02,    14.21
      174.0,      17.75,    13.36,    21.47,    21.97,    14.18
      175.0,      17.71,    13.34,    21.42,    21.93,    14.16
      176.0,      17.68,    13.32,    21.37,    21.88,    14.14
      177.0,      17.64,    13.30,    21.33,    21.84,    14.11
      178.0,      17.61,    13.28,    21.28,    21.79,    14.09
      179.0,      17.58,    13.26,    21.23,    21.75,    14.07
      180.0,      17.54,    13.24,    21.18,    21.70,    14.04
      181.0,      17.51,    13.22,    21.14,    21.66,    14.02
      182.0,      17.48,    13.20,    21.09,    21.61,    14.00
      183.0,      17.44,    13.18,    21.04,    21.57,    13.98
      184.0,      17.41,    13.17,    21.00,    21.53,    13.96
      185.0,      17.38,    13.15,    20.95,    21.48,    13.94
      186.0,      17.35,    13.13,    20.90,    21.44,    13.92
      187.0,      17.32,    13.11,    20.86,    21.39,    13.90
      188.0,      17.28,    13.10,    20.81,    21.35,    13.88
      189.0,      17.25,    13.08,    20.77,    21.31,    13.86
      190.0,      17.22,    13.06,    20.72,    21.27,    13.84
      191.0,      17.19,    13.04,    20.67,    21.22,    13.82
      192.0,      17.16,    13.03,    20.63,    21.18,    13.80
      193.0,      17.13,    13.01,    20.58,    21.14,    13.78
      194.0,      17.10,    12.99,    20.54,    21.10,    13.76
      195.0,      17.07,    12.98,    20.50,    21.05,    13.75
      196.0,      17.04,    12.96,    20.45,    21.01,    13.73
      197.0,      17.01,    12.95,    20.41,    20.97,    13.71
      198.0,      16.98,    12.93,    20.36,    20.93,    13.69
      199.0,      16.95,    12.92,    20.32,    20.89,    13.68
      200.0,      16.92,    12.90,    20.27,    20.84,    13.66
      201.0,      16.89,    12.88,    20.23,    20.80,    13.64
      202.0,      16.86,    12.87,    20.19,    20.76,    13.62
      203.0,      16.83,    12.85,    20.14,    20.72,    13.61
      204.0,      16.80,    12.84,    20.10,    20.68,    13.59
      205.0,      16.77,    12.82,    20.06,    20.64,    13.57
      206.0,      16.74,    12.81,    20.01,    20.60,    13.56
      207.0,      16.72,    12.79,    19.97,    20.56,    13.54
      208.0,      16.69,    12.78,    19.93,    20.52,    13.53
      209.0,      16.66,    12.76,    19.89,    20.48,    13.51
      210.0,      16.63,    12.75,    19.84,    20.44,    13.49
      211.0,      16.60,    12.74,    19.80,    20.40,    13.48
      212.0,      16.57,    12.72,    19.76,    20.36,    13.46
      213.0,      16.55,    12.71,    19.72,    20.32,    13.45
      214.0,      16.52,    12.69,    19.68,    20.28,    13.43
      215.0,      16.49,    12.68,    19.63,    20.24,    13.42
      216.0,      16.46,    12.66,    19.59,    20.20,    13.40
      217.0,      16.44,    12.65,    19.55,    20.16,    13.38
      218.0,      16.41,    12.64,    19.51,    20.12,    13.37
      219.0,      16.38,    12.62,    19.47,    20.08,    13.35
      220.0,      16.35,    12.61,    19.43,    20.04,    13.34
      221.0,      16.33,    12.60,    19.38,    20.00,    13.32
      222.0,      16.30,    12.58,    19.34,    19.96,    13.31
      223.0,      16.27,    12.57,    19.30,    19.92,    13.29
      224.0,      16.24,    12.55,    19.26,    19.88,    13.28
      225.0,      16.22,    12.54,    19.22,    19.84,    13.27
      226.0,      16.19,    12.53,    19.18,    19.81,    13.25
      227.0,      16.16,    12.51,    19.14,    19.77,    13.24
      228.0,      16.14,    12.50,    19.10,    19.73,    13.22
      229.0,      16.11,    12.49,    19.06,    19.69,    13.21
      230.0,      16.08,    12.47,    19.02,    19.65,    13.19
      231.0,      16.06,    12.46,    18.98,    19.61,    13.18
      232.0,      16.03,    12.45,    18.94,    19.58,    13.16
      233.0,      16.01,    12.43,    18.90,    19.54,    13.15
      234.0,      15.98,    12.42,    18.86,    19.50,    13.14
      235.0,      15.95,    12.41,    18.82,    19.46,    13.12
      236.0,      15.93,    12.40,    18.78,    19.42,    13.11
      237.0,      15.90,    12.38,    18.74,    19.39,    13.09
      238.0,      15.87,    12.37,    18.70,    19.35,    13.08
      239.0,      15.85,    12.36,    18.66,    19.31,    13.07
      240.0,      15.82,    12.34,    18.62,    19.27,    13.05
      241.0,      15.80,    12.33,    18.58,    19.24,    13.04
      242.0,      15.77,    12.32,    18.54,    19.20,    13.03
      243.0,      15.75,    12.31,    18.50,    19.16,    13.01
      244.0,      15.72,    12.29,    18.46,    19.12,    13.00
      245.0,      15.69,    12.28,    18.43,    19.09,    12.98
      246.0,      15.67,    12.27,    18.39,    19.05,    12.97
      247.0,      15.64,    12.25,    18.35,    19.01,    12.96
      248.0,      15.62,    12.24,    18.31,    18.98,    12.94
      249.0,      15.59,    12.23,    18.27,    18.94,    12.93
      250.0,      15.57,    12.22,    18.23,    18.90,    12.92
      251.0,      15.54,    12.20,    18.19,    18.87,    12.90
      252.0,      15.52,    12.19,    18.16,    18.83,    12.89
      253.0,      15.49,    12.18,    18.12,    18.79,    12.88
      254.0,      15.47,    12.17,    18.08,    18.76,    12.86
      255.0,      15.44,    12.15,    18.04,    18.72,    12.85
      256.0,      15.42,    12.14,    18.00,    18.68,    12.84
      257.0,      15.39,    12.13,    17.97,    18.65,    12.82
      258.0,      15.37,    12.12,    17.93,    18.61,    12.81
      259.0,      15.34,    12.10,    17.89,    18.58,    12.80
      260.0,      15.32,    12.09,    17.85,    18.54,    12.78
      261.0,      15.29,    12.08,    17.82,    18.50,    12.77
      262.0,      15.27,    12.07,    17.78,    18.47,    12.76
      263.0,      15.24,    12.06,    17.74,    18.43,    12.75
      264.0,      15.22,    12.04,    17.70,    18.40,    12.73
      265.0,      15.19,    12.03,    17.67,    18.36,    12.72
      266.0,      15.17,    12.02,    17.63,    18.33,    12.71
      267.0,      15.15,    12.01,    17.59,    18.29,    12.69
      268.0,      15.12,    11.99,    17.56,    18.26,    12.68
      269.0,      15.10,    11.98,    17.52,    18.22,    12.67
      270.0,      15.07,    11.97,    17.48,    18.19,    12.66
      271.0,      15.05,    11.96,    17.45,    18.15,    12.64
      272.0,      15.03,    11.95,    17.41,    18.12,    12.63
      273.0,      15.00,    11.93,    17.37,    18.08,    12.62
      274.0,      14.98,    11.92,    17.34,    18.05,    12.60
      275.0,      14.95,    11.91,    17.30,    18.01,    12.59
      276.0,      14.93,    11.90,    17.26,    17.98,    12.58
      277.0,      14.91,    11.89,    17.23,    17.94,    12.57
      278.0,      14.88,    11.87,    17.19,    17.91,    12.55
      279.0,      14.86,    11.86,    17.16,    17.87,    12.54
      280.0,      14.83,    11.85,    17.12,    17.84,    12.53
      281.0,      14.81,    11.84,    17.08,    17.80,    12.51
      282.0,      14.79,    11.83,    17.05,    17.77,    12.50
      283.0,      14.76,    11.81,    17.01,    17.73,    12.49
      284.0,      14.74,    11.80,    16.98,    17.70,    12.48
      285.0,      14.72,    11.79,    16.94,    17.67,    12.46
      286.0,      14.69,    11.78,    16.91,    17.63,    12.45
      287.0,      14.67,    11.77,    16.87,    17.60,    12.44
      288.0,      14.65,    11.75,    16.84,    17.56,    12.43
      289.0,      14.62,    11.74,    16.80,    17.53,    12.41
      290.0,      14.60,    11.73,    16.76,    17.50,    12.40
      291.0,      14.58,    11.72,    16.73,    17.46,    12.39
      292.0,      14.55,    11.71,    16.69,    17.43,    12.38
      293.0,      14.53,    11.70,    16.66,    17.40,    12.36
      294.0,      14.51,    11.68,    16.62,    17.36,    12.35
      295.0,      14.48,    11.67,    16.59,    17.33,    12.34
      296.0,      14.46,    11.66,    16.56,    17.29,    12.33
      297.0,      14.44,    11.65,    16.52,    17.26,    12.31
      298.0,      14.41,    11.64,    16.49,    17.23,    12.30
      299.0,      14.39,    11.63,    16.45,    17.20,    12.29
      300.0,      14.37,    11.61,    16.42,    17.16,    12.28
      301.0,      14.34,    11.60,    16.38,    17.13,    12.27
      302.0,      14.32,    11.59,    16.35,    17.10,    12.25
      303.0,      14.30,    11.58,    16.31,    17.06,    12.24
      304.0,      14.28,    11.57,    16.28,    17.03,    12.23
      305.0,      14.25,    11.56,    16.25,    17.00,    12.22
      306.0,      14.23,    11.54,    16.21,    16.96,    12.20
      307.0,      14.21,    11.53,    16.18,    16.93,    12.19
      308.0,      14.19,    11.52,    16.14,    16.90,    12.18
      309.0,      14.16,    11.51,    16.11,    16.87,    12.17
      310.0,      14.14,    11.50,    16.08,    16.83,    12.15
