Radius (km), Mean (m/s), NE (m/s), SE (m/s), SW (m/s), NW (m/s)
        0.0,       0.00,     0.00,     0.00,     0.00,     0.00
        1.0,       1.60,     1.61,     1.60,     1.60,     1.60
        2.0,       2.34,     2.35,     2.34,     2.34,     2.34
        3.0,       2.93,     2.92,     2.93,     2.93,     2.93
        4.0,       3.43,     3.42,     3.43,     3.43,     3.43
        5.0,       3.88,     3.86,     3.88,     3.87,     3.88
        6.0,       4.28,     4.26,     4.30,     4.28,     4.30
        7.0,       4.66,     4.63,     4.68,     4.66,     4.68
        8.0,       5.01,     4.98,     5.03,     5.01,     5.03
        9.0,       5.35,     5.31,     5.37,     5.35,     5.37
       10.0,       5.67,     5.62,     5.69,     5.66,     5.69
       11.0,       5.97,     5.92,     6.00,     5.97,     6.00
       12.0,       6.26,     6.20,     6.30,     6.26,     6.30
       13.0,       6.55,     6.48,     6.58,     6.54,     6.58
       14.0,       6.82,     6.74,     6.86,     6.81,     6.86
       15.0,       7.08,     7.00,     7.12,     7.07,     7.12
       16.0,       7.33,     7.25,     7.38,     7.33,     7.38
       17.0,       7.58,     7.49,     7.63,     7.58,     7.63
       18.0,       7.82,     7.73,     7.87,     7.82,     7.87
       19.0,       8.06,     7.96,     8.11,     8.05,     8.11
       20.0,       8.29,     8.18,     8.35,     8.28,     8.35
       21.0,       8.51,     8.40,     8.57,     8.51,     8.57
       22.0,       8.73,     8.62,     8.80,     8.73,     8.80
       23.0,       8.95,     8.83,     9.02,     8.94,     9.02
       24.0,       9.16,     9.03,     9.23,     9.15,     9.23
       25.0,       9.37,     9.24,     9.44,     9.36,     9.44
       26.0,       9.57,     9.44,     9.65,     9.56,     9.65
       27.0,       9.77,     9.63,     9.85,     9.76,     9.85
       28.0,       9.97,     9.82,    10.05,     9.96,    10.05
       29.0,      10.16,    10.01,    10.25,    10.15,    10.25
       30.0,      10.35,    10.20,    10.44,    10.34,    10.44
       31.0,      10.54,    10.38,    10.63,    10.53,    10.63
       32.0,      10.73,    10.56,    10.82,    10.72,    10.82
       33.0,      10.91,    10.74,    11.00,    10.90,    11.00
       34.0,      11.09,    10.91,    11.19,    11.08,    11.19
       35.0,      11.27,    11.09,    11.37,    11.25,    11.37
       36.0,      11.44,    11.26,    11.54,    11.43,    11.54
       37.0,      11.62,    11.43,    11.72,    11.60,    11.72
       38.0,      11.79,    11.59,    11.89,    11.77,    11.89
       39.0,      11.96,    11.76,    12.06,    11.94,    12.06
       40.0,      12.12,    11.92,    12.23,    12.11,    12.23
       41.0,      12.29,    12.08,    12.40,    12.27,    12.40
       42.0,      12.45,    12.24,    12.57,    12.44,    12.57
       43.0,      12.61,    12.40,    12.73,    12.60,    12.73
       44.0,      12.78,    12.55,    12.90,    12.76,    12.90
       45.0,      12.93,    12.71,    13.06,    12.92,    13.06
       46.0,      13.09,    12.86,    13.22,    13.07,    13.22
       47.0,      13.25,    13.01,    13.37,    13.23,    13.37
       48.0,      13.40,    13.16,    13.53,    13.38,    13.53
       49.0,      13.55,    13.31,    13.68,    13.53,    13.68
       50.0,      13.70,    13.45,    13.84,    13.68,    13.84
       51.0,      13.85,    13.60,    13.99,    13.83,    13.99
       52.0,      14.00,    13.74,    14.14,    13.98,    14.14
       53.0,      14.15,    13.88,    14.29,    14.13,    14.29
       54.0,      14.29,    14.03,    14.44,    14.27,    14.44
       55.0,      14.44,    14.17,    14.58,    14.42,    14.58
       56.0,      14.58,    14.31,    14.73,    14.56,    14.73
       57.0,      14.72,    14.44,    14.88,    14.70,    14.88
       58.0,      14.87,    14.58,    15.02,    14.84,    15.02
       59.0,      15.01,    14.72,    15.16,    14.98,    15.16
       60.0,      15.14,    14.85,    15.30,    15.12,    15.30
       61.0,      15.28,    14.98,    15.44,    15.26,    15.44
       62.0,      15.42,    15.12,    15.58,    15.40,    15.58
       63.0,      15.56,    15.25,    15.72,    15.53,    15.72
       64.0,      15.69,    15.38,    15.86,    15.67,    15.86
       65.0,      15.82,    15.51,    15.99,    15.80,    15.99
       66.0,      15.96,    15.64,    16.13,    15.93,    16.13
       67.0,      16.09,    15.77,    16.26,    16.06,    16.26
       68.0,      16.22,    15.89,    16.40,    16.20,    16.40
       69.0,      16.35,    16.02,    16.53,    16.33,    16.53
       70.0,      16.48,    16.15,    16.66,    16.46,    16.66
       71.0,      16.61,    16.27,    16.79,    16.58,    16.79
       72.0,      16.74,    16.39,    16.92,    16.71,    16.92
       73.0,      16.86,    16.52,    17.05,    16.84,    17.05
       74.0,      16.99,    16.64,    17.18,    16.96,    17.18
       75.0,      17.12,    16.76,    17.31,    17.09,    17.31
       76.0,      17.24,    16.88,    17.43,    17.21,    17.43
       77.0,      17.37,    17.00,    17.56,    17.34,    17.56
       78.0,      17.49,    17.12,    17.69,    17.46,    17.69
       79.0,      17.62,    17.25,    17.81,    17.59,    17.82
       80.0,      17.75,    17.38,    17.95,    17.72,    17.96
       81.0,      17.90,    17.53,    18.10,    17.88,    18.11
       82.0,      18.07,    17.69,    18.26,    18.05,    18.29
       83.0,      18.27,    17.88,    18.44,    18.24,    18.50
       84.0,      18.47,    18.09,    18.63,    18.45,    18.72
       85.0,      18.68,    18.29,    18.82,    18.66,    18.95
       86.0,      18.88,    18.49,    19.01,    18.86,    19.17
       87.0,      19.06,    18.66,    19.18,    19.03,    19.36
       88.0,      19.20,    18.80,    19.31,    19.17,    19.50
       89.0,      19.29,    18.89,    19.41,    19.26,    19.60
       90.0,      19.33,    18.92,    19.47,    19.30,    19.63
       91.0,      19.32,    18.91,    19.49,    19.29,    19.60
       92.0,      19.27,    18.85,    19.47,    19.23,    19.51
       93.0,      19.17,    18.75,    19.42,    19.14,    19.39
       94.0,      19.06,    18.62,    19.35,    19.02,    19.23
       95.0,      18.93,    18.49,    19.26,    18.89,    19.06
       96.0,      18.79,    18.35,    19.17,    18.76,    18.88
       97.0,      18.66,    18.21,    19.09,    18.63,    18.71
       98.0,      18.53,    18.08,    19.01,    18.51,    18.55
       99.0,      18.42,    17.96,    18.93,    18.39,    18.40
      100.0,      18.31,    17.84,    18.86,    18.28,    18.25
      101.0,      18.20,    17.73,    18.79,    18.18,    18.12
      102.0,      18.10,    17.62,    18.72,    18.08,    17.98
      103.0,      18.00,    17.52,    18.65,    17.98,    17.85
      104.0,      17.91,    17.42,    18.59,    17.88,    17.73
      105.0,      17.81,    17.32,    18.53,    17.79,    17.61
      106.0,      17.72,    17.23,    18.47,    17.70,    17.50
      107.0,      17.64,    17.14,    18.41,    17.62,    17.38
      108.0,      17.55,    17.05,    18.35,    17.53,    17.28
      109.0,      17.47,    16.97,    18.30,    17.45,    17.17
      110.0,      17.39,    16.89,    18.24,    17.38,    17.07
      111.0,      17.32,    16.81,    18.19,    17.30,    16.98
      112.0,      17.24,    16.73,    18.14,    17.23,    16.88
      113.0,      17.17,    16.66,    18.09,    17.16,    16.79
      114.0,      17.10,    16.58,    18.04,    17.09,    16.70
      115.0,      17.04,    16.51,    17.99,    17.02,    16.62
      116.0,      16.97,    16.45,    17.94,    16.96,    16.54
      117.0,      16.91,    16.38,    17.90,    16.89,    16.46
      118.0,      16.85,    16.32,    17.85,    16.83,    16.38
      119.0,      16.79,    16.26,    17.81,    16.77,    16.31
      120.0,      16.73,    16.20,    17.77,    16.72,    16.23
      121.0,      16.67,    16.14,    17.73,    16.66,    16.16
      122.0,      16.62,    16.08,    17.69,    16.61,    16.10
      123.0,      16.57,    16.03,    17.65,    16.56,    16.03
      124.0,      16.51,    15.98,    17.61,    16.50,    15.97
      125.0,      16.46,    15.92,    17.57,    16.45,    15.91
      126.0,      16.41,    15.87,    17.53,    16.41,    15.85
      127.0,      16.37,    15.82,    17.50,    16.36,    15.79
      128.0,      16.32,    15.78,    17.46,    16.31,    15.73
      129.0,      16.28,    15.73,    17.42,    16.27,    15.68
      130.0,      16.23,    15.69,    17.39,    16.23,    15.62
      131.0,      16.19,    15.64,    17.36,    16.18,    15.57
      132.0,      16.15,    15.60,    17.32,    16.14,    15.52
      133.0,      16.11,    15.56,    17.29,    16.10,    15.47
      134.0,      16.07,    15.52,    17.26,    16.06,    15.43
      135.0,      16.03,    15.48,    17.23,    16.02,    15.38
      136.0,      15.99,    15.44,    17.20,    15.99,    15.33
      137.0,      15.95,    15.40,    17.17,    15.95,    15.29
      138.0,      15.92,    15.37,    17.14,    15.91,    15.25
      139.0,      15.88,    15.33,    17.11,    15.88,    15.21
      140.0,      15.85,    15.30,    17.08,    15.85,    15.17
      141.0,      15.81,    15.26,    17.05,    15.81,    15.13
      142.0,      15.78,    15.23,    17.02,    15.78,    15.09
      143.0,      15.75,    15.20,    16.99,    15.75,    15.05
      144.0,      15.72,    15.16,    16.96,    15.72,    15.02
      145.0,      15.68,    15.13,    16.94,    15.69,    14.98
      146.0,      15.65,    15.10,    16.91,    15.66,    14.95
      147.0,      15.62,    15.07,    16.88,    15.63,    14.91
      148.0,      15.59,    15.04,    16.86,    15.60,    14.88
      149.0,      15.57,    15.02,    16.83,    15.57,    14.85
      150.0,      15.54,    14.99,    16.81,    15.54,    14.81
      151.0,      15.51,    14.96,    16.78,    15.51,    14.78
      152.0,      15.48,    14.93,    16.76,    15.49,    14.75
      153.0,      15.46,    14.91,    16.73,    15.46,    14.72
      154.0,      15.43,    14.88,    16.71,    15.44,    14.69
      155.0,      15.40,    14.85,    16.68,    15.41,    14.67
      156.0,      15.38,    14.83,    16.66,    15.39,    14.64
      157.0,      15.35,    14.80,    16.64,    15.36,    14.61
      158.0,      15.33,    14.78,    16.61,    15.34,    14.58
      159.0,      15.30,    14.76,    16.59,    15.31,    14.56
      160.0,      15.28,    14.73,    16.57,    15.29,    14.53
      161.0,      15.26,    14.71,    16.54,    15.27,    14.51
      162.0,      15.23,    14.69,    16.52,    15.24,    14.48
      163.0,      15.21,    14.66,    16.50,    15.22,    14.46
      164.0,      15.19,    14.64,    16.48,    15.20,    14.43
      165.0,      15.17,    14.62,    16.46,    15.18,    14.41
      166.0,      15.14,    14.60,    16.43,    15.16,    14.39
      167.0,      15.12,    14.58,    16.41,    15.13,    14.36
      168.0,      15.10,    14.56,    16.39,    15.11,    14.34
      169.0,      15.08,    14.54,    16.37,    15.09,    14.32
      170.0,      15.06,    14.52,    16.35,    15.07,    14.30
      171.0,      15.04,    14.50,    16.33,    15.05,    14.27
      172.0,      15.02,    14.48,    16.31,    15.03,    14.25
      173.0,      15.00,    14.46,    16.29,    15.01,    14.23
      174.0,      14.98,    14.44,    16.27,    14.99,    14.21
      175.0,      14.96,    14.42,    16.25,    14.97,    14.19
      176.0,      14.94,    14.40,    16.22,    14.95,    14.17
      177.0,      14.92,    14.38,    16.20,    14.93,    14.15
      178.0,      14.90,    14.36,    16.18,    14.91,    14.13
      179.0,      14.88,    14.34,    16.16,    14.90,    14.11
      180.0,      14.86,    14.32,    16.14,    14.88,    14.09
      181.0,      14.84,    14.31,    16.13,    14.86,    14.07
      182.0,      14.82,    14.29,    16.11,    14.84,    14.06
      183.0,      14.80,    14.27,    16.09,    14.82,    14.04
      184.0,      14.79,    14.25,    16.07,    14.80,    14.02
      185.0,      14.77,    14.24,    16.05,    14.79,    14.00
      186.0,      14.75,    14.22,    16.03,    14.77,    13.98
      187.0,      14.73,    14.20,    16.01,    14.75,    13.96
      188.0,      14.71,    14.18,    15.99,    14.73,    13.95
      189.0,      14.70,    14.17,    15.97,    14.72,    13.93
      190.0,      14.68,    14.15,    15.95,    14.70,    13.91
      191.0,      14.66,    14.13,    15.93,    14.68,    13.90
      192.0,      14.64,    14.12,    15.91,    14.67,    13.88
      193.0,      14.63,    14.10,    15.89,    14.65,    13.86
      194.0,      14.61,    14.08,    15.88,    14.63,    13.84
      195.0,      14.59,    14.07,    15.86,    14.62,    13.83
      196.0,      14.58,    14.05,    15.84,    14.60,    13.81
      197.0,      14.56,    14.04,    15.82,    14.58,    13.80
      198.0,      14.54,    14.02,    15.80,    14.57,    13.78
      199.0,      14.53,    14.00,    15.78,    14.55,    13.76
      200.0,      14.51,    13.99,    15.76,    14.53,    13.75
      201.0,      14.49,    13.97,    15.75,    14.52,    13.73
      202.0,      14.48,    13.96,    15.73,    14.50,    13.72
      203.0,      14.46,    13.94,    15.71,    14.49,    13.70
      204.0,      14.44,    13.93,    15.69,    14.47,    13.68
      205.0,      14.43,    13.91,    15.67,    14.45,    13.67
      206.0,      14.41,    13.90,    15.66,    14.44,    13.65
      207.0,      14.39,    13.88,    15.64,    14.42,    13.64
      208.0,      14.38,    13.86,    15.62,    14.41,    13.62
      209.0,      14.36,    13.85,    15.60,    14.39,    13.61
      210.0,      14.35,    13.83,    15.58,    14.38,    13.59
      211.0,      14.33,    13.82,    15.57,    14.36,    13.58
      212.0,      14.32,    13.80,    15.55,    14.35,    13.56
      213.0,      14.30,    13.79,    15.53,    14.33,    13.55
      214.0,      14.28,    13.78,    15.51,    14.31,    13.53
      215.0,      14.27,    13.76,    15.50,    14.30,    13.52
      216.0,      14.25,    13.75,    15.48,    14.28,    13.50
      217.0,      14.24,    13.73,    15.46,    14.27,    13.49
      218.0,      14.22,    13.72,    15.44,    14.25,    13.47
      219.0,      14.21,    13.70,    15.43,    14.24,    13.46
      220.0,      14.19,    13.69,    15.41,    14.22,    13.44
      221.0,      14.18,    13.67,    15.39,    14.21,    13.43
      222.0,      14.16,    13.66,    15.37,    14.19,    13.42
      223.0,      14.15,    13.64,    15.36,    14.18,    13.40
      224.0,      14.13,    13.63,    15.34,    14.16,    13.39
      225.0,      14.12,    13.62,    15.32,    14.15,    13.37
      226.0,      14.10,    13.60,    15.30,    14.14,    13.36
      227.0,      14.08,    13.59,    15.29,    14.12,    13.34
      228.0,      14.07,    13.57,    15.27,    14.11,    13.33
      229.0,      14.05,    13.56,    15.25,    14.09,    13.32
      230.0,      14.04,    13.54,    15.24,    14.08,    13.30
      231.0,      14.03,    13.53,    15.22,    14.06,    13.29
      232.0,      14.01,    13.52,    15.20,    14.05,    13.27
      233.0,      14.00,    13.50,    15.19,    14.03,    13.26
      234.0,      13.98,    13.49,    15.17,    14.02,    13.25
      235.0,      13.97,    13.48,    15.15,    14.00,    13.23
      236.0,      13.95,    13.46,    15.13,    13.99,    13.22
      237.0,      13.94,    13.45,    15.12,    13.98,    13.21
      238.0,      13.92,    13.43,    15.10,    13.96,    13.19
      239.0,      13.91,    13.42,    15.08,    13.95,    13.18
      240.0,      13.89,    13.41,    15.07,    13.93,    13.16
      241.0,      13.88,    13.39,    15.05,    13.92,    13.15
      242.0,      13.86,    13.38,    15.03,    13.90,    13.14
      243.0,      13.85,    13.36,    15.02,    13.89,    13.12
      244.0,      13.83,    13.35,    15.00,    13.88,    13.11
      245.0,      13.82,    13.34,    14.98,    13.86,    13.10
      246.0,      13.81,    13.32,    14.97,    13.85,    13.08
      247.0,      13.79,    13.31,    14.95,    13.83,    13.07
      248.0,      13.78,    13.30,    14.93,    13.82,    13.06
      249.0,      13.76,    13.28,    14.92,    13.81,    13.04
      250.0,      13.75,    13.27,    14.90,    13.79,    13.03
      251.0,      13.73,    13.26,    14.88,    13.78,    13.02
      252.0,      13.72,    13.24,    14.87,    13.76,    13.00
      253.0,      13.70,    13.23,    14.85,    13.75,    12.99
      254.0,      13.69,    13.22,    14.83,    13.74,    12.98
      255.0,      13.68,    13.20,    14.82,    13.72,    12.96
      256.0,      13.66,    13.19,    14.80,    13.71,    12.95
      257.0,      13.65,    13.18,    14.78,    13.69,    12.94
      258.0,      13.63,    13.16,    14.77,    13.68,    12.92
      259.0,      13.62,    13.15,    14.75,    13.67,    12.91
      260.0,      13.61,    13.14,    14.74,    13.65,    12.90
      261.0,      13.59,    13.12,    14.72,    13.64,    12.88
      262.0,      13.58,    13.11,    14.70,    13.62,    12.87
      263.0,      13.56,    13.10,    14.69,    13.61,    12.86
      264.0,      13.55,    13.08,    14.67,    13.60,    12.85
      265.0,      13.53,    13.07,    14.65,    13.58,    12.83
      266.0,      13.52,    13.06,    14.64,    13.57,    12.82
      267.0,      13.51,    13.04,    14.62,    13.56,    12.81
      268.0,      13.49,    13.03,    14.61,    13.54,    12.79
      269.0,      13.48,    13.02,    14.59,    13.53,    12.78
      270.0,      13.46,    13.00,    14.57,    13.52,    12.77
      271.0,      13.45,    12.99,    14.56,    13.50,    12.75
      272.0,      13.44,    12.98,    14.54,    13.49,    12.74
      273.0,      13.42,    12.96,    14.53,    13.47,    12.73
      274.0,      13.41,    12.95,    14.51,    13.46,    12.72
      275.0,      13.40,    12.94,    14.49,    13.45,    12.70
      276.0,      13.38,    12.93,    14.48,    13.43,    12.69
      277.0,      13.37,    12.91,    14.46,    13.42,    12.68
      278.0,      13.35,    12.90,    14.45,    13.41,    12.66
      279.0,      13.34,    12.89,    14.43,    13.39,    12.65
      280.0,      13.33,    12.87,    14.41,    13.38,    12.64
      281.0,      13.31,    12.86,    14.40,    13.37,    12.63
      282.0,      13.30,    12.85,    14.38,    13.35,    12.61
      283.0,      13.29,    12.83,    14.37,    13.34,    12.60
      284.0,      13.27,    12.82,    14.35,    13.33,    12.59
      285.0,      13.26,    12.81,    14.33,    13.31,    12.58
      286.0,      13.24,    12.80,    14.32,    13.30,    12.56
      287.0,      13.23,    12.78,    14.30,    13.29,    12.55
      288.0,      13.22,    12.77,    14.29,    13.27,    12.54
      289.0,      13.20,    12.76,    14.27,    13.26,    12.53
      290.0,      13.19,    12.74,    14.25,    13.25,    12.51
      291.0,      13.18,    12.73,    14.24,    13.23,    12.50
      292.0,      13.16,    12.72,    14.22,    13.22,    12.49
      293.0,      13.15,    12.71,    14.21,    13.21,    12.48
      294.0,      13.14,    12.69,    14.19,    13.19,    12.46
      295.0,      13.12,    12.68,    14.18,    13.18,    12.45
      296.0,      13.11,    12.67,    14.16,    13.17,    12.44
      297.0,      13.09,    12.66,    14.15,    13.15,    12.43
      298.0,      13.08,    12.64,    14.13,    13.14,    12.41
      299.0,      13.07,    12.63,    14.11,    13.13,    12.40
      300.0,      13.05,    12.62,    14.10,    13.11,    12.39
      301.0,      13.04,    12.60,    14.08,    13.10,    12.38
      302.0,      13.03,    12.59,    14.07,    13.09,    12.36
      303.0,      13.01,    12.58,    14.05,    13.07,    12.35
      304.0,      13.00,    12.57,    14.04,    13.06,    12.34
      305.0,      12.99,    12.55,    14.02,    13.05,    12.33
      306.0,      12.97,    12.54,    14.01,    13.04,    12.31
      307.0,      12.96,    12.53,    13.99,    13.02,    12.30
      308.0,      12.95,    12.52,    13.97,    13.01,    12.29
      309.0,      12.93,    12.50,    13.96,    13.00,    12.28
      310.0,      12.92,    12.49,    13.94,    12.98,    12.26
