Radius (km), Mean (m/s), NE (m/s), SE (m/s), SW (m/s), NW (m/s)
        0.0,       0.00,     0.00,     0.00,     0.00,     0.00
        1.0,       1.14,     1.12,     1.12,     1.13,     1.20
        2.0,       1.70,     1.68,     1.68,     1.69,     1.75
        3.0,       2.14,     2.13,     2.13,     2.13,     2.18
        4.0,       2.52,     2.51,     2.51,     2.52,     2.55
        5.0,       2.87,     2.86,     2.86,     2.87,     2.88
        6.0,       3.18,     3.18,     3.18,     3.19,     3.18
        7.0,       3.48,     3.48,     3.48,     3.48,     3.46
        8.0,       3.75,     3.76,     3.76,     3.76,     3.72
        9.0,       4.01,     4.03,     4.03,     4.03,     3.97
       10.0,       4.26,     4.29,     4.29,     4.28,     4.20
       11.0,       4.50,     4.53,     4.53,     4.52,     4.43
       12.0,       4.73,     4.77,     4.77,     4.76,     4.64
       13.0,       4.95,     4.99,     4.99,     4.98,     4.85
       14.0,       5.17,     5.21,     5.21,     5.20,     5.05
       15.0,       5.38,     5.43,     5.43,     5.41,     5.24
       16.0,       5.58,     5.63,     5.63,     5.62,     5.43
       17.0,       5.78,     5.84,     5.84,     5.82,     5.61
       18.0,       5.97,     6.03,     6.03,     6.02,     5.79
       19.0,       6.16,     6.23,     6.23,     6.21,     5.97
       20.0,       6.34,     6.42,     6.42,     6.39,     6.13
       21.0,       6.52,     6.60,     6.60,     6.58,     6.30
       22.0,       6.70,     6.78,     6.78,     6.76,     6.46
       23.0,       6.87,     6.96,     6.96,     6.93,     6.62
       24.0,       7.04,     7.13,     7.13,     7.10,     6.78
       25.0,       7.20,     7.31,     7.31,     7.27,     6.93
       26.0,       7.37,     7.47,     7.47,     7.44,     7.08
       27.0,       7.53,     7.64,     7.64,     7.61,     7.23
       28.0,       7.69,     7.80,     7.80,     7.77,     7.37
       29.0,       7.84,     7.97,     7.97,     7.93,     7.51
       30.0,       8.00,     8.12,     8.12,     8.08,     7.65
       31.0,       8.15,     8.28,     8.28,     8.24,     7.79
       32.0,       8.30,     8.44,     8.44,     8.39,     7.93
       33.0,       8.44,     8.59,     8.59,     8.54,     8.06
       34.0,       8.59,     8.74,     8.74,     8.69,     8.19
       35.0,       8.73,     8.89,     8.89,     8.84,     8.32
       36.0,       8.88,     9.03,     9.03,     8.98,     8.45
       37.0,       9.02,     9.18,     9.18,     9.13,     8.58
       38.0,       9.16,     9.32,     9.32,     9.27,     8.71
       39.0,       9.29,     9.46,     9.46,     9.41,     8.83
       40.0,       9.43,     9.61,     9.61,     9.55,     8.95
       41.0,       9.56,     9.74,     9.74,     9.69,     9.08
       42.0,       9.70,     9.88,     9.88,     9.82,     9.20
       43.0,       9.83,    10.02,    10.02,     9.96,     9.31
       44.0,       9.96,    10.15,    10.15,    10.09,     9.43
       45.0,      10.09,    10.29,    10.29,    10.22,     9.55
       46.0,      10.21,    10.42,    10.42,    10.35,     9.66
       47.0,      10.34,    10.55,    10.55,    10.48,     9.78
       48.0,      10.47,    10.68,    10.68,    10.61,     9.89
       49.0,      10.59,    10.81,    10.81,    10.74,    10.00
       50.0,      10.71,    10.94,    10.94,    10.86,    10.11
       51.0,      10.84,    11.06,    11.06,    10.99,    10.22
       52.0,      10.96,    11.19,    11.19,    11.11,    10.33
       53.0,      11.08,    11.31,    11.31,    11.24,    10.44
       54.0,      11.20,    11.44,    11.44,    11.36,    10.55
       55.0,      11.31,    11.56,    11.56,    11.48,    10.65
       56.0,      11.43,    11.68,    11.68,    11.60,    10.76
       57.0,      11.55,    11.80,    11.80,    11.72,    10.86
       58.0,      11.66,    11.92,    11.92,    11.84,    10.97
       59.0,      11.78,    12.04,    12.04,    11.96,    11.07
       60.0,      11.89,    12.16,    12.16,    12.07,    11.17
       61.0,      12.00,    12.28,    12.28,    12.19,    11.27
       62.0,      12.12,    12.40,    12.40,    12.30,    11.37
       63.0,      12.23,    12.51,    12.51,    12.42,    11.47
       64.0,      12.34,    12.63,    12.63,    12.53,    11.57
       65.0,      12.45,    12.74,    12.74,    12.64,    11.67
       66.0,      12.56,    12.86,    12.86,    12.76,    11.77
       67.0,      12.67,    12.97,    12.97,    12.87,    11.86
       68.0,      12.78,    13.08,    13.08,    12.98,    11.96
       69.0,      12.88,    13.19,    13.19,    13.09,    12.06
       70.0,      12.99,    13.30,    13.30,    13.20,    12.15
       71.0,      13.10,    13.41,    13.41,    13.31,    12.24
       72.0,      13.20,    13.52,    13.52,    13.42,    12.34
       73.0,      13.31,    13.63,    13.63,    13.52,    12.43
       74.0,      13.41,    13.74,    13.74,    13.63,    12.52
       75.0,      13.51,    13.85,    13.85,    13.74,    12.62
       76.0,      13.62,    13.96,    13.96,    13.84,    12.71
       77.0,      13.72,    14.06,    14.06,    13.95,    12.80
       78.0,      13.82,    14.17,    14.17,    14.05,    12.89
       79.0,      13.92,    14.27,    14.27,    14.16,    12.98
       80.0,      14.02,    14.38,    14.38,    14.26,    13.07
       81.0,      14.12,    14.48,    14.48,    14.36,    13.16
       82.0,      14.22,    14.59,    14.59,    14.46,    13.25
       83.0,      14.32,    14.69,    14.69,    14.57,    13.33
       84.0,      14.42,    14.79,    14.79,    14.67,    13.42
       85.0,      14.52,    14.90,    14.90,    14.77,    13.51
       86.0,      14.61,    15.00,    15.00,    14.87,    13.59
       87.0,      14.71,    15.10,    15.10,    14.97,    13.68
       88.0,      14.81,    15.20,    15.20,    15.07,    13.77
       89.0,      14.90,    15.30,    15.30,    15.17,    13.85
       90.0,      15.00,    15.40,    15.40,    15.26,    13.94
       91.0,      15.09,    15.50,    15.50,    15.36,    14.02
       92.0,      15.19,    15.60,    15.60,    15.46,    14.10
       93.0,      15.28,    15.70,    15.70,    15.56,    14.19
       94.0,      15.38,    15.79,    15.79,    15.65,    14.27
       95.0,      15.47,    15.89,    15.89,    15.75,    14.35
       96.0,      15.56,    15.99,    15.99,    15.85,    14.43
       97.0,      15.66,    16.09,    16.09,    15.94,    14.52
       98.0,      15.75,    16.18,    16.18,    16.04,    14.60
       99.0,      15.84,    16.28,    16.28,    16.13,    14.68
      100.0,      15.93,    16.37,    16.37,    16.22,    14.76
      101.0,      16.02,    16.47,    16.47,    16.32,    14.84
      102.0,      16.11,    16.56,    16.56,    16.41,    14.92
      103.0,      16.20,    16.66,    16.66,    16.50,    15.00
      104.0,      16.29,    16.75,    16.75,    16.60,    15.08
      105.0,      16.38,    16.85,    16.85,    16.69,    15.16
      106.0,      16.47,    16.94,    16.94,    16.78,    15.24
      107.0,      16.56,    17.03,    17.03,    16.87,    15.31
      108.0,      16.65,    17.12,    17.12,    16.96,    15.39
      109.0,      16.74,    17.22,    17.22,    17.05,    15.47
      110.0,      16.83,    17.31,    17.31,    17.14,    15.55
      111.0,      16.91,    17.40,    17.40,    17.23,    15.62
      112.0,      17.00,    17.49,    17.49,    17.32,    15.70
      113.0,      17.09,    17.58,    17.58,    17.41,    15.78
      114.0,      17.17,    17.67,    17.67,    17.50,    15.85
      115.0,      17.26,    17.76,    17.76,    17.59,    15.93
      116.0,      17.35,    17.85,    17.85,    17.68,    16.00
      117.0,      17.43,    17.94,    17.94,    17.77,    16.08
      118.0,      17.52,    18.03,    18.03,    17.85,    16.15
      119.0,      17.60,    18.12,    18.12,    17.94,    16.23
      120.0,      17.69,    18.21,    18.21,    18.03,    16.30
      121.0,      17.77,    18.29,    18.29,    18.12,    16.38
      122.0,      17.85,    18.38,    18.38,    18.20,    16.45
      123.0,      17.94,    18.47,    18.47,    18.29,    16.52
      124.0,      18.02,    18.56,    18.56,    18.37,    16.60
      125.0,      18.10,    18.64,    18.64,    18.46,    16.67
      126.0,      18.19,    18.73,    18.73,    18.55,    16.74
      127.0,      18.27,    18.82,    18.82,    18.63,    16.82
      128.0,      18.35,    18.90,    18.90,    18.72,    16.89
      129.0,      18.43,    18.99,    18.99,    18.80,    16.96
      130.0,      18.52,    19.08,    19.08,    18.88,    17.03
      131.0,      18.60,    19.16,    19.16,    18.97,    17.10
      132.0,      18.68,    19.25,    19.25,    19.05,    17.17
      133.0,      18.76,    19.33,    19.33,    19.13,    17.24
      134.0,      18.84,    19.41,    19.41,    19.22,    17.31
      135.0,      18.92,    19.50,    19.50,    19.30,    17.39
      136.0,      19.00,    19.58,    19.58,    19.38,    17.46
      137.0,      19.08,    19.67,    19.67,    19.47,    17.53
      138.0,      19.16,    19.75,    19.75,    19.55,    17.60
      139.0,      19.24,    19.83,    19.83,    19.63,    17.66
      140.0,      19.32,    19.92,    19.92,    19.71,    17.73
      141.0,      19.40,    20.00,    20.00,    19.79,    17.80
      142.0,      19.48,    20.08,    20.08,    19.87,    17.87
      143.0,      19.56,    20.16,    20.16,    19.95,    17.94
      144.0,      19.63,    20.25,    20.25,    20.04,    18.01
      145.0,      19.71,    20.33,    20.33,    20.12,    18.08
      146.0,      19.79,    20.41,    20.41,    20.20,    18.14
      147.0,      19.87,    20.49,    20.49,    20.28,    18.21
      148.0,      19.94,    20.57,    20.57,    20.36,    18.28
      149.0,      20.02,    20.65,    20.65,    20.43,    18.35
      150.0,      20.10,    20.73,    20.73,    20.51,    18.41
      151.0,      20.17,    20.81,    20.81,    20.59,    18.48
      152.0,      20.25,    20.89,    20.89,    20.67,    18.55
      153.0,      20.33,    20.97,    20.97,    20.75,    18.61
      154.0,      20.40,    21.05,    21.05,    20.83,    18.68
      155.0,      20.49,    21.13,    21.14,    20.92,    18.75
      156.0,      20.58,    21.22,    21.25,    21.02,    18.84
      157.0,      20.69,    21.33,    21.37,    21.14,    18.94
      158.0,      20.82,    21.45,    21.51,    21.27,    19.06
      159.0,      20.97,    21.60,    21.66,    21.41,    19.20
      160.0,      21.12,    21.75,    21.82,    21.56,    19.35
      161.0,      21.26,    21.91,    21.96,    21.70,    19.49
      162.0,      21.39,    22.05,    22.08,    21.81,    19.60
      163.0,      21.47,    22.15,    22.17,    21.89,    19.68
      164.0,      21.51,    22.20,    22.20,    21.93,    19.71
      165.0,      21.50,    22.20,    22.19,    21.92,    19.68
      166.0,      21.43,    22.13,    22.12,    21.87,    19.60
      167.0,      21.31,    22.00,    22.00,    21.77,    19.45
      168.0,      21.14,    21.81,    21.85,    21.64,    19.27
      169.0,      20.95,    21.58,    21.68,    21.49,    19.05
      170.0,      20.74,    21.33,    21.49,    21.33,    18.82
      171.0,      20.53,    21.07,    21.30,    21.17,    18.58
      172.0,      20.32,    20.81,    21.12,    21.01,    18.35
      173.0,      20.13,    20.57,    20.96,    20.86,    18.13
      174.0,      19.95,    20.34,    20.80,    20.73,    17.93
      175.0,      19.78,    20.14,    20.65,    20.60,    17.74
      176.0,      19.62,    19.94,    20.51,    20.47,    17.56
      177.0,      19.47,    19.75,    20.37,    20.35,    17.39
      178.0,      19.32,    19.57,    20.24,    20.24,    17.22
      179.0,      19.17,    19.40,    20.11,    20.13,    17.06
      180.0,      19.04,    19.23,    19.98,    20.02,    16.91
      181.0,      18.90,    19.07,    19.86,    19.91,    16.76
      182.0,      18.77,    18.91,    19.75,    19.81,    16.62
      183.0,      18.65,    18.76,    19.64,    19.71,    16.48
      184.0,      18.53,    18.61,    19.53,    19.62,    16.34
      185.0,      18.41,    18.47,    19.42,    19.53,    16.21
      186.0,      18.30,    18.33,    19.32,    19.44,    16.09
      187.0,      18.19,    18.20,    19.22,    19.35,    15.97
      188.0,      18.08,    18.07,    19.13,    19.27,    15.85
      189.0,      17.98,    17.95,    19.04,    19.19,    15.74
      190.0,      17.88,    17.83,    18.95,    19.11,    15.63
      191.0,      17.78,    17.71,    18.86,    19.03,    15.52
      192.0,      17.69,    17.60,    18.78,    18.96,    15.42
      193.0,      17.60,    17.49,    18.70,    18.88,    15.32
      194.0,      17.51,    17.39,    18.62,    18.81,    15.23
      195.0,      17.43,    17.29,    18.54,    18.75,    15.14
      196.0,      17.35,    17.19,    18.47,    18.68,    15.05
      197.0,      17.27,    17.09,    18.40,    18.62,    14.96
      198.0,      17.19,    17.00,    18.33,    18.55,    14.88
      199.0,      17.11,    16.91,    18.26,    18.49,    14.80
      200.0,      17.04,    16.82,    18.19,    18.43,    14.72
      201.0,      16.97,    16.74,    18.13,    18.38,    14.64
      202.0,      16.90,    16.66,    18.07,    18.32,    14.57
      203.0,      16.84,    16.58,    18.01,    18.27,    14.50
      204.0,      16.77,    16.50,    17.95,    18.21,    14.43
      205.0,      16.71,    16.42,    17.89,    18.16,    14.36
      206.0,      16.65,    16.35,    17.84,    18.11,    14.30
      207.0,      16.59,    16.28,    17.78,    18.06,    14.24
      208.0,      16.53,    16.21,    17.73,    18.02,    14.18
      209.0,      16.48,    16.14,    17.68,    17.97,    14.12
      210.0,      16.42,    16.08,    17.63,    17.92,    14.06
      211.0,      16.37,    16.01,    17.58,    17.88,    14.01
      212.0,      16.32,    15.95,    17.53,    17.84,    13.95
      213.0,      16.27,    15.89,    17.49,    17.79,    13.90
      214.0,      16.22,    15.83,    17.44,    17.75,    13.85
      215.0,      16.17,    15.78,    17.40,    17.71,    13.80
      216.0,      16.13,    15.72,    17.36,    17.67,    13.75
      217.0,      16.08,    15.67,    17.31,    17.64,    13.71
      218.0,      16.04,    15.61,    17.27,    17.60,    13.66
      219.0,      15.99,    15.56,    17.23,    17.56,    13.62
      220.0,      15.95,    15.51,    17.19,    17.52,    13.57
      221.0,      15.91,    15.46,    17.16,    17.49,    13.53
      222.0,      15.87,    15.41,    17.12,    17.45,    13.49
      223.0,      15.83,    15.37,    17.08,    17.42,    13.45
      224.0,      15.79,    15.32,    17.05,    17.39,    13.41
      225.0,      15.75,    15.28,    17.01,    17.35,    13.38
      226.0,      15.72,    15.23,    16.98,    17.32,    13.34
      227.0,      15.68,    15.19,    16.94,    17.29,    13.30
      228.0,      15.65,    15.15,    16.91,    17.26,    13.27
      229.0,      15.61,    15.11,    16.88,    17.23,    13.24
      230.0,      15.58,    15.07,    16.85,    17.20,    13.20
      231.0,      15.55,    15.03,    16.82,    17.17,    13.17
      232.0,      15.51,    14.99,    16.79,    17.14,    13.14
      233.0,      15.48,    14.95,    16.76,    17.11,    13.11
      234.0,      15.45,    14.91,    16.73,    17.09,    13.08
      235.0,      15.42,    14.87,    16.70,    17.06,    13.05
      236.0,      15.39,    14.84,    16.67,    17.03,    13.02
      237.0,      15.36,    14.80,    16.64,    17.01,    12.99
      238.0,      15.33,    14.77,    16.62,    16.98,    12.96
      239.0,      15.30,    14.73,    16.59,    16.95,    12.94
      240.0,      15.28,    14.70,    16.56,    16.93,    12.91
      241.0,      15.25,    14.67,    16.54,    16.90,    12.89
      242.0,      15.22,    14.63,    16.51,    16.88,    12.86
      243.0,      15.19,    14.60,    16.48,    16.85,    12.84
      244.0,      15.17,    14.57,    16.46,    16.83,    12.81
      245.0,      15.14,    14.54,    16.44,    16.81,    12.79
      246.0,      15.12,    14.51,    16.41,    16.78,    12.76
      247.0,      15.09,    14.48,    16.39,    16.76,    12.74
      248.0,      15.07,    14.45,    16.36,    16.74,    12.72
      249.0,      15.04,    14.42,    16.34,    16.71,    12.70
      250.0,      15.02,    14.39,    16.32,    16.69,    12.67
      251.0,      14.99,    14.36,    16.29,    16.67,    12.65
      252.0,      14.97,    14.33,    16.27,    16.65,    12.63
      253.0,      14.95,    14.31,    16.25,    16.62,    12.61
      254.0,      14.92,    14.28,    16.23,    16.60,    12.59
      255.0,      14.90,    14.25,    16.21,    16.58,    12.57
      256.0,      14.88,    14.22,    16.18,    16.56,    12.55
      257.0,      14.86,    14.20,    16.16,    16.54,    12.53
      258.0,      14.84,    14.17,    16.14,    16.52,    12.51
      259.0,      14.81,    14.15,    16.12,    16.50,    12.49
      260.0,      14.79,    14.12,    16.10,    16.48,    12.47
      261.0,      14.77,    14.09,    16.08,    16.46,    12.46
      262.0,      14.75,    14.07,    16.06,    16.44,    12.44
      263.0,      14.73,    14.04,    16.04,    16.42,    12.42
      264.0,      14.71,    14.02,    16.02,    16.40,    12.40
      265.0,      14.69,    13.99,    16.00,    16.38,    12.38
      266.0,      14.67,    13.97,    15.98,    16.36,    12.37
      267.0,      14.65,    13.95,    15.96,    16.34,    12.35
      268.0,      14.63,    13.92,    15.94,    16.32,    12.33
      269.0,      14.61,    13.90,    15.92,    16.30,    12.32
      270.0,      14.59,    13.87,    15.90,    16.28,    12.30
      271.0,      14.57,    13.85,    15.88,    16.26,    12.28
      272.0,      14.55,    13.83,    15.87,    16.24,    12.27
      273.0,      14.53,    13.81,    15.85,    16.23,    12.25
      274.0,      14.51,    13.78,    15.83,    16.21,    12.24
      275.0,      14.49,    13.76,    15.81,    16.19,    12.22
      276.0,      14.48,    13.74,    15.79,    16.17,    12.20
      277.0,      14.46,    13.72,    15.77,    16.15,    12.19
      278.0,      14.44,    13.69,    15.76,    16.13,    12.17
      279.0,      14.42,    13.67,    15.74,    16.12,    12.16
      280.0,      14.40,    13.65,    15.72,    16.10,    12.14
      281.0,      14.38,    13.63,    15.70,    16.08,    12.13
      282.0,      14.37,    13.61,    15.69,    16.06,    12.11
      283.0,      14.35,    13.58,    15.67,    16.05,    12.10
      284.0,      14.33,    13.56,    15.65,    16.03,    12.08
      285.0,      14.31,    13.54,    15.63,    16.01,    12.07
      286.0,      14.30,    13.52,    15.62,    15.99,    12.06
      287.0,      14.28,    13.50,    15.60,    15.98,    12.04
      288.0,      14.26,    13.48,    15.58,    15.96,    12.03
      289.0,      14.24,    13.46,    15.56,    15.94,    12.01
      290.0,      14.23,    13.44,    15.55,    15.92,    12.00
      291.0,      14.21,    13.42,    15.53,    15.91,    11.99
      292.0,      14.19,    13.39,    15.51,    15.89,    11.97
      293.0,      14.18,    13.37,    15.50,    15.87,    11.96
      294.0,      14.16,    13.35,    15.48,    15.86,    11.94
      295.0,      14.14,    13.33,    15.46,    15.84,    11.93
      296.0,      14.12,    13.31,    15.45,    15.82,    11.92
      297.0,      14.11,    13.29,    15.43,    15.81,    11.90
      298.0,      14.09,    13.27,    15.41,    15.79,    11.89
      299.0,      14.07,    13.25,    15.40,    15.77,    11.88
      300.0,      14.06,    13.23,    15.38,    15.76,    11.86
      301.0,      14.04,    13.21,    15.37,    15.74,    11.85
      302.0,      14.03,    13.19,    15.35,    15.72,    11.84
      303.0,      14.01,    13.17,    15.33,    15.71,    11.82
      304.0,      13.99,    13.15,    15.32,    15.69,    11.81
      305.0,      13.98,    13.13,    15.30,    15.67,    11.80
      306.0,      13.96,    13.11,    15.28,    15.66,    11.79
      307.0,      13.94,    13.10,    15.27,    15.64,    11.77
      308.0,      13.93,    13.08,    15.25,    15.62,    11.76
      309.0,      13.91,    13.06,    15.24,    15.61,    11.75
      310.0,      13.90,    13.04,    15.22,    15.59,    11.73
