Radius (km), Mean (m/s), NE (m/s), SE (m/s), SW (m/s), NW (m/s)
        0.0,       0.00,     0.00,     0.00,     0.00,     0.00
        1.0,       1.13,     1.11,     1.11,     1.11,     1.18
        2.0,       1.68,     1.67,     1.67,     1.67,     1.73
        3.0,       2.13,     2.11,     2.11,     2.11,     2.16
        4.0,       2.51,     2.50,     2.50,     2.50,     2.53
        5.0,       2.85,     2.85,     2.85,     2.85,     2.86
        6.0,       3.16,     3.16,     3.16,     3.16,     3.16
        7.0,       3.46,     3.46,     3.46,     3.46,     3.44
        8.0,       3.73,     3.74,     3.74,     3.74,     3.70
        9.0,       3.99,     4.01,     4.01,     4.01,     3.95
       10.0,       4.24,     4.26,     4.26,     4.26,     4.18
       11.0,       4.48,     4.50,     4.50,     4.50,     4.41
       12.0,       4.71,     4.74,     4.74,     4.74,     4.62
       13.0,       4.93,     4.96,     4.96,     4.96,     4.83
       14.0,       5.15,     5.18,     5.18,     5.18,     5.03
       15.0,       5.35,     5.40,     5.40,     5.40,     5.23
       16.0,       5.56,     5.60,     5.60,     5.60,     5.41
       17.0,       5.75,     5.80,     5.80,     5.80,     5.60
       18.0,       5.94,     6.00,     6.00,     6.00,     5.77
       19.0,       6.13,     6.19,     6.19,     6.19,     5.95
       20.0,       6.32,     6.38,     6.38,     6.38,     6.12
       21.0,       6.49,     6.56,     6.56,     6.56,     6.28
       22.0,       6.67,     6.75,     6.75,     6.75,     6.45
       23.0,       6.84,     6.92,     6.92,     6.92,     6.61
       24.0,       7.01,     7.10,     7.10,     7.10,     6.76
       25.0,       7.18,     7.27,     7.27,     7.27,     6.91
       26.0,       7.34,     7.43,     7.43,     7.43,     7.06
       27.0,       7.50,     7.60,     7.60,     7.60,     7.21
       28.0,       7.66,     7.76,     7.76,     7.76,     7.36
       29.0,       7.82,     7.92,     7.92,     7.92,     7.50
       30.0,       7.97,     8.08,     8.08,     8.08,     7.64
       31.0,       8.12,     8.24,     8.24,     8.24,     7.78
       32.0,       8.27,     8.39,     8.39,     8.39,     7.92
       33.0,       8.42,     8.54,     8.54,     8.54,     8.05
       34.0,       8.57,     8.69,     8.69,     8.69,     8.18
       35.0,       8.71,     8.84,     8.84,     8.84,     8.32
       36.0,       8.85,     8.99,     8.99,     8.99,     8.45
       37.0,       8.99,     9.13,     9.13,     9.13,     8.57
       38.0,       9.13,     9.27,     9.27,     9.27,     8.70
       39.0,       9.27,     9.42,     9.42,     9.42,     8.82
       40.0,       9.40,     9.56,     9.56,     9.56,     8.95
       41.0,       9.54,     9.69,     9.69,     9.69,     9.07
       42.0,       9.67,     9.83,     9.83,     9.83,     9.19
       43.0,       9.80,     9.97,     9.97,     9.97,     9.31
       44.0,       9.93,    10.10,    10.10,    10.10,     9.43
       45.0,      10.06,    10.23,    10.23,    10.23,     9.54
       46.0,      10.19,    10.37,    10.37,    10.37,     9.66
       47.0,      10.32,    10.50,    10.50,    10.50,     9.77
       48.0,      10.44,    10.63,    10.63,    10.63,     9.89
       49.0,      10.57,    10.75,    10.75,    10.75,    10.00
       50.0,      10.69,    10.88,    10.88,    10.88,    10.11
       51.0,      10.81,    11.01,    11.01,    11.01,    10.22
       52.0,      10.93,    11.13,    11.13,    11.13,    10.33
       53.0,      11.05,    11.26,    11.26,    11.26,    10.44
       54.0,      11.17,    11.38,    11.38,    11.38,    10.55
       55.0,      11.29,    11.50,    11.50,    11.50,    10.65
       56.0,      11.41,    11.62,    11.62,    11.62,    10.76
       57.0,      11.52,    11.74,    11.74,    11.74,    10.87
       58.0,      11.64,    11.86,    11.86,    11.86,    10.97
       59.0,      11.76,    11.98,    11.98,    11.98,    11.07
       60.0,      11.87,    12.10,    12.10,    12.10,    11.17
       61.0,      11.98,    12.22,    12.22,    12.22,    11.28
       62.0,      12.09,    12.33,    12.33,    12.33,    11.38
       63.0,      12.21,    12.45,    12.45,    12.45,    11.48
       64.0,      12.32,    12.56,    12.56,    12.56,    11.58
       65.0,      12.43,    12.68,    12.68,    12.68,    11.68
       66.0,      12.54,    12.79,    12.79,    12.79,    11.77
       67.0,      12.65,    12.90,    12.90,    12.90,    11.87
       68.0,      12.75,    13.02,    13.02,    13.02,    11.97
       69.0,      12.86,    13.13,    13.13,    13.13,    12.07
       70.0,      12.97,    13.24,    13.24,    13.24,    12.16
       71.0,      13.07,    13.35,    13.35,    13.35,    12.26
       72.0,      13.18,    13.46,    13.46,    13.46,    12.35
       73.0,      13.28,    13.57,    13.57,    13.57,    12.44
       74.0,      13.39,    13.67,    13.67,    13.67,    12.54
       75.0,      13.49,    13.78,    13.78,    13.78,    12.63
       76.0,      13.60,    13.89,    13.89,    13.89,    12.72
       77.0,      13.70,    13.99,    13.99,    13.99,    12.81
       78.0,      13.80,    14.10,    14.10,    14.10,    12.90
       79.0,      13.90,    14.20,    14.20,    14.20,    12.99
       80.0,      14.00,    14.31,    14.31,    14.31,    13.08
       81.0,      14.10,    14.41,    14.41,    14.41,    13.17
       82.0,      14.20,    14.52,    14.52,    14.52,    13.26
       83.0,      14.30,    14.62,    14.62,    14.62,    13.35
       84.0,      14.40,    14.72,    14.72,    14.72,    13.44
       85.0,      14.50,    14.82,    14.82,    14.82,    13.53
       86.0,      14.60,    14.92,    14.92,    14.92,    13.61
       87.0,      14.69,    15.02,    15.02,    15.02,    13.70
       88.0,      14.79,    15.13,    15.13,    15.13,    13.79
       89.0,      14.89,    15.23,    15.23,    15.23,    13.87
       90.0,      14.98,    15.32,    15.32,    15.32,    13.96
       91.0,      15.08,    15.42,    15.42,    15.42,    14.04
       92.0,      15.17,    15.52,    15.52,    15.52,    14.13
       93.0,      15.27,    15.62,    15.62,    15.62,    14.21
       94.0,      15.36,    15.72,    15.72,    15.72,    14.29
       95.0,      15.46,    15.81,    15.81,    15.81,    14.38
       96.0,      15.55,    15.91,    15.91,    15.91,    14.46
       97.0,      15.64,    16.01,    16.01,    16.01,    14.54
       98.0,      15.73,    16.10,    16.10,    16.10,    14.62
       99.0,      15.83,    16.20,    16.20,    16.20,    14.71
      100.0,      15.92,    16.29,    16.29,    16.29,    14.79
      101.0,      16.01,    16.39,    16.39,    16.39,    14.87
      102.0,      16.10,    16.48,    16.48,    16.48,    14.95
      103.0,      16.19,    16.58,    16.58,    16.58,    15.03
      104.0,      16.28,    16.67,    16.67,    16.67,    15.11
      105.0,      16.37,    16.76,    16.76,    16.76,    15.19
      106.0,      16.46,    16.86,    16.86,    16.86,    15.27
      107.0,      16.55,    16.95,    16.95,    16.95,    15.35
      108.0,      16.64,    17.04,    17.04,    17.04,    15.42
      109.0,      16.73,    17.13,    17.13,    17.13,    15.50
      110.0,      16.81,    17.22,    17.22,    17.22,    15.58
      111.0,      16.90,    17.32,    17.32,    17.32,    15.66
      112.0,      16.99,    17.41,    17.41,    17.41,    15.74
      113.0,      17.08,    17.50,    17.50,    17.50,    15.81
      114.0,      17.16,    17.59,    17.59,    17.59,    15.89
      115.0,      17.25,    17.68,    17.68,    17.68,    15.97
      116.0,      17.33,    17.77,    17.77,    17.77,    16.04
      117.0,      17.42,    17.86,    17.86,    17.86,    16.12
      118.0,      17.51,    17.94,    17.94,    17.94,    16.19
      119.0,      17.59,    18.03,    18.03,    18.03,    16.27
      120.0,      17.68,    18.12,    18.12,    18.12,    16.34
      121.0,      17.76,    18.21,    18.21,    18.21,    16.42
      122.0,      17.84,    18.30,    18.30,    18.30,    16.49
      123.0,      17.93,    18.38,    18.38,    18.38,    16.56
      124.0,      18.01,    18.47,    18.47,    18.47,    16.64
      125.0,      18.10,    18.56,    18.56,    18.56,    16.71
      126.0,      18.18,    18.64,    18.64,    18.64,    16.79
      127.0,      18.26,    18.73,    18.73,    18.73,    16.86
      128.0,      18.34,    18.81,    18.81,    18.81,    16.93
      129.0,      18.43,    18.90,    18.90,    18.90,    17.00
      130.0,      18.51,    18.99,    18.99,    18.99,    17.08
      131.0,      18.59,    19.07,    19.07,    19.07,    17.15
      132.0,      18.67,    19.15,    19.15,    19.15,    17.22
      133.0,      18.75,    19.24,    19.24,    19.24,    17.29
      134.0,      18.83,    19.32,    19.32,    19.32,    17.36
      135.0,      18.91,    19.41,    19.41,    19.41,    17.43
      136.0,      18.99,    19.49,    19.49,    19.49,    17.50
      137.0,      19.07,    19.57,    19.57,    19.57,    17.57
      138.0,      19.15,    19.66,    19.66,    19.66,    17.64
      139.0,      19.23,    19.74,    19.74,    19.74,    17.71
      140.0,      19.31,    19.82,    19.82,    19.82,    17.78
      141.0,      19.39,    19.91,    19.91,    19.91,    17.85
      142.0,      19.47,    19.99,    19.99,    19.99,    17.92
      143.0,      19.55,    20.07,    20.07,    20.07,    17.99
      144.0,      19.63,    20.15,    20.15,    20.15,    18.06
      145.0,      19.71,    20.23,    20.23,    20.23,    18.13
      146.0,      19.78,    20.31,    20.31,    20.31,    18.20
      147.0,      19.86,    20.39,    20.39,    20.39,    18.27
      148.0,      19.94,    20.47,    20.47,    20.47,    18.33
      149.0,      20.02,    20.56,    20.56,    20.56,    18.40
      150.0,      20.09,    20.64,    20.64,    20.64,    18.47
      151.0,      20.17,    20.72,    20.72,    20.72,    18.54
      152.0,      20.25,    20.80,    20.80,    20.80,    18.60
      153.0,      20.32,    20.88,    20.88,    20.88,    18.67
      154.0,      20.40,    20.96,    20.96,    20.96,    18.74
      155.0,      20.49,    21.05,    21.05,    21.05,    18.81
      156.0,      20.59,    21.15,    21.15,    21.15,    18.90
      157.0,      20.70,    21.27,    21.26,    21.27,    19.00
      158.0,      20.83,    21.42,    21.39,    21.40,    19.12
      159.0,      20.98,    21.59,    21.52,    21.54,    19.25
      160.0,      21.12,    21.76,    21.66,    21.69,    19.38
      161.0,      21.26,    21.92,    21.79,    21.83,    19.51
      162.0,      21.38,    22.05,    21.89,    21.94,    19.62
      163.0,      21.46,    22.14,    21.97,    22.02,    19.69
      164.0,      21.49,    22.17,    22.02,    22.06,    19.72
      165.0,      21.48,    22.14,    22.02,    22.05,    19.70
      166.0,      21.42,    22.04,    21.99,    22.00,    19.64
      167.0,      21.31,    21.89,    21.92,    21.91,    19.53
      168.0,      21.17,    21.69,    21.82,    21.79,    19.39
      169.0,      21.01,    21.46,    21.71,    21.64,    19.22
      170.0,      20.83,    21.21,    21.59,    21.49,    19.04
      171.0,      20.66,    20.96,    21.47,    21.34,    18.86
      172.0,      20.49,    20.73,    21.36,    21.19,    18.69
      173.0,      20.33,    20.50,    21.25,    21.05,    18.52
      174.0,      20.18,    20.29,    21.15,    20.92,    18.37
      175.0,      20.05,    20.10,    21.05,    20.80,    18.23
      176.0,      19.91,    19.91,    20.96,    20.68,    18.09
      177.0,      19.79,    19.73,    20.87,    20.57,    17.96
      178.0,      19.66,    19.56,    20.79,    20.46,    17.84
      179.0,      19.54,    19.39,    20.70,    20.36,    17.72
      180.0,      19.43,    19.23,    20.62,    20.25,    17.60
      181.0,      19.32,    19.08,    20.54,    20.16,    17.48
      182.0,      19.21,    18.93,    20.47,    20.06,    17.37
      183.0,      19.10,    18.78,    20.40,    19.97,    17.27
      184.0,      19.00,    18.64,    20.32,    19.88,    17.17
      185.0,      18.91,    18.51,    20.25,    19.79,    17.07
      186.0,      18.81,    18.38,    20.19,    19.71,    16.97
      187.0,      18.72,    18.25,    20.12,    19.63,    16.88
      188.0,      18.63,    18.13,    20.06,    19.55,    16.79
      189.0,      18.55,    18.02,    20.00,    19.47,    16.70
      190.0,      18.46,    17.90,    19.94,    19.40,    16.62
      191.0,      18.38,    17.80,    19.88,    19.33,    16.54
      192.0,      18.31,    17.69,    19.82,    19.26,    16.46
      193.0,      18.23,    17.59,    19.76,    19.19,    16.38
      194.0,      18.16,    17.49,    19.71,    19.12,    16.31
      195.0,      18.09,    17.39,    19.66,    19.06,    16.24
      196.0,      18.02,    17.30,    19.61,    19.00,    16.17
      197.0,      17.95,    17.21,    19.56,    18.94,    16.10
      198.0,      17.89,    17.13,    19.51,    18.88,    16.04
      199.0,      17.83,    17.04,    19.46,    18.82,    15.98
      200.0,      17.76,    16.96,    19.41,    18.76,    15.92
      201.0,      17.71,    16.89,    19.37,    18.71,    15.86
      202.0,      17.65,    16.81,    19.32,    18.66,    15.80
      203.0,      17.59,    16.74,    19.28,    18.61,    15.74
      204.0,      17.54,    16.67,    19.24,    18.56,    15.69
      205.0,      17.48,    16.60,    19.20,    18.51,    15.64
      206.0,      17.43,    16.53,    19.16,    18.46,    15.59
      207.0,      17.38,    16.47,    19.12,    18.41,    15.54
      208.0,      17.34,    16.40,    19.08,    18.37,    15.49
      209.0,      17.29,    16.34,    19.04,    18.33,    15.44
      210.0,      17.24,    16.29,    19.00,    18.28,    15.40
      211.0,      17.20,    16.23,    18.97,    18.24,    15.35
      212.0,      17.15,    16.17,    18.93,    18.20,    15.31
      213.0,      17.11,    16.12,    18.90,    18.16,    15.27
      214.0,      17.07,    16.07,    18.86,    18.12,    15.23
      215.0,      17.03,    16.02,    18.83,    18.08,    15.19
      216.0,      16.99,    15.97,    18.79,    18.05,    15.15
      217.0,      16.95,    15.92,    18.76,    18.01,    15.11
      218.0,      16.91,    15.87,    18.73,    17.97,    15.07
      219.0,      16.87,    15.83,    18.70,    17.94,    15.04
      220.0,      16.84,    15.78,    18.67,    17.90,    15.00
      221.0,      16.80,    15.74,    18.64,    17.87,    14.97
      222.0,      16.77,    15.70,    18.61,    17.84,    14.93
      223.0,      16.73,    15.65,    18.58,    17.80,    14.90
      224.0,      16.70,    15.61,    18.55,    17.77,    14.87
      225.0,      16.67,    15.58,    18.52,    17.74,    14.84
      226.0,      16.64,    15.54,    18.49,    17.71,    14.81
      227.0,      16.61,    15.50,    18.47,    17.68,    14.78
      228.0,      16.57,    15.46,    18.44,    17.65,    14.75
      229.0,      16.54,    15.43,    18.41,    17.62,    14.72
      230.0,      16.52,    15.39,    18.38,    17.59,    14.69
      231.0,      16.49,    15.36,    18.36,    17.56,    14.66
      232.0,      16.46,    15.33,    18.33,    17.54,    14.63
      233.0,      16.43,    15.30,    18.31,    17.51,    14.61
      234.0,      16.40,    15.26,    18.28,    17.48,    14.58
      235.0,      16.38,    15.23,    18.26,    17.46,    14.56
      236.0,      16.35,    15.20,    18.23,    17.43,    14.53
      237.0,      16.32,    15.17,    18.21,    17.40,    14.51
      238.0,      16.30,    15.14,    18.18,    17.38,    14.48
      239.0,      16.27,    15.12,    18.16,    17.35,    14.46
      240.0,      16.25,    15.09,    18.14,    17.33,    14.43
      241.0,      16.22,    15.06,    18.11,    17.30,    14.41
      242.0,      16.20,    15.03,    18.09,    17.28,    14.39
      243.0,      16.17,    15.01,    18.07,    17.26,    14.37
      244.0,      16.15,    14.98,    18.04,    17.23,    14.34
      245.0,      16.13,    14.96,    18.02,    17.21,    14.32
      246.0,      16.10,    14.93,    18.00,    17.19,    14.30
      247.0,      16.08,    14.91,    17.98,    17.16,    14.28
      248.0,      16.06,    14.88,    17.96,    17.14,    14.26
      249.0,      16.04,    14.86,    17.93,    17.12,    14.24
      250.0,      16.02,    14.83,    17.91,    17.10,    14.22
      251.0,      15.99,    14.81,    17.89,    17.08,    14.20
      252.0,      15.97,    14.79,    17.87,    17.05,    14.18
      253.0,      15.95,    14.77,    17.85,    17.03,    14.16
      254.0,      15.93,    14.74,    17.83,    17.01,    14.14
      255.0,      15.91,    14.72,    17.81,    16.99,    14.12
      256.0,      15.89,    14.70,    17.79,    16.97,    14.10
      257.0,      15.87,    14.68,    17.77,    16.95,    14.08
      258.0,      15.85,    14.66,    17.75,    16.93,    14.06
      259.0,      15.83,    14.64,    17.72,    16.91,    14.05
      260.0,      15.81,    14.62,    17.70,    16.89,    14.03
      261.0,      15.79,    14.60,    17.68,    16.87,    14.01
      262.0,      15.77,    14.58,    17.66,    16.85,    13.99
      263.0,      15.75,    14.56,    17.64,    16.83,    13.97
      264.0,      15.73,    14.54,    17.63,    16.81,    13.96
      265.0,      15.71,    14.52,    17.61,    16.79,    13.94
      266.0,      15.69,    14.50,    17.59,    16.77,    13.92
      267.0,      15.68,    14.48,    17.57,    16.75,    13.91
      268.0,      15.66,    14.46,    17.55,    16.73,    13.89
      269.0,      15.64,    14.44,    17.53,    16.71,    13.87
      270.0,      15.62,    14.43,    17.51,    16.69,    13.86
      271.0,      15.60,    14.41,    17.49,    16.67,    13.84
      272.0,      15.58,    14.39,    17.47,    16.65,    13.82
      273.0,      15.57,    14.37,    17.45,    16.64,    13.81
      274.0,      15.55,    14.35,    17.43,    16.62,    13.79
      275.0,      15.53,    14.34,    17.41,    16.60,    13.77
      276.0,      15.51,    14.32,    17.40,    16.58,    13.76
      277.0,      15.50,    14.30,    17.38,    16.56,    13.74
      278.0,      15.48,    14.28,    17.36,    16.54,    13.73
      279.0,      15.46,    14.27,    17.34,    16.53,    13.71
      280.0,      15.44,    14.25,    17.32,    16.51,    13.70
      281.0,      15.43,    14.23,    17.30,    16.49,    13.68
      282.0,      15.41,    14.22,    17.28,    16.47,    13.66
      283.0,      15.39,    14.20,    17.27,    16.45,    13.65
      284.0,      15.38,    14.18,    17.25,    16.44,    13.63
      285.0,      15.36,    14.17,    17.23,    16.42,    13.62
      286.0,      15.34,    14.15,    17.21,    16.40,    13.60
      287.0,      15.33,    14.14,    17.19,    16.38,    13.59
      288.0,      15.31,    14.12,    17.18,    16.37,    13.57
      289.0,      15.29,    14.10,    17.16,    16.35,    13.56
      290.0,      15.28,    14.09,    17.14,    16.33,    13.54
      291.0,      15.26,    14.07,    17.12,    16.31,    13.53
      292.0,      15.24,    14.06,    17.10,    16.30,    13.52
      293.0,      15.23,    14.04,    17.09,    16.28,    13.50
      294.0,      15.21,    14.03,    17.07,    16.26,    13.49
      295.0,      15.19,    14.01,    17.05,    16.25,    13.47
      296.0,      15.18,    14.00,    17.03,    16.23,    13.46
      297.0,      15.16,    13.98,    17.02,    16.21,    13.44
      298.0,      15.15,    13.96,    17.00,    16.20,    13.43
      299.0,      15.13,    13.95,    16.98,    16.18,    13.41
      300.0,      15.11,    13.93,    16.96,    16.16,    13.40
      301.0,      15.10,    13.92,    16.95,    16.14,    13.39
      302.0,      15.08,    13.90,    16.93,    16.13,    13.37
      303.0,      15.07,    13.89,    16.91,    16.11,    13.36
      304.0,      15.05,    13.87,    16.89,    16.09,    13.34
      305.0,      15.04,    13.86,    16.88,    16.08,    13.33
      306.0,      15.02,    13.84,    16.86,    16.06,    13.32
      307.0,      15.00,    13.83,    16.84,    16.04,    13.30
      308.0,      14.99,    13.82,    16.83,    16.03,    13.29
      309.0,      14.97,    13.80,    16.81,    16.01,    13.27
      310.0,      14.96,    13.79,    16.79,    16.00,    13.26
