Radius (km), Mean (m/s), NE (m/s), SE (m/s), SW (m/s), NW (m/s)
        0.0,       0.00,     0.00,     0.00,     0.00,     0.00
        1.0,       1.14,     1.12,     1.12,     1.13,     1.20
        2.0,       1.70,     1.68,     1.68,     1.68,     1.75
        3.0,       2.14,     2.13,     2.13,     2.13,     2.18
        4.0,       2.52,     2.51,     2.51,     2.52,     2.55
        5.0,       2.87,     2.86,     2.86,     2.86,     2.88
        6.0,       3.18,     3.18,     3.18,     3.18,     3.18
        7.0,       3.48,     3.48,     3.48,     3.48,     3.46
        8.0,       3.75,     3.76,     3.76,     3.76,     3.72
        9.0,       4.01,     4.03,     4.03,     4.03,     3.97
       10.0,       4.26,     4.28,     4.28,     4.28,     4.20
       11.0,       4.50,     4.53,     4.53,     4.52,     4.43
       12.0,       4.73,     4.76,     4.76,     4.76,     4.64
       13.0,       4.95,     4.99,     4.99,     4.98,     4.85
       14.0,       5.17,     5.21,     5.21,     5.20,     5.05
       15.0,       5.38,     5.42,     5.42,     5.41,     5.24
       16.0,       5.58,     5.63,     5.63,     5.62,     5.43
       17.0,       5.78,     5.83,     5.83,     5.82,     5.62
       18.0,       5.97,     6.03,     6.03,     6.02,     5.79
       19.0,       6.16,     6.22,     6.22,     6.21,     5.97
       20.0,       6.34,     6.41,     6.41,     6.40,     6.14
       21.0,       6.52,     6.60,     6.60,     6.58,     6.30
       22.0,       6.69,     6.78,     6.78,     6.76,     6.46
       23.0,       6.87,     6.95,     6.95,     6.94,     6.62
       24.0,       7.04,     7.13,     7.13,     7.11,     6.78
       25.0,       7.20,     7.30,     7.30,     7.28,     6.93
       26.0,       7.37,     7.47,     7.47,     7.45,     7.08
       27.0,       7.53,     7.63,     7.63,     7.61,     7.23
       28.0,       7.69,     7.80,     7.80,     7.77,     7.37
       29.0,       7.84,     7.96,     7.96,     7.93,     7.52
       30.0,       7.99,     8.12,     8.12,     8.09,     7.66
       31.0,       8.15,     8.27,     8.27,     8.25,     7.80
       32.0,       8.30,     8.43,     8.43,     8.40,     7.93
       33.0,       8.44,     8.58,     8.58,     8.55,     8.07
       34.0,       8.59,     8.73,     8.73,     8.70,     8.20
       35.0,       8.73,     8.88,     8.88,     8.85,     8.33
       36.0,       8.87,     9.02,     9.02,     8.99,     8.46
       37.0,       9.01,     9.17,     9.17,     9.14,     8.59
       38.0,       9.15,     9.31,     9.31,     9.28,     8.71
       39.0,       9.29,     9.45,     9.45,     9.42,     8.84
       40.0,       9.43,     9.59,     9.59,     9.56,     8.96
       41.0,       9.56,     9.73,     9.73,     9.70,     9.08
       42.0,       9.69,     9.87,     9.87,     9.83,     9.20
       43.0,       9.83,    10.01,    10.01,     9.97,     9.32
       44.0,       9.96,    10.14,    10.14,    10.10,     9.44
       45.0,      10.08,    10.27,    10.27,    10.23,     9.55
       46.0,      10.21,    10.41,    10.41,    10.37,     9.67
       47.0,      10.34,    10.54,    10.54,    10.50,     9.78
       48.0,      10.46,    10.67,    10.67,    10.62,     9.90
       49.0,      10.59,    10.80,    10.80,    10.75,    10.01
       50.0,      10.71,    10.92,    10.92,    10.88,    10.12
       51.0,      10.83,    11.05,    11.05,    11.00,    10.23
       52.0,      10.95,    11.18,    11.18,    11.13,    10.34
       53.0,      11.07,    11.30,    11.30,    11.25,    10.45
       54.0,      11.19,    11.42,    11.42,    11.37,    10.55
       55.0,      11.31,    11.55,    11.55,    11.50,    10.66
       56.0,      11.43,    11.67,    11.67,    11.62,    10.77
       57.0,      11.55,    11.79,    11.79,    11.74,    10.87
       58.0,      11.66,    11.91,    11.91,    11.86,    10.97
       59.0,      11.78,    12.03,    12.03,    11.97,    11.08
       60.0,      11.89,    12.15,    12.15,    12.09,    11.18
       61.0,      12.00,    12.26,    12.26,    12.21,    11.28
       62.0,      12.12,    12.38,    12.38,    12.32,    11.38
       63.0,      12.23,    12.50,    12.50,    12.44,    11.48
       64.0,      12.34,    12.61,    12.61,    12.55,    11.58
       65.0,      12.45,    12.72,    12.72,    12.67,    11.68
       66.0,      12.56,    12.84,    12.84,    12.78,    11.78
       67.0,      12.67,    12.95,    12.95,    12.89,    11.87
       68.0,      12.77,    13.06,    13.06,    13.00,    11.97
       69.0,      12.88,    13.17,    13.17,    13.11,    12.07
       70.0,      12.99,    13.28,    13.28,    13.22,    12.16
       71.0,      13.09,    13.39,    13.39,    13.33,    12.26
       72.0,      13.20,    13.50,    13.50,    13.44,    12.35
       73.0,      13.30,    13.61,    13.61,    13.55,    12.44
       74.0,      13.41,    13.72,    13.72,    13.65,    12.54
       75.0,      13.51,    13.83,    13.83,    13.76,    12.63
       76.0,      13.61,    13.94,    13.94,    13.87,    12.72
       77.0,      13.72,    14.04,    14.04,    13.97,    12.81
       78.0,      13.82,    14.15,    14.15,    14.08,    12.90
       79.0,      13.92,    14.25,    14.25,    14.18,    12.99
       80.0,      14.02,    14.36,    14.36,    14.28,    13.08
       81.0,      14.12,    14.46,    14.46,    14.39,    13.17
       82.0,      14.22,    14.57,    14.57,    14.49,    13.26
       83.0,      14.32,    14.67,    14.67,    14.59,    13.35
       84.0,      14.42,    14.77,    14.77,    14.69,    13.43
       85.0,      14.52,    14.87,    14.87,    14.80,    13.52
       86.0,      14.61,    14.97,    14.97,    14.90,    13.61
       87.0,      14.71,    15.08,    15.08,    15.00,    13.69
       88.0,      14.81,    15.18,    15.18,    15.10,    13.78
       89.0,      14.90,    15.28,    15.28,    15.20,    13.86
       90.0,      15.00,    15.38,    15.38,    15.29,    13.95
       91.0,      15.09,    15.48,    15.48,    15.39,    14.03
       92.0,      15.19,    15.57,    15.57,    15.49,    14.12
       93.0,      15.28,    15.67,    15.67,    15.59,    14.20
       94.0,      15.38,    15.77,    15.77,    15.68,    14.28
       95.0,      15.47,    15.87,    15.87,    15.78,    14.37
       96.0,      15.56,    15.96,    15.96,    15.88,    14.45
       97.0,      15.66,    16.06,    16.06,    15.97,    14.53
       98.0,      15.75,    16.16,    16.16,    16.07,    14.61
       99.0,      15.84,    16.25,    16.25,    16.16,    14.69
      100.0,      15.93,    16.35,    16.35,    16.26,    14.78
      101.0,      16.02,    16.44,    16.44,    16.35,    14.86
      102.0,      16.11,    16.54,    16.54,    16.44,    14.94
      103.0,      16.20,    16.63,    16.63,    16.54,    15.02
      104.0,      16.29,    16.72,    16.72,    16.63,    15.10
      105.0,      16.38,    16.82,    16.82,    16.72,    15.17
      106.0,      16.47,    16.91,    16.91,    16.82,    15.25
      107.0,      16.56,    17.00,    17.00,    16.91,    15.33
      108.0,      16.65,    17.10,    17.10,    17.00,    15.41
      109.0,      16.74,    17.19,    17.19,    17.09,    15.49
      110.0,      16.83,    17.28,    17.28,    17.18,    15.56
      111.0,      16.91,    17.37,    17.37,    17.27,    15.64
      112.0,      17.00,    17.46,    17.46,    17.36,    15.72
      113.0,      17.09,    17.55,    17.55,    17.45,    15.80
      114.0,      17.17,    17.64,    17.64,    17.54,    15.87
      115.0,      17.26,    17.73,    17.73,    17.63,    15.95
      116.0,      17.35,    17.82,    17.82,    17.72,    16.02
      117.0,      17.43,    17.91,    17.91,    17.81,    16.10
      118.0,      17.52,    18.00,    18.00,    17.89,    16.17
      119.0,      17.60,    18.09,    18.09,    17.98,    16.25
      120.0,      17.69,    18.18,    18.18,    18.07,    16.32
      121.0,      17.77,    18.26,    18.26,    18.16,    16.40
      122.0,      17.85,    18.35,    18.35,    18.24,    16.47
      123.0,      17.94,    18.44,    18.44,    18.33,    16.54
      124.0,      18.02,    18.53,    18.53,    18.42,    16.62
      125.0,      18.10,    18.61,    18.61,    18.50,    16.69
      126.0,      18.19,    18.70,    18.70,    18.59,    16.76
      127.0,      18.27,    18.79,    18.79,    18.67,    16.84
      128.0,      18.35,    18.87,    18.87,    18.76,    16.91
      129.0,      18.43,    18.96,    18.96,    18.84,    16.98
      130.0,      18.52,    19.04,    19.04,    18.93,    17.05
      131.0,      18.60,    19.13,    19.13,    19.01,    17.12
      132.0,      18.68,    19.21,    19.21,    19.09,    17.19
      133.0,      18.76,    19.30,    19.30,    19.18,    17.26
      134.0,      18.84,    19.38,    19.38,    19.26,    17.34
      135.0,      18.92,    19.47,    19.47,    19.35,    17.41
      136.0,      19.00,    19.55,    19.55,    19.43,    17.48
      137.0,      19.08,    19.63,    19.63,    19.51,    17.55
      138.0,      19.16,    19.72,    19.72,    19.59,    17.62
      139.0,      19.24,    19.80,    19.80,    19.68,    17.69
      140.0,      19.32,    19.88,    19.88,    19.76,    17.76
      141.0,      19.40,    19.96,    19.96,    19.84,    17.82
      142.0,      19.48,    20.05,    20.05,    19.92,    17.89
      143.0,      19.55,    20.13,    20.13,    20.00,    17.96
      144.0,      19.63,    20.21,    20.21,    20.08,    18.03
      145.0,      19.71,    20.29,    20.29,    20.16,    18.10
      146.0,      19.79,    20.37,    20.37,    20.24,    18.17
      147.0,      19.87,    20.45,    20.45,    20.32,    18.23
      148.0,      19.94,    20.53,    20.53,    20.40,    18.30
      149.0,      20.02,    20.62,    20.62,    20.48,    18.37
      150.0,      20.10,    20.70,    20.70,    20.56,    18.44
      151.0,      20.17,    20.78,    20.78,    20.64,    18.50
      152.0,      20.25,    20.86,    20.86,    20.72,    18.57
      153.0,      20.33,    20.94,    20.94,    20.80,    18.64
      154.0,      20.40,    21.01,    21.02,    20.88,    18.70
      155.0,      20.48,    21.10,    21.10,    20.97,    18.78
      156.0,      20.57,    21.19,    21.18,    21.06,    18.86
      157.0,      20.67,    21.29,    21.28,    21.16,    18.96
      158.0,      20.79,    21.42,    21.39,    21.28,    19.08
      159.0,      20.92,    21.56,    21.51,    21.40,    19.22
      160.0,      21.06,    21.72,    21.63,    21.52,    19.36
      161.0,      21.19,    21.87,    21.75,    21.64,    19.50
      162.0,      21.31,    22.01,    21.86,    21.74,    19.62
      163.0,      21.39,    22.11,    21.95,    21.82,    19.70
      164.0,      21.44,    22.17,    22.01,    21.87,    19.73
      165.0,      21.45,    22.16,    22.04,    21.89,    19.70
      166.0,      21.40,    22.09,    22.03,    21.88,    19.62
      167.0,      21.32,    21.96,    21.99,    21.84,    19.48
      168.0,      21.19,    21.77,    21.92,    21.78,    19.30
      169.0,      21.04,    21.54,    21.83,    21.71,    19.09
      170.0,      20.88,    21.29,    21.72,    21.63,    18.86
      171.0,      20.70,    21.04,    21.61,    21.54,    18.63
      172.0,      20.54,    20.78,    21.50,    21.46,    18.40
      173.0,      20.38,    20.54,    21.40,    21.38,    18.19
      174.0,      20.23,    20.32,    21.31,    21.31,    18.00
      175.0,      20.09,    20.11,    21.22,    21.24,    17.81
      176.0,      19.96,    19.92,    21.13,    21.17,    17.63
      177.0,      19.84,    19.73,    21.05,    21.10,    17.47
      178.0,      19.72,    19.55,    20.97,    21.04,    17.30
      179.0,      19.60,    19.38,    20.90,    20.97,    17.15
      180.0,      19.48,    19.21,    20.82,    20.91,    16.99
      181.0,      19.37,    19.05,    20.75,    20.85,    16.85
      182.0,      19.26,    18.90,    20.68,    20.78,    16.70
      183.0,      19.16,    18.75,    20.61,    20.72,    16.57
      184.0,      19.06,    18.60,    20.54,    20.67,    16.43
      185.0,      18.96,    18.46,    20.47,    20.61,    16.31
      186.0,      18.87,    18.32,    20.41,    20.55,    16.18
      187.0,      18.77,    18.19,    20.34,    20.49,    16.06
      188.0,      18.68,    18.07,    20.28,    20.44,    15.95
      189.0,      18.59,    17.94,    20.22,    20.38,    15.83
      190.0,      18.51,    17.82,    20.16,    20.33,    15.72
      191.0,      18.43,    17.71,    20.10,    20.28,    15.62
      192.0,      18.35,    17.60,    20.04,    20.23,    15.52
      193.0,      18.27,    17.49,    19.99,    20.18,    15.42
      194.0,      18.19,    17.39,    19.93,    20.13,    15.32
      195.0,      18.12,    17.29,    19.88,    20.08,    15.23
      196.0,      18.05,    17.19,    19.82,    20.03,    15.14
      197.0,      17.98,    17.09,    19.77,    19.98,    15.06
      198.0,      17.91,    17.00,    19.72,    19.93,    14.97
      199.0,      17.84,    16.91,    19.67,    19.89,    14.89
      200.0,      17.78,    16.83,    19.62,    19.84,    14.81
      201.0,      17.71,    16.74,    19.57,    19.80,    14.74
      202.0,      17.65,    16.66,    19.53,    19.75,    14.66
      203.0,      17.59,    16.58,    19.48,    19.71,    14.59
      204.0,      17.53,    16.50,    19.43,    19.67,    14.52
      205.0,      17.47,    16.43,    19.39,    19.62,    14.46
      206.0,      17.42,    16.36,    19.34,    19.58,    14.39
      207.0,      17.36,    16.29,    19.30,    19.54,    14.33
      208.0,      17.31,    16.22,    19.26,    19.50,    14.27
      209.0,      17.26,    16.15,    19.21,    19.46,    14.21
      210.0,      17.21,    16.09,    19.17,    19.42,    14.15
      211.0,      17.16,    16.03,    19.13,    19.38,    14.09
      212.0,      17.11,    15.96,    19.09,    19.34,    14.04
      213.0,      17.06,    15.90,    19.05,    19.31,    13.98
      214.0,      17.01,    15.85,    19.01,    19.27,    13.93
      215.0,      16.97,    15.79,    18.97,    19.23,    13.88
      216.0,      16.92,    15.74,    18.93,    19.20,    13.83
      217.0,      16.88,    15.68,    18.89,    19.16,    13.79
      218.0,      16.84,    15.63,    18.85,    19.12,    13.74
      219.0,      16.79,    15.58,    18.82,    19.09,    13.70
      220.0,      16.75,    15.53,    18.78,    19.05,    13.65
      221.0,      16.71,    15.48,    18.74,    19.02,    13.61
      222.0,      16.67,    15.43,    18.71,    18.99,    13.57
      223.0,      16.63,    15.38,    18.67,    18.95,    13.53
      224.0,      16.60,    15.34,    18.63,    18.92,    13.49
      225.0,      16.56,    15.29,    18.60,    18.89,    13.45
      226.0,      16.52,    15.25,    18.56,    18.86,    13.41
      227.0,      16.48,    15.21,    18.53,    18.82,    13.38
      228.0,      16.45,    15.17,    18.50,    18.79,    13.34
      229.0,      16.41,    15.13,    18.46,    18.76,    13.31
      230.0,      16.38,    15.09,    18.43,    18.73,    13.27
      231.0,      16.35,    15.05,    18.39,    18.70,    13.24
      232.0,      16.31,    15.01,    18.36,    18.67,    13.21
      233.0,      16.28,    14.97,    18.33,    18.64,    13.18
      234.0,      16.25,    14.93,    18.30,    18.61,    13.14
      235.0,      16.21,    14.90,    18.26,    18.58,    13.11
      236.0,      16.18,    14.86,    18.23,    18.55,    13.08
      237.0,      16.15,    14.83,    18.20,    18.52,    13.06
      238.0,      16.12,    14.79,    18.17,    18.49,    13.03
      239.0,      16.09,    14.76,    18.14,    18.47,    13.00
      240.0,      16.06,    14.73,    18.11,    18.44,    12.97
      241.0,      16.03,    14.69,    18.07,    18.41,    12.95
      242.0,      16.00,    14.66,    18.04,    18.38,    12.92
      243.0,      15.97,    14.63,    18.01,    18.36,    12.89
      244.0,      15.94,    14.60,    17.98,    18.33,    12.87
      245.0,      15.92,    14.57,    17.95,    18.30,    12.84
      246.0,      15.89,    14.54,    17.92,    18.28,    12.82
      247.0,      15.86,    14.51,    17.89,    18.25,    12.80
      248.0,      15.83,    14.48,    17.86,    18.22,    12.77
      249.0,      15.81,    14.45,    17.83,    18.20,    12.75
      250.0,      15.78,    14.42,    17.80,    18.17,    12.73
      251.0,      15.75,    14.39,    17.77,    18.15,    12.71
      252.0,      15.73,    14.36,    17.74,    18.12,    12.68
      253.0,      15.70,    14.34,    17.72,    18.10,    12.66
      254.0,      15.68,    14.31,    17.69,    18.07,    12.64
      255.0,      15.65,    14.28,    17.66,    18.05,    12.62
      256.0,      15.63,    14.25,    17.63,    18.02,    12.60
      257.0,      15.60,    14.23,    17.60,    18.00,    12.58
      258.0,      15.58,    14.20,    17.57,    17.97,    12.56
      259.0,      15.55,    14.18,    17.54,    17.95,    12.54
      260.0,      15.53,    14.15,    17.52,    17.93,    12.52
      261.0,      15.51,    14.13,    17.49,    17.90,    12.50
      262.0,      15.48,    14.10,    17.46,    17.88,    12.48
      263.0,      15.46,    14.08,    17.43,    17.86,    12.47
      264.0,      15.43,    14.05,    17.40,    17.83,    12.45
      265.0,      15.41,    14.03,    17.38,    17.81,    12.43
      266.0,      15.39,    14.00,    17.35,    17.79,    12.41
      267.0,      15.37,    13.98,    17.32,    17.77,    12.39
      268.0,      15.34,    13.96,    17.29,    17.74,    12.38
      269.0,      15.32,    13.93,    17.27,    17.72,    12.36
      270.0,      15.30,    13.91,    17.24,    17.70,    12.34
      271.0,      15.28,    13.89,    17.21,    17.68,    12.33
      272.0,      15.25,    13.86,    17.19,    17.65,    12.31
      273.0,      15.23,    13.84,    17.16,    17.63,    12.29
      274.0,      15.21,    13.82,    17.13,    17.61,    12.28
      275.0,      15.19,    13.80,    17.11,    17.59,    12.26
      276.0,      15.17,    13.77,    17.08,    17.57,    12.24
      277.0,      15.14,    13.75,    17.05,    17.55,    12.23
      278.0,      15.12,    13.73,    17.03,    17.52,    12.21
      279.0,      15.10,    13.71,    17.00,    17.50,    12.20
      280.0,      15.08,    13.69,    16.97,    17.48,    12.18
      281.0,      15.06,    13.66,    16.95,    17.46,    12.17
      282.0,      15.04,    13.64,    16.92,    17.44,    12.15
      283.0,      15.02,    13.62,    16.89,    17.42,    12.14
      284.0,      15.00,    13.60,    16.87,    17.40,    12.12
      285.0,      14.98,    13.58,    16.84,    17.38,    12.11
      286.0,      14.96,    13.56,    16.82,    17.36,    12.09
      287.0,      14.94,    13.54,    16.79,    17.34,    12.08
      288.0,      14.92,    13.52,    16.76,    17.32,    12.06
      289.0,      14.90,    13.50,    16.74,    17.30,    12.05
      290.0,      14.87,    13.48,    16.71,    17.28,    12.03
      291.0,      14.85,    13.46,    16.69,    17.26,    12.02
      292.0,      14.83,    13.43,    16.66,    17.24,    12.01
      293.0,      14.81,    13.41,    16.64,    17.22,    11.99
      294.0,      14.80,    13.39,    16.61,    17.20,    11.98
      295.0,      14.78,    13.37,    16.59,    17.18,    11.96
      296.0,      14.76,    13.35,    16.56,    17.16,    11.95
      297.0,      14.74,    13.33,    16.54,    17.14,    11.94
      298.0,      14.72,    13.31,    16.51,    17.12,    11.92
      299.0,      14.70,    13.29,    16.48,    17.10,    11.91
      300.0,      14.68,    13.27,    16.46,    17.08,    11.90
      301.0,      14.66,    13.26,    16.43,    17.06,    11.88
      302.0,      14.64,    13.24,    16.41,    17.04,    11.87
      303.0,      14.62,    13.22,    16.38,    17.02,    11.86
      304.0,      14.60,    13.20,    16.36,    17.00,    11.84
      305.0,      14.58,    13.18,    16.33,    16.98,    11.83
      306.0,      14.56,    13.16,    16.31,    16.96,    11.82
      307.0,      14.54,    13.14,    16.29,    16.95,    11.80
      308.0,      14.52,    13.12,    16.26,    16.93,    11.79
      309.0,      14.51,    13.10,    16.24,    16.91,    11.78
      310.0,      14.49,    13.08,    16.21,    16.89,    11.77
