Radius (km), Mean (m/s), NE (m/s), SE (m/s), SW (m/s), NW (m/s)
        0.0,       0.00,     0.00,     0.00,     0.00,     0.00
        1.0,       1.10,     1.07,     1.18,     1.05,     1.11
        2.0,       1.65,     1.62,     1.72,     1.60,     1.66
        3.0,       2.09,     2.07,     2.14,     2.04,     2.10
        4.0,       2.47,     2.45,     2.51,     2.43,     2.48
        5.0,       2.81,     2.80,     2.83,     2.79,     2.82
        6.0,       3.12,     3.12,     3.12,     3.11,     3.13
        7.0,       3.42,     3.43,     3.40,     3.42,     3.43
        8.0,       3.69,     3.71,     3.65,     3.71,     3.70
        9.0,       3.96,     3.98,     3.89,     3.98,     3.97
       10.0,       4.21,     4.24,     4.12,     4.25,     4.22
       11.0,       4.45,     4.49,     4.34,     4.50,     4.46
       12.0,       4.68,     4.73,     4.55,     4.75,     4.69
       13.0,       4.90,     4.96,     4.75,     4.98,     4.91
       14.0,       5.12,     5.18,     4.95,     5.21,     5.13
       15.0,       5.33,     5.40,     5.14,     5.43,     5.34
       16.0,       5.53,     5.61,     5.32,     5.65,     5.54
       17.0,       5.73,     5.82,     5.50,     5.86,     5.74
       18.0,       5.92,     6.02,     5.67,     6.07,     5.94
       19.0,       6.11,     6.22,     5.84,     6.27,     6.12
       20.0,       6.30,     6.41,     6.00,     6.47,     6.31
       21.0,       6.48,     6.60,     6.16,     6.67,     6.49
       22.0,       6.66,     6.79,     6.32,     6.86,     6.67
       23.0,       6.83,     6.97,     6.48,     7.05,     6.84
       24.0,       7.01,     7.15,     6.63,     7.23,     7.02
       25.0,       7.17,     7.32,     6.78,     7.41,     7.18
       26.0,       7.34,     7.50,     6.92,     7.59,     7.35
       27.0,       7.50,     7.67,     7.07,     7.77,     7.51
       28.0,       7.66,     7.84,     7.21,     7.94,     7.67
       29.0,       7.82,     8.00,     7.35,     8.11,     7.83
       30.0,       7.98,     8.17,     7.48,     8.28,     7.99
       31.0,       8.13,     8.33,     7.62,     8.45,     8.14
       32.0,       8.28,     8.49,     7.75,     8.61,     8.29
       33.0,       8.43,     8.64,     7.88,     8.77,     8.44
       34.0,       8.58,     8.80,     8.01,     8.94,     8.59
       35.0,       8.73,     8.95,     8.13,     9.09,     8.74
       36.0,       8.87,     9.11,     8.26,     9.25,     8.88
       37.0,       9.02,     9.26,     8.38,     9.41,     9.02
       38.0,       9.16,     9.40,     8.51,     9.56,     9.16
       39.0,       9.30,     9.55,     8.63,     9.71,     9.30
       40.0,       9.44,     9.70,     8.75,     9.86,     9.44
       41.0,       9.57,     9.84,     8.86,    10.01,     9.58
       42.0,       9.71,     9.98,     8.98,    10.16,     9.71
       43.0,       9.84,    10.12,     9.10,    10.31,     9.85
       44.0,       9.98,    10.26,     9.21,    10.45,     9.98
       45.0,      10.11,    10.40,     9.32,    10.59,    10.11
       46.0,      10.24,    10.54,     9.44,    10.74,    10.24
       47.0,      10.37,    10.68,     9.55,    10.88,    10.37
       48.0,      10.50,    10.81,     9.66,    11.02,    10.50
       49.0,      10.62,    10.94,     9.77,    11.16,    10.62
       50.0,      10.75,    11.08,     9.87,    11.29,    10.75
       51.0,      10.87,    11.21,     9.98,    11.43,    10.87
       52.0,      11.00,    11.34,    10.09,    11.57,    10.99
       53.0,      11.12,    11.47,    10.19,    11.70,    11.12
       54.0,      11.24,    11.60,    10.29,    11.84,    11.24
       55.0,      11.36,    11.73,    10.40,    11.97,    11.36
       56.0,      11.48,    11.85,    10.50,    12.10,    11.48
       57.0,      11.60,    11.98,    10.60,    12.23,    11.60
       58.0,      11.72,    12.10,    10.70,    12.36,    11.72
       59.0,      11.84,    12.23,    10.80,    12.49,    11.83
       60.0,      11.95,    12.35,    10.90,    12.62,    11.95
       61.0,      12.07,    12.47,    11.00,    12.75,    12.06
       62.0,      12.19,    12.59,    11.10,    12.87,    12.18
       63.0,      12.30,    12.72,    11.19,    13.00,    12.29
       64.0,      12.41,    12.84,    11.29,    13.12,    12.40
       65.0,      12.53,    12.96,    11.38,    13.25,    12.52
       66.0,      12.64,    13.07,    11.48,    13.37,    12.63
       67.0,      12.75,    13.19,    11.57,    13.49,    12.74
       68.0,      12.86,    13.31,    11.67,    13.62,    12.85
       69.0,      12.97,    13.43,    11.76,    13.74,    12.96
       70.0,      13.08,    13.54,    11.85,    13.86,    13.07
       71.0,      13.19,    13.66,    11.94,    13.98,    13.18
       72.0,      13.30,    13.77,    12.03,    14.10,    13.28
       73.0,      13.40,    13.88,    12.12,    14.21,    13.39
       74.0,      13.51,    14.00,    12.21,    14.33,    13.50
       75.0,      13.62,    14.11,    12.30,    14.45,    13.60
       76.0,      13.72,    14.22,    12.39,    14.57,    13.71
       77.0,      13.83,    14.33,    12.48,    14.68,    13.81
       78.0,      13.93,    14.44,    12.57,    14.80,    13.92
       79.0,      14.04,    14.55,    12.66,    14.91,    14.02
       80.0,      14.14,    14.66,    12.74,    15.03,    14.12
       81.0,      14.24,    14.77,    12.83,    15.14,    14.22
       82.0,      14.34,    14.88,    12.91,    15.26,    14.33
       83.0,      14.45,    14.99,    13.00,    15.37,    14.43
       84.0,      14.55,    15.10,    13.08,    15.48,    14.53
       85.0,      14.65,    15.20,    13.17,    15.59,    14.63
       86.0,      14.75,    15.31,    13.25,    15.70,    14.73
       87.0,      14.85,    15.42,    13.34,    15.81,    14.83
       88.0,      14.95,    15.52,    13.42,    15.92,    14.93
       89.0,      15.05,    15.63,    13.50,    16.03,    15.03
       90.0,      15.15,    15.73,    13.58,    16.14,    15.12
       91.0,      15.24,    15.84,    13.67,    16.25,    15.22
       92.0,      15.34,    15.94,    13.75,    16.36,    15.32
       93.0,      15.44,    16.04,    13.83,    16.47,    15.41
       94.0,      15.54,    16.15,    13.91,    16.58,    15.51
       95.0,      15.63,    16.25,    13.99,    16.68,    15.61
       96.0,      15.73,    16.35,    14.07,    16.79,    15.70
       97.0,      15.82,    16.45,    14.15,    16.89,    15.80
       98.0,      15.92,    16.55,    14.23,    17.00,    15.89
       99.0,      16.01,    16.65,    14.31,    17.11,    15.98
      100.0,      16.11,    16.75,    14.38,    17.21,    16.08
      101.0,      16.20,    16.85,    14.46,    17.31,    16.17
      102.0,      16.29,    16.95,    14.54,    17.42,    16.26
      103.0,      16.39,    17.05,    14.62,    17.52,    16.36
      104.0,      16.48,    17.15,    14.69,    17.63,    16.45
      105.0,      16.57,    17.25,    14.77,    17.73,    16.54
      106.0,      16.66,    17.35,    14.85,    17.83,    16.63
      107.0,      16.76,    17.44,    14.92,    17.93,    16.72
      108.0,      16.85,    17.54,    15.00,    18.03,    16.81
      109.0,      16.94,    17.64,    15.07,    18.14,    16.90
      110.0,      17.03,    17.73,    15.15,    18.24,    16.99
      111.0,      17.12,    17.83,    15.22,    18.34,    17.08
      112.0,      17.21,    17.93,    15.30,    18.44,    17.17
      113.0,      17.30,    18.02,    15.37,    18.54,    17.26
      114.0,      17.39,    18.12,    15.44,    18.64,    17.35
      115.0,      17.48,    18.21,    15.52,    18.74,    17.44
      116.0,      17.56,    18.31,    15.59,    18.83,    17.53
      117.0,      17.65,    18.40,    15.66,    18.93,    17.61
      118.0,      17.74,    18.49,    15.74,    19.03,    17.70
      119.0,      17.83,    18.59,    15.81,    19.13,    17.79
      120.0,      17.92,    18.68,    15.88,    19.23,    17.87
      121.0,      18.00,    18.77,    15.95,    19.32,    17.96
      122.0,      18.09,    18.86,    16.02,    19.42,    18.05
      123.0,      18.18,    18.96,    16.10,    19.52,    18.13
      124.0,      18.26,    19.05,    16.17,    19.61,    18.22
      125.0,      18.35,    19.14,    16.24,    19.71,    18.30
      126.0,      18.43,    19.23,    16.31,    19.81,    18.39
      127.0,      18.52,    19.32,    16.38,    19.90,    18.47
      128.0,      18.60,    19.41,    16.45,    20.00,    18.56
      129.0,      18.69,    19.50,    16.52,    20.09,    18.64
      130.0,      18.77,    19.59,    16.59,    20.18,    18.73
      131.0,      18.86,    19.68,    16.66,    20.28,    18.81
      132.0,      18.94,    19.77,    16.72,    20.37,    18.89
      133.0,      19.02,    19.86,    16.79,    20.47,    18.98
      134.0,      19.11,    19.95,    16.86,    20.56,    19.06
      135.0,      19.19,    20.04,    16.93,    20.65,    19.14
      136.0,      19.27,    20.13,    17.00,    20.75,    19.22
      137.0,      19.36,    20.22,    17.07,    20.84,    19.31
      138.0,      19.44,    20.30,    17.13,    20.93,    19.39
      139.0,      19.52,    20.39,    17.20,    21.02,    19.47
      140.0,      19.60,    20.48,    17.27,    21.11,    19.55
      141.0,      19.68,    20.57,    17.33,    21.21,    19.63
      142.0,      19.77,    20.65,    17.40,    21.30,    19.71
      143.0,      19.85,    20.74,    17.47,    21.39,    19.79
      144.0,      19.93,    20.83,    17.53,    21.48,    19.87
      145.0,      20.01,    20.91,    17.60,    21.57,    19.95
      146.0,      20.09,    21.00,    17.67,    21.66,    20.03
      147.0,      20.17,    21.08,    17.73,    21.75,    20.11
      148.0,      20.25,    21.17,    17.80,    21.84,    20.19
      149.0,      20.33,    21.26,    17.86,    21.93,    20.27
      150.0,      20.41,    21.34,    17.93,    22.02,    20.35
      151.0,      20.49,    21.43,    17.99,    22.11,    20.43
      152.0,      20.57,    21.51,    18.06,    22.20,    20.51
      153.0,      20.65,    21.59,    18.12,    22.29,    20.59
      154.0,      20.73,    21.68,    18.19,    22.37,    20.67
      155.0,      20.81,    21.76,    18.26,    22.47,    20.75
      156.0,      20.90,    21.85,    18.33,    22.57,    20.85
      157.0,      21.00,    21.95,    18.42,    22.68,    20.96
      158.0,      21.11,    22.06,    18.51,    22.80,    21.09
      159.0,      21.24,    22.18,    18.61,    22.93,    21.23
      160.0,      21.36,    22.30,    18.71,    23.07,    21.37
      161.0,      21.48,    22.42,    18.80,    23.20,    21.51
      162.0,      21.59,    22.54,    18.88,    23.33,    21.62
      163.0,      21.68,    22.63,    18.95,    23.42,    21.71
      164.0,      21.73,    22.70,    18.99,    23.49,    21.75
      165.0,      21.75,    22.74,    19.01,    23.52,    21.74
      166.0,      21.74,    22.74,    19.00,    23.50,    21.69
      167.0,      21.69,    22.71,    18.97,    23.46,    21.60
      168.0,      21.61,    22.66,    18.92,    23.38,    21.48
      169.0,      21.51,    22.58,    18.87,    23.28,    21.33
      170.0,      21.41,    22.49,    18.80,    23.16,    21.18
      171.0,      21.30,    22.40,    18.74,    23.04,    21.02
      172.0,      21.19,    22.30,    18.68,    22.93,    20.87
      173.0,      21.09,    22.21,    18.62,    22.82,    20.73
      174.0,      21.00,    22.12,    18.56,    22.71,    20.59
      175.0,      20.91,    22.05,    18.51,    22.62,    20.47
      176.0,      20.83,    21.97,    18.46,    22.53,    20.35
      177.0,      20.75,    21.90,    18.41,    22.44,    20.23
      178.0,      20.67,    21.83,    18.37,    22.35,    20.12
      179.0,      20.59,    21.76,    18.32,    22.27,    20.01
      180.0,      20.52,    21.69,    18.28,    22.19,    19.91
      181.0,      20.44,    21.62,    18.23,    22.11,    19.81
      182.0,      20.37,    21.56,    18.19,    22.03,    19.71
      183.0,      20.30,    21.49,    18.15,    21.95,    19.62
      184.0,      20.24,    21.43,    18.11,    21.88,    19.52
      185.0,      20.17,    21.37,    18.07,    21.81,    19.44
      186.0,      20.11,    21.31,    18.03,    21.74,    19.35
      187.0,      20.04,    21.25,    17.99,    21.67,    19.27
      188.0,      19.98,    21.19,    17.95,    21.60,    19.19
      189.0,      19.92,    21.13,    17.92,    21.54,    19.11
      190.0,      19.87,    21.08,    17.88,    21.47,    19.03
      191.0,      19.81,    21.02,    17.85,    21.41,    18.96
      192.0,      19.75,    20.97,    17.81,    21.35,    18.89
      193.0,      19.70,    20.91,    17.78,    21.29,    18.82
      194.0,      19.65,    20.86,    17.74,    21.23,    18.75
      195.0,      19.59,    20.81,    17.71,    21.17,    18.68
      196.0,      19.54,    20.76,    17.68,    21.12,    18.62
      197.0,      19.49,    20.71,    17.65,    21.06,    18.56
      198.0,      19.44,    20.66,    17.62,    21.01,    18.50
      199.0,      19.40,    20.61,    17.59,    20.95,    18.44
      200.0,      19.35,    20.56,    17.56,    20.90,    18.38
      201.0,      19.30,    20.51,    17.53,    20.85,    18.33
      202.0,      19.26,    20.46,    17.50,    20.80,    18.27
      203.0,      19.21,    20.42,    17.47,    20.75,    18.22
      204.0,      19.17,    20.37,    17.45,    20.70,    18.17
      205.0,      19.13,    20.33,    17.42,    20.65,    18.12
      206.0,      19.09,    20.28,    17.39,    20.60,    18.07
      207.0,      19.04,    20.24,    17.37,    20.56,    18.02
      208.0,      19.00,    20.19,    17.34,    20.51,    17.97
      209.0,      18.96,    20.15,    17.31,    20.47,    17.93
      210.0,      18.92,    20.10,    17.29,    20.42,    17.88
      211.0,      18.89,    20.06,    17.26,    20.38,    17.84
      212.0,      18.85,    20.02,    17.24,    20.33,    17.80
      213.0,      18.81,    19.98,    17.21,    20.29,    17.76
      214.0,      18.77,    19.94,    17.19,    20.25,    17.72
      215.0,      18.74,    19.89,    17.17,    20.21,    17.68
      216.0,      18.70,    19.85,    17.14,    20.17,    17.64
      217.0,      18.67,    19.81,    17.12,    20.13,    17.60
      218.0,      18.63,    19.77,    17.10,    20.09,    17.56
      219.0,      18.60,    19.73,    17.07,    20.05,    17.53
      220.0,      18.56,    19.69,    17.05,    20.01,    17.49
      221.0,      18.53,    19.65,    17.03,    19.97,    17.46
      222.0,      18.49,    19.62,    17.01,    19.93,    17.42
      223.0,      18.46,    19.58,    16.99,    19.89,    17.39
      224.0,      18.43,    19.54,    16.96,    19.86,    17.36
      225.0,      18.40,    19.50,    16.94,    19.82,    17.32
      226.0,      18.37,    19.46,    16.92,    19.78,    17.29
      227.0,      18.33,    19.43,    16.90,    19.75,    17.26
      228.0,      18.30,    19.39,    16.88,    19.71,    17.23
      229.0,      18.27,    19.35,    16.86,    19.67,    17.20
      230.0,      18.24,    19.31,    16.84,    19.64,    17.17
      231.0,      18.21,    19.28,    16.82,    19.60,    17.14
      232.0,      18.18,    19.24,    16.80,    19.57,    17.11
      233.0,      18.15,    19.21,    16.78,    19.54,    17.08
      234.0,      18.12,    19.17,    16.76,    19.50,    17.06
      235.0,      18.09,    19.13,    16.74,    19.47,    17.03
      236.0,      18.06,    19.10,    16.72,    19.43,    17.00
      237.0,      18.04,    19.06,    16.70,    19.40,    16.97
      238.0,      18.01,    19.03,    16.68,    19.37,    16.95
      239.0,      17.98,    18.99,    16.66,    19.34,    16.92
      240.0,      17.95,    18.96,    16.64,    19.30,    16.90
      241.0,      17.92,    18.92,    16.62,    19.27,    16.87
      242.0,      17.89,    18.89,    16.60,    19.24,    16.85
      243.0,      17.87,    18.86,    16.59,    19.21,    16.82
      244.0,      17.84,    18.82,    16.57,    19.18,    16.80
      245.0,      17.81,    18.79,    16.55,    19.14,    16.77
      246.0,      17.79,    18.75,    16.53,    19.11,    16.75
      247.0,      17.76,    18.72,    16.51,    19.08,    16.72
      248.0,      17.73,    18.69,    16.49,    19.05,    16.70
      249.0,      17.71,    18.65,    16.48,    19.02,    16.68
      250.0,      17.68,    18.62,    16.46,    18.99,    16.66
      251.0,      17.65,    18.59,    16.44,    18.96,    16.63
      252.0,      17.63,    18.55,    16.42,    18.93,    16.61
      253.0,      17.60,    18.52,    16.40,    18.90,    16.59
      254.0,      17.58,    18.49,    16.39,    18.87,    16.57
      255.0,      17.55,    18.46,    16.37,    18.84,    16.54
      256.0,      17.53,    18.42,    16.35,    18.81,    16.52
      257.0,      17.50,    18.39,    16.33,    18.78,    16.50
      258.0,      17.48,    18.36,    16.32,    18.75,    16.48
      259.0,      17.45,    18.33,    16.30,    18.72,    16.46
      260.0,      17.43,    18.29,    16.28,    18.69,    16.44
      261.0,      17.40,    18.26,    16.26,    18.66,    16.42
      262.0,      17.38,    18.23,    16.25,    18.63,    16.39
      263.0,      17.35,    18.20,    16.23,    18.60,    16.37
      264.0,      17.33,    18.17,    16.21,    18.58,    16.35
      265.0,      17.30,    18.14,    16.19,    18.55,    16.33
      266.0,      17.28,    18.10,    16.18,    18.52,    16.31
      267.0,      17.25,    18.07,    16.16,    18.49,    16.29
      268.0,      17.23,    18.04,    16.14,    18.46,    16.27
      269.0,      17.21,    18.01,    16.13,    18.43,    16.25
      270.0,      17.18,    17.98,    16.11,    18.41,    16.23
      271.0,      17.16,    17.95,    16.09,    18.38,    16.21
      272.0,      17.13,    17.92,    16.08,    18.35,    16.19
      273.0,      17.11,    17.89,    16.06,    18.32,    16.17
      274.0,      17.09,    17.86,    16.04,    18.29,    16.16
      275.0,      17.06,    17.83,    16.03,    18.27,    16.14
      276.0,      17.04,    17.79,    16.01,    18.24,    16.12
      277.0,      17.02,    17.76,    15.99,    18.21,    16.10
      278.0,      16.99,    17.73,    15.98,    18.18,    16.08
      279.0,      16.97,    17.70,    15.96,    18.16,    16.06
      280.0,      16.95,    17.67,    15.94,    18.13,    16.04
      281.0,      16.92,    17.64,    15.93,    18.10,    16.02
      282.0,      16.90,    17.61,    15.91,    18.07,    16.00
      283.0,      16.88,    17.58,    15.89,    18.05,    15.99
      284.0,      16.85,    17.55,    15.88,    18.02,    15.97
      285.0,      16.83,    17.52,    15.86,    17.99,    15.95
      286.0,      16.81,    17.49,    15.85,    17.97,    15.93
      287.0,      16.79,    17.46,    15.83,    17.94,    15.91
      288.0,      16.76,    17.43,    15.81,    17.91,    15.89
      289.0,      16.74,    17.40,    15.80,    17.89,    15.88
      290.0,      16.72,    17.37,    15.78,    17.86,    15.86
      291.0,      16.70,    17.34,    15.77,    17.83,    15.84
      292.0,      16.67,    17.31,    15.75,    17.81,    15.82
      293.0,      16.65,    17.29,    15.73,    17.78,    15.80
      294.0,      16.63,    17.26,    15.72,    17.75,    15.79
      295.0,      16.61,    17.23,    15.70,    17.73,    15.77
      296.0,      16.58,    17.20,    15.69,    17.70,    15.75
      297.0,      16.56,    17.17,    15.67,    17.68,    15.73
      298.0,      16.54,    17.14,    15.65,    17.65,    15.71
      299.0,      16.52,    17.11,    15.64,    17.62,    15.70
      300.0,      16.49,    17.08,    15.62,    17.60,    15.68
      301.0,      16.47,    17.05,    15.61,    17.57,    15.66
      302.0,      16.45,    17.02,    15.59,    17.55,    15.64
      303.0,      16.43,    16.99,    15.57,    17.52,    15.63
      304.0,      16.41,    16.97,    15.56,    17.49,    15.61
      305.0,      16.39,    16.94,    15.54,    17.47,    15.59
      306.0,      16.36,    16.91,    15.53,    17.44,    15.57
      307.0,      16.34,    16.88,    15.51,    17.42,    15.56
      308.0,      16.32,    16.85,    15.50,    17.39,    15.54
      309.0,      16.30,    16.82,    15.48,    17.37,    15.52
      310.0,      16.28,    16.79,    15.46,    17.34,    15.51
