Radius (km), Mean (m/s), NE (m/s), SE (m/s), SW (m/s), NW (m/s)
        0.0,       0.00,     0.00,     0.00,     0.00,     0.00
        1.0,       1.19,     1.42,     0.96,     0.96,     1.42
        2.0,       2.03,     2.30,     1.76,     1.76,     2.30
        3.0,       2.77,     3.05,     2.50,     2.50,     3.05
        4.0,       3.46,     3.72,     3.20,     3.20,     3.72
        5.0,       4.11,     4.34,     3.89,     3.89,     4.34
        6.0,       4.74,     4.93,     4.55,     4.55,     4.93
        7.0,       5.34,     5.48,     5.20,     5.20,     5.48
        8.0,       5.93,     6.01,     5.84,     5.84,     6.01
        9.0,       6.50,     6.53,     6.47,     6.47,     6.53
       10.0,       7.05,     7.02,     7.08,     7.08,     7.02
       11.0,       7.60,     7.50,     7.69,     7.69,     7.50
       12.0,       8.13,     7.97,     8.30,     8.30,     7.97
       13.0,       8.66,     8.42,     8.89,     8.89,     8.42
       14.0,       9.17,     8.87,     9.48,     9.48,     8.87
       15.0,       9.68,     9.30,    10.07,    10.07,     9.30
       16.0,      10.19,     9.72,    10.65,    10.65,     9.72
       17.0,      10.68,    10.14,    11.22,    11.22,    10.14
       18.0,      11.17,    10.55,    11.79,    11.79,    10.55
       19.0,      11.66,    10.95,    12.36,    12.36,    10.95
       20.0,      12.13,    11.35,    12.92,    12.92,    11.35
       21.0,      12.61,    11.74,    13.48,    13.48,    11.74
       22.0,      13.08,    12.13,    14.03,    14.03,    12.13
       23.0,      13.54,    12.51,    14.58,    14.58,    12.51
       24.0,      14.01,    12.88,    15.13,    15.13,    12.88
       25.0,      14.46,    13.25,    15.67,    15.67,    13.25
       26.0,      14.92,    13.62,    16.22,    16.22,    13.62
       27.0,      15.37,    13.98,    16.76,    16.76,    13.98
       28.0,      15.81,    14.33,    17.29,    17.29,    14.33
       29.0,      16.26,    14.69,    17.83,    17.83,    14.69
       30.0,      16.70,    15.03,    18.36,    18.36,    15.03
       31.0,      17.13,    15.38,    18.89,    18.89,    15.38
       32.0,      17.57,    15.72,    19.41,    19.41,    15.72
       33.0,      18.00,    16.06,    19.94,    19.94,    16.06
       34.0,      18.43,    16.40,    20.46,    20.46,    16.40
       35.0,      18.86,    16.73,    20.98,    20.98,    16.73
       36.0,      19.28,    17.06,    21.50,    21.50,    17.06
       37.0,      19.70,    17.39,    22.02,    22.02,    17.39
       38.0,      20.12,    17.71,    22.53,    22.53,    17.71
       39.0,      20.54,    18.03,    23.05,    23.05,    18.03
       40.0,      20.95,    18.35,    23.56,    23.56,    18.35
       41.0,      21.37,    18.67,    24.07,    24.07,    18.67
       42.0,      21.78,    18.98,    24.57,    24.57,    18.98
       43.0,      22.19,    19.30,    25.08,    25.08,    19.30
       44.0,      22.60,    19.61,    25.58,    25.58,    19.61
       45.0,      23.00,    19.91,    26.09,    26.09,    19.91
       46.0,      23.40,    20.22,    26.59,    26.59,    20.22
       47.0,      23.81,    20.52,    27.09,    27.09,    20.52
       48.0,      24.21,    20.82,    27.59,    27.59,    20.82
       49.0,      24.61,    21.12,    28.09,    28.09,    21.12
       50.0,      25.00,    21.42,    28.58,    28.58,    21.42
       51.0,      25.40,    21.72,    29.08,    29.08,    21.72
       52.0,      25.79,    22.01,    29.57,    29.57,    22.01
       53.0,      26.18,    22.31,    30.06,    30.06,    22.31
       54.0,      26.58,    22.60,    30.55,    30.55,    22.60
       55.0,      26.96,    22.89,    31.04,    31.04,    22.89
       56.0,      27.35,    23.17,    31.53,    31.53,    23.17
       57.0,      27.74,    23.46,    32.02,    32.02,    23.46
       58.0,      28.12,    23.74,    32.51,    32.51,    23.74
       59.0,      28.51,    24.03,    32.99,    32.99,    24.03
       60.0,      28.89,    24.31,    33.48,    33.48,    24.31
       61.0,      29.29,    24.59,    33.98,    33.99,    24.62
       62.0,      29.73,    24.89,    34.51,    34.54,    24.96
       63.0,      30.21,    25.23,    35.10,    35.17,    25.36
       64.0,      30.77,    25.60,    35.77,    35.89,    25.82
       65.0,      31.38,    26.01,    36.50,    36.68,    26.34
       66.0,      32.04,    26.46,    37.29,    37.52,    26.90
       67.0,      32.70,    26.92,    38.08,    38.36,    27.45
       68.0,      33.32,    27.36,    38.84,    39.14,    27.96
       69.0,      33.85,    27.75,    39.50,    39.80,    28.36
       70.0,      34.25,    28.05,    40.02,    40.30,    28.64
       71.0,      34.49,    28.26,    40.35,    40.59,    28.75
       72.0,      34.55,    28.34,    40.49,    40.67,    28.71
       73.0,      34.44,    28.30,    40.44,    40.53,    28.50
       74.0,      34.18,    28.15,    40.21,    40.22,    28.16
       75.0,      33.81,    27.91,    39.85,    39.76,    27.73
       76.0,      33.37,    27.61,    39.39,    39.22,    27.23
       77.0,      32.88,    27.28,    38.89,    38.64,    26.72
       78.0,      32.40,    26.94,    38.38,    38.06,    26.20
       79.0,      31.93,    26.61,    37.89,    37.51,    25.71
       80.0,      31.49,    26.29,    37.43,    36.99,    25.25
       81.0,      31.08,    26.00,    37.00,    36.50,    24.82
       82.0,      30.69,    25.73,    36.59,    36.03,    24.40
       83.0,      30.32,    25.47,    36.20,    35.59,    24.01
       84.0,      29.96,    25.22,    35.83,    35.16,    23.63
       85.0,      29.61,    24.98,    35.46,    34.75,    23.26
       86.0,      29.28,    24.74,    35.11,    34.35,    22.91
       87.0,      28.96,    24.52,    34.77,    33.96,    22.57
       88.0,      28.64,    24.30,    34.44,    33.59,    22.25
       89.0,      28.34,    24.08,    34.13,    33.23,    21.93
       90.0,      28.05,    23.88,    33.82,    32.89,    21.63
       91.0,      27.77,    23.68,    33.52,    32.55,    21.34
       92.0,      27.50,    23.49,    33.23,    32.23,    21.06
       93.0,      27.24,    23.30,    32.95,    31.92,    20.79
       94.0,      26.98,    23.12,    32.68,    31.62,    20.53
       95.0,      26.74,    22.94,    32.42,    31.32,    20.28
       96.0,      26.50,    22.77,    32.16,    31.04,    20.03
       97.0,      26.27,    22.61,    31.92,    30.77,    19.80
       98.0,      26.05,    22.45,    31.68,    30.51,    19.58
       99.0,      25.84,    22.29,    31.44,    30.25,    19.36
      100.0,      25.63,    22.14,    31.22,    30.00,    19.15
      101.0,      25.43,    21.99,    31.00,    29.77,    18.95
      102.0,      25.23,    21.85,    30.79,    29.53,    18.76
      103.0,      25.04,    21.71,    30.58,    29.31,    18.57
      104.0,      24.86,    21.58,    30.38,    29.09,    18.40
      105.0,      24.68,    21.45,    30.18,    28.88,    18.22
      106.0,      24.51,    21.32,    29.99,    28.68,    18.06
      107.0,      24.35,    21.20,    29.81,    28.48,    17.89
      108.0,      24.18,    21.07,    29.63,    28.29,    17.74
      109.0,      24.03,    20.96,    29.45,    28.11,    17.59
      110.0,      23.88,    20.84,    29.28,    27.93,    17.44
      111.0,      23.73,    20.73,    29.12,    27.75,    17.30
      112.0,      23.58,    20.62,    28.96,    27.59,    17.17
      113.0,      23.45,    20.52,    28.80,    27.42,    17.04
      114.0,      23.31,    20.42,    28.65,    27.26,    16.91
      115.0,      23.18,    20.32,    28.50,    27.11,    16.79
      116.0,      23.05,    20.22,    28.35,    26.96,    16.68
      117.0,      22.93,    20.12,    28.21,    26.81,    16.56
      118.0,      22.81,    20.03,    28.07,    26.67,    16.45
      119.0,      22.69,    19.94,    27.94,    26.53,    16.35
      120.0,      22.57,    19.85,    27.80,    26.40,    16.25
      121.0,      22.46,    19.76,    27.67,    26.27,    16.15
      122.0,      22.35,    19.68,    27.55,    26.14,    16.05
      123.0,      22.25,    19.59,    27.42,    26.02,    15.96
      124.0,      22.15,    19.51,    27.30,    25.89,    15.87
      125.0,      22.04,    19.43,    27.18,    25.78,    15.78
      126.0,      21.95,    19.36,    27.07,    25.66,    15.70
      127.0,      21.85,    19.28,    26.95,    25.55,    15.62
      128.0,      21.76,    19.20,    26.84,    25.44,    15.54
      129.0,      21.67,    19.13,    26.73,    25.34,    15.47
      130.0,      21.58,    19.06,    26.63,    25.23,    15.39
      131.0,      21.49,    18.99,    26.52,    25.13,    15.32
      132.0,      21.41,    18.92,    26.42,    25.03,    15.25
      133.0,      21.32,    18.85,    26.32,    24.94,    15.19
      134.0,      21.24,    18.78,    26.22,    24.84,    15.12
      135.0,      21.16,    18.72,    26.12,    24.75,    15.06
      136.0,      21.08,    18.66,    26.03,    24.66,    15.00
      137.0,      21.01,    18.59,    25.93,    24.57,    14.94
      138.0,      20.93,    18.53,    25.84,    24.48,    14.88
      139.0,      20.86,    18.47,    25.75,    24.40,    14.82
      140.0,      20.79,    18.41,    25.66,    24.32,    14.77
      141.0,      20.72,    18.35,    25.57,    24.24,    14.72
      142.0,      20.65,    18.29,    25.49,    24.16,    14.67
      143.0,      20.58,    18.23,    25.40,    24.08,    14.62
      144.0,      20.52,    18.18,    25.32,    24.00,    14.57
      145.0,      20.45,    18.12,    25.24,    23.93,    14.52
      146.0,      20.39,    18.07,    25.16,    23.85,    14.47
      147.0,      20.32,    18.01,    25.08,    23.78,    14.43
      148.0,      20.26,    17.96,    25.00,    23.71,    14.39
      149.0,      20.20,    17.91,    24.92,    23.64,    14.34
      150.0,      20.14,    17.85,    24.84,    23.57,    14.30
      151.0,      20.08,    17.80,    24.77,    23.50,    14.26
      152.0,      20.03,    17.75,    24.69,    23.44,    14.22
      153.0,      19.97,    17.70,    24.62,    23.37,    14.18
      154.0,      19.91,    17.65,    24.54,    23.31,    14.15
      155.0,      19.86,    17.60,    24.47,    23.24,    14.11
      156.0,      19.80,    17.55,    24.40,    23.18,    14.07
      157.0,      19.75,    17.51,    24.33,    23.12,    14.04
      158.0,      19.70,    17.46,    24.26,    23.06,    14.01
      159.0,      19.64,    17.41,    24.19,    23.00,    13.97
      160.0,      19.59,    17.37,    24.12,    22.94,    13.94
      161.0,      19.54,    17.32,    24.05,    22.88,    13.91
      162.0,      19.49,    17.27,    23.99,    22.82,    13.88
      163.0,      19.44,    17.23,    23.92,    22.77,    13.85
      164.0,      19.39,    17.19,    23.85,    22.71,    13.82
      165.0,      19.34,    17.14,    23.79,    22.66,    13.79
      166.0,      19.30,    17.10,    23.72,    22.60,    13.76
      167.0,      19.25,    17.05,    23.66,    22.55,    13.73
      168.0,      19.20,    17.01,    23.60,    22.49,    13.70
      169.0,      19.15,    16.97,    23.53,    22.44,    13.67
      170.0,      19.11,    16.93,    23.47,    22.39,    13.65
      171.0,      19.06,    16.88,    23.41,    22.34,    13.62
      172.0,      19.02,    16.84,    23.35,    22.29,    13.60
      173.0,      18.97,    16.80,    23.29,    22.24,    13.57
      174.0,      18.93,    16.76,    23.23,    22.19,    13.55
      175.0,      18.89,    16.72,    23.17,    22.14,    13.52
      176.0,      18.84,    16.68,    23.11,    22.09,    13.50
      177.0,      18.80,    16.64,    23.05,    22.04,    13.47
      178.0,      18.76,    16.60,    22.99,    21.99,    13.45
      179.0,      18.72,    16.56,    22.93,    21.94,    13.43
      180.0,      18.67,    16.52,    22.87,    21.89,    13.40
      181.0,      18.63,    16.48,    22.82,    21.85,    13.38
      182.0,      18.59,    16.44,    22.76,    21.80,    13.36
      183.0,      18.55,    16.40,    22.70,    21.75,    13.34
      184.0,      18.51,    16.36,    22.65,    21.71,    13.32
      185.0,      18.47,    16.33,    22.59,    21.66,    13.30
      186.0,      18.43,    16.29,    22.54,    21.62,    13.27
      187.0,      18.39,    16.25,    22.48,    21.57,    13.25
      188.0,      18.35,    16.21,    22.42,    21.53,    13.23
      189.0,      18.31,    16.18,    22.37,    21.48,    13.21
      190.0,      18.27,    16.14,    22.32,    21.44,    13.19
      191.0,      18.23,    16.10,    22.26,    21.40,    13.17
      192.0,      18.19,    16.06,    22.21,    21.35,    13.15
      193.0,      18.16,    16.03,    22.15,    21.31,    13.13
      194.0,      18.12,    15.99,    22.10,    21.27,    13.12
      195.0,      18.08,    15.96,    22.05,    21.22,    13.10
      196.0,      18.04,    15.92,    21.99,    21.18,    13.08
      197.0,      18.01,    15.88,    21.94,    21.14,    13.06
      198.0,      17.97,    15.85,    21.89,    21.10,    13.04
      199.0,      17.93,    15.81,    21.84,    21.05,    13.02
      200.0,      17.89,    15.78,    21.79,    21.01,    13.00
      201.0,      17.86,    15.74,    21.73,    20.97,    12.99
      202.0,      17.82,    15.71,    21.68,    20.93,    12.97
      203.0,      17.79,    15.67,    21.63,    20.89,    12.95
      204.0,      17.75,    15.64,    21.58,    20.85,    12.93
      205.0,      17.71,    15.60,    21.53,    20.81,    12.92
      206.0,      17.68,    15.57,    21.48,    20.77,    12.90
      207.0,      17.64,    15.53,    21.43,    20.73,    12.88
      208.0,      17.61,    15.50,    21.38,    20.69,    12.87
      209.0,      17.57,    15.46,    21.33,    20.65,    12.85
      210.0,      17.54,    15.43,    21.28,    20.61,    12.83
      211.0,      17.50,    15.40,    21.23,    20.57,    12.82
      212.0,      17.47,    15.36,    21.18,    20.53,    12.80
      213.0,      17.43,    15.33,    21.13,    20.49,    12.78
      214.0,      17.40,    15.29,    21.08,    20.45,    12.77
      215.0,      17.36,    15.26,    21.03,    20.41,    12.75
      216.0,      17.33,    15.23,    20.98,    20.37,    12.73
      217.0,      17.30,    15.19,    20.93,    20.33,    12.72
      218.0,      17.26,    15.16,    20.89,    20.30,    12.70
      219.0,      17.23,    15.13,    20.84,    20.26,    12.69
      220.0,      17.19,    15.09,    20.79,    20.22,    12.67
      221.0,      17.16,    15.06,    20.74,    20.18,    12.65
      222.0,      17.13,    15.03,    20.69,    20.14,    12.64
      223.0,      17.09,    15.00,    20.65,    20.11,    12.62
      224.0,      17.06,    14.96,    20.60,    20.07,    12.61
      225.0,      17.03,    14.93,    20.55,    20.03,    12.59
      226.0,      16.99,    14.90,    20.50,    19.99,    12.58
      227.0,      16.96,    14.87,    20.46,    19.96,    12.56
      228.0,      16.93,    14.83,    20.41,    19.92,    12.55
      229.0,      16.89,    14.80,    20.36,    19.88,    12.53
      230.0,      16.86,    14.77,    20.32,    19.84,    12.52
      231.0,      16.83,    14.74,    20.27,    19.81,    12.50
      232.0,      16.80,    14.71,    20.22,    19.77,    12.49
      233.0,      16.76,    14.67,    20.18,    19.73,    12.47
      234.0,      16.73,    14.64,    20.13,    19.70,    12.46
      235.0,      16.70,    14.61,    20.09,    19.66,    12.44
      236.0,      16.67,    14.58,    20.04,    19.62,    12.43
      237.0,      16.64,    14.55,    19.99,    19.59,    12.41
      238.0,      16.60,    14.52,    19.95,    19.55,    12.40
      239.0,      16.57,    14.49,    19.90,    19.52,    12.38
      240.0,      16.54,    14.46,    19.86,    19.48,    12.37
      241.0,      16.51,    14.42,    19.81,    19.44,    12.35
      242.0,      16.48,    14.39,    19.77,    19.41,    12.34
      243.0,      16.45,    14.36,    19.72,    19.37,    12.32
      244.0,      16.41,    14.33,    19.68,    19.34,    12.31
      245.0,      16.38,    14.30,    19.63,    19.30,    12.30
      246.0,      16.35,    14.27,    19.59,    19.27,    12.28
      247.0,      16.32,    14.24,    19.54,    19.23,    12.27
      248.0,      16.29,    14.21,    19.50,    19.20,    12.25
      249.0,      16.26,    14.18,    19.46,    19.16,    12.24
      250.0,      16.23,    14.15,    19.41,    19.12,    12.22
      251.0,      16.20,    14.12,    19.37,    19.09,    12.21
      252.0,      16.17,    14.09,    19.32,    19.05,    12.20
      253.0,      16.13,    14.06,    19.28,    19.02,    12.18
      254.0,      16.10,    14.03,    19.24,    18.99,    12.17
      255.0,      16.07,    14.00,    19.19,    18.95,    12.15
      256.0,      16.04,    13.97,    19.15,    18.92,    12.14
      257.0,      16.01,    13.94,    19.11,    18.88,    12.12
      258.0,      15.98,    13.91,    19.06,    18.85,    12.11
      259.0,      15.95,    13.88,    19.02,    18.81,    12.10
      260.0,      15.92,    13.85,    18.98,    18.78,    12.08
      261.0,      15.89,    13.82,    18.93,    18.74,    12.07
      262.0,      15.86,    13.79,    18.89,    18.71,    12.06
      263.0,      15.83,    13.76,    18.85,    18.68,    12.04
      264.0,      15.80,    13.73,    18.81,    18.64,    12.03
      265.0,      15.77,    13.70,    18.76,    18.61,    12.01
      266.0,      15.74,    13.67,    18.72,    18.57,    12.00
      267.0,      15.71,    13.64,    18.68,    18.54,    11.99
      268.0,      15.68,    13.61,    18.64,    18.51,    11.97
      269.0,      15.65,    13.58,    18.60,    18.47,    11.96
      270.0,      15.62,    13.56,    18.55,    18.44,    11.95
      271.0,      15.59,    13.53,    18.51,    18.41,    11.93
      272.0,      15.56,    13.50,    18.47,    18.37,    11.92
      273.0,      15.54,    13.47,    18.43,    18.34,    11.90
      274.0,      15.51,    13.44,    18.39,    18.31,    11.89
      275.0,      15.48,    13.41,    18.35,    18.27,    11.88
      276.0,      15.45,    13.38,    18.30,    18.24,    11.86
      277.0,      15.42,    13.36,    18.26,    18.21,    11.85
      278.0,      15.39,    13.33,    18.22,    18.17,    11.84
      279.0,      15.36,    13.30,    18.18,    18.14,    11.82
      280.0,      15.33,    13.27,    18.14,    18.11,    11.81
      281.0,      15.30,    13.24,    18.10,    18.07,    11.80
      282.0,      15.27,    13.21,    18.06,    18.04,    11.78
      283.0,      15.25,    13.19,    18.02,    18.01,    11.77
      284.0,      15.22,    13.16,    17.98,    17.98,    11.76
      285.0,      15.19,    13.13,    17.94,    17.94,    11.74
      286.0,      15.16,    13.10,    17.90,    17.91,    11.73
      287.0,      15.13,    13.07,    17.86,    17.88,    11.72
      288.0,      15.10,    13.05,    17.82,    17.85,    11.70
      289.0,      15.07,    13.02,    17.77,    17.81,    11.69
      290.0,      15.05,    12.99,    17.73,    17.78,    11.68
      291.0,      15.02,    12.96,    17.70,    17.75,    11.66
      292.0,      14.99,    12.94,    17.66,    17.72,    11.65
      293.0,      14.96,    12.91,    17.62,    17.68,    11.64
      294.0,      14.93,    12.88,    17.58,    17.65,    11.62
      295.0,      14.91,    12.85,    17.54,    17.62,    11.61
      296.0,      14.88,    12.83,    17.50,    17.59,    11.60
      297.0,      14.85,    12.80,    17.46,    17.56,    11.58
      298.0,      14.82,    12.77,    17.42,    17.52,    11.57
      299.0,      14.79,    12.74,    17.38,    17.49,    11.56
      300.0,      14.77,    12.72,    17.34,    17.46,    11.55
      301.0,      14.74,    12.69,    17.30,    17.43,    11.53
      302.0,      14.71,    12.66,    17.26,    17.40,    11.52
      303.0,      14.68,    12.64,    17.22,    17.37,    11.51
      304.0,      14.66,    12.61,    17.18,    17.34,    11.49
      305.0,      14.63,    12.58,    17.15,    17.30,    11.48
      306.0,      14.60,    12.56,    17.11,    17.27,    11.47
      307.0,      14.57,    12.53,    17.07,    17.24,    11.45
      308.0,      14.55,    12.50,    17.03,    17.21,    11.44
      309.0,      14.52,    12.48,    16.99,    17.18,    11.43
      310.0,      14.49,    12.45,    16.95,    17.15,    11.42
