Radius (km), Mean (m/s), NE (m/s), SE (m/s), SW (m/s), NW (m/s)
        0.0,       0.00,     0.00,     0.00,     0.00,     0.00
        1.0,       1.55,     1.71,     1.49,     1.50,     1.49
        2.0,       2.59,     2.76,     2.54,     2.54,     2.54
        3.0,       3.50,     3.65,     3.46,     3.46,     3.46
        4.0,       4.34,     4.44,     4.30,     4.31,     4.30
        5.0,       5.12,     5.18,     5.10,     5.11,     5.10
        6.0,       5.87,     5.87,     5.86,     5.87,     5.86
        7.0,       6.58,     6.53,     6.59,     6.60,     6.59
        8.0,       7.26,     7.15,     7.30,     7.30,     7.30
        9.0,       7.93,     7.76,     7.99,     7.98,     7.99
       10.0,       8.58,     8.34,     8.66,     8.65,     8.66
       11.0,       9.21,     8.90,     9.31,     9.30,     9.31
       12.0,       9.82,     9.45,     9.95,     9.94,     9.95
       13.0,      10.42,     9.99,    10.58,    10.56,    10.58
       14.0,      11.02,    10.51,    11.19,    11.17,    11.19
       15.0,      11.60,    11.02,    11.80,    11.78,    11.80
       16.0,      12.17,    11.52,    12.39,    12.37,    12.39
       17.0,      12.73,    12.01,    12.98,    12.95,    12.98
       18.0,      13.28,    12.49,    13.56,    13.53,    13.56
       19.0,      13.83,    12.96,    14.13,    14.09,    14.13
       20.0,      14.37,    13.43,    14.69,    14.66,    14.69
       21.0,      14.90,    13.89,    15.25,    15.21,    15.25
       22.0,      15.42,    14.34,    15.80,    15.76,    15.80
       23.0,      15.94,    14.78,    16.34,    16.30,    16.34
       24.0,      16.46,    15.22,    16.88,    16.84,    16.88
       25.0,      16.96,    15.65,    17.42,    17.37,    17.42
       26.0,      17.47,    16.08,    17.94,    17.89,    17.94
       27.0,      17.96,    16.50,    18.47,    18.41,    18.47
       28.0,      18.46,    16.92,    18.99,    18.93,    18.99
       29.0,      18.95,    17.34,    19.50,    19.44,    19.50
       30.0,      19.43,    17.74,    20.01,    19.95,    20.01
       31.0,      19.91,    18.15,    20.52,    20.45,    20.52
       32.0,      20.39,    18.55,    21.02,    20.95,    21.02
       33.0,      20.86,    18.95,    21.52,    21.45,    21.52
       34.0,      21.33,    19.34,    22.02,    21.94,    22.02
       35.0,      21.80,    19.73,    22.51,    22.43,    22.51
       36.0,      22.26,    20.11,    23.00,    22.92,    23.00
       37.0,      22.72,    20.49,    23.49,    23.40,    23.49
       38.0,      23.17,    20.87,    23.97,    23.88,    23.97
       39.0,      23.63,    21.25,    24.45,    24.36,    24.45
       40.0,      24.08,    21.62,    24.93,    24.83,    24.93
       41.0,      24.52,    21.99,    25.40,    25.30,    25.40
       42.0,      24.97,    22.36,    25.87,    25.77,    25.87
       43.0,      25.41,    22.72,    26.34,    26.23,    26.34
       44.0,      25.85,    23.09,    26.81,    26.70,    26.81
       45.0,      26.30,    23.45,    27.28,    27.17,    27.32
       46.0,      26.78,    23.83,    27.76,    27.66,    27.87
       47.0,      27.30,    24.23,    28.28,    28.19,    28.51
       48.0,      27.88,    24.66,    28.83,    28.76,    29.25
       49.0,      28.50,    25.14,    29.42,    29.37,    30.07
       50.0,      29.16,    25.64,    30.04,    30.00,    30.94
       51.0,      29.82,    26.16,    30.67,    30.64,    31.81
       52.0,      30.46,    26.67,    31.29,    31.25,    32.62
       53.0,      31.03,    27.14,    31.86,    31.81,    33.30
       54.0,      31.50,    27.55,    32.37,    32.30,    33.80
       55.0,      31.85,    27.86,    32.78,    32.68,    34.09
       56.0,      32.07,    28.07,    33.08,    32.96,    34.15
       57.0,      32.15,    28.18,    33.27,    33.14,    34.00
       58.0,      32.10,    28.17,    33.36,    33.21,    33.67
       59.0,      31.97,    28.09,    33.37,    33.21,    33.20
       60.0,      31.76,    27.94,    33.31,    33.15,    32.63
       61.0,      31.51,    27.75,    33.22,    33.06,    32.03
       62.0,      31.25,    27.54,    33.10,    32.95,    31.43
       63.0,      31.00,    27.32,    32.98,    32.85,    30.85
       64.0,      30.76,    27.12,    32.87,    32.75,    30.30
       65.0,      30.53,    26.93,    32.77,    32.66,    29.78
       66.0,      30.32,    26.75,    32.68,    32.57,    29.29
       67.0,      30.11,    26.57,    32.58,    32.48,    28.82
       68.0,      29.91,    26.40,    32.49,    32.40,    28.36
       69.0,      29.71,    26.23,    32.39,    32.31,    27.92
       70.0,      29.52,    26.06,    32.30,    32.23,    27.50
       71.0,      29.33,    25.89,    32.21,    32.14,    27.10
       72.0,      29.15,    25.73,    32.12,    32.05,    26.71
       73.0,      28.97,    25.57,    32.02,    31.97,    26.33
       74.0,      28.80,    25.41,    31.93,    31.89,    25.97
       75.0,      28.63,    25.25,    31.84,    31.80,    25.62
       76.0,      28.46,    25.10,    31.75,    31.72,    25.29
       77.0,      28.30,    24.95,    31.66,    31.63,    24.97
       78.0,      28.14,    24.80,    31.57,    31.55,    24.66
       79.0,      27.99,    24.65,    31.48,    31.47,    24.36
       80.0,      27.84,    24.51,    31.39,    31.39,    24.07
       81.0,      27.69,    24.36,    31.30,    31.30,    23.79
       82.0,      27.54,    24.22,    31.21,    31.22,    23.52
       83.0,      27.40,    24.08,    31.12,    31.14,    23.26
       84.0,      27.26,    23.95,    31.03,    31.06,    23.02
       85.0,      27.13,    23.81,    30.94,    30.98,    22.78
       86.0,      26.99,    23.68,    30.85,    30.90,    22.55
       87.0,      26.86,    23.55,    30.77,    30.82,    22.32
       88.0,      26.74,    23.42,    30.68,    30.74,    22.11
       89.0,      26.61,    23.29,    30.59,    30.66,    21.90
       90.0,      26.49,    23.17,    30.50,    30.58,    21.70
       91.0,      26.37,    23.04,    30.42,    30.50,    21.51
       92.0,      26.25,    22.92,    30.33,    30.42,    21.32
       93.0,      26.13,    22.80,    30.25,    30.34,    21.14
       94.0,      26.02,    22.68,    30.16,    30.26,    20.97
       95.0,      25.91,    22.56,    30.07,    30.19,    20.80
       96.0,      25.80,    22.45,    29.99,    30.11,    20.64
       97.0,      25.69,    22.33,    29.90,    30.03,    20.49
       98.0,      25.58,    22.22,    29.82,    29.95,    20.34
       99.0,      25.48,    22.11,    29.73,    29.88,    20.19
      100.0,      25.38,    22.00,    29.65,    29.80,    20.05
      101.0,      25.27,    21.89,    29.57,    29.72,    19.92
      102.0,      25.18,    21.78,    29.48,    29.65,    19.79
      103.0,      25.08,    21.68,    29.40,    29.57,    19.66
      104.0,      24.98,    21.57,    29.32,    29.50,    19.54
      105.0,      24.89,    21.47,    29.23,    29.42,    19.42
      106.0,      24.79,    21.37,    29.15,    29.35,    19.31
      107.0,      24.70,    21.27,    29.07,    29.27,    19.20
      108.0,      24.61,    21.17,    28.99,    29.20,    19.09
      109.0,      24.52,    21.07,    28.90,    29.12,    18.99
      110.0,      24.43,    20.98,    28.82,    29.05,    18.89
      111.0,      24.35,    20.88,    28.74,    28.97,    18.79
      112.0,      24.26,    20.79,    28.66,    28.90,    18.69
      113.0,      24.18,    20.70,    28.58,    28.83,    18.60
      114.0,      24.09,    20.60,    28.50,    28.75,    18.52
      115.0,      24.01,    20.51,    28.42,    28.68,    18.43
      116.0,      23.93,    20.42,    28.34,    28.61,    18.35
      117.0,      23.85,    20.34,    28.26,    28.54,    18.27
      118.0,      23.77,    20.25,    28.18,    28.47,    18.19
      119.0,      23.69,    20.16,    28.10,    28.39,    18.11
      120.0,      23.62,    20.08,    28.02,    28.32,    18.04
      121.0,      23.54,    19.99,    27.94,    28.25,    17.97
      122.0,      23.46,    19.91,    27.87,    28.18,    17.90
      123.0,      23.39,    19.83,    27.79,    28.11,    17.83
      124.0,      23.32,    19.75,    27.71,    28.04,    17.77
      125.0,      23.24,    19.67,    27.63,    27.97,    17.71
      126.0,      23.17,    19.59,    27.55,    27.90,    17.64
      127.0,      23.10,    19.51,    27.48,    27.83,    17.58
      128.0,      23.03,    19.43,    27.40,    27.76,    17.53
      129.0,      22.96,    19.36,    27.32,    27.69,    17.47
      130.0,      22.89,    19.28,    27.25,    27.62,    17.41
      131.0,      22.82,    19.20,    27.17,    27.55,    17.36
      132.0,      22.75,    19.13,    27.10,    27.48,    17.31
      133.0,      22.69,    19.06,    27.02,    27.42,    17.26
      134.0,      22.62,    18.98,    26.94,    27.35,    17.21
      135.0,      22.56,    18.91,    26.87,    27.28,    17.16
      136.0,      22.49,    18.84,    26.79,    27.21,    17.11
      137.0,      22.43,    18.77,    26.72,    27.15,    17.07
      138.0,      22.36,    18.70,    26.65,    27.08,    17.02
      139.0,      22.30,    18.63,    26.57,    27.01,    16.98
      140.0,      22.24,    18.57,    26.50,    26.94,    16.93
      141.0,      22.17,    18.50,    26.42,    26.88,    16.89
      142.0,      22.11,    18.43,    26.35,    26.81,    16.85
      143.0,      22.05,    18.37,    26.28,    26.75,    16.81
      144.0,      21.99,    18.30,    26.20,    26.68,    16.77
      145.0,      21.93,    18.24,    26.13,    26.61,    16.73
      146.0,      21.87,    18.17,    26.06,    26.55,    16.70
      147.0,      21.81,    18.11,    25.99,    26.48,    16.66
      148.0,      21.75,    18.05,    25.91,    26.42,    16.62
      149.0,      21.69,    17.98,    25.84,    26.35,    16.59
      150.0,      21.63,    17.92,    25.77,    26.29,    16.55
      151.0,      21.58,    17.86,    25.70,    26.23,    16.52
      152.0,      21.52,    17.80,    25.63,    26.16,    16.49
      153.0,      21.46,    17.74,    25.56,    26.10,    16.45
      154.0,      21.41,    17.68,    25.48,    26.03,    16.42
      155.0,      21.35,    17.63,    25.41,    25.97,    16.39
      156.0,      21.29,    17.57,    25.34,    25.91,    16.36
      157.0,      21.24,    17.51,    25.27,    25.85,    16.33
      158.0,      21.18,    17.45,    25.20,    25.78,    16.30
      159.0,      21.13,    17.40,    25.13,    25.72,    16.27
      160.0,      21.08,    17.34,    25.06,    25.66,    16.24
      161.0,      21.02,    17.29,    25.00,    25.60,    16.21
      162.0,      20.97,    17.23,    24.93,    25.53,    16.18
      163.0,      20.92,    17.18,    24.86,    25.47,    16.15
      164.0,      20.86,    17.12,    24.79,    25.41,    16.13
      165.0,      20.81,    17.07,    24.72,    25.35,    16.10
      166.0,      20.76,    17.02,    24.65,    25.29,    16.07
      167.0,      20.71,    16.96,    24.58,    25.23,    16.05
      168.0,      20.65,    16.91,    24.52,    25.17,    16.02
      169.0,      20.60,    16.86,    24.45,    25.11,    16.00
      170.0,      20.55,    16.81,    24.38,    25.04,    15.97
      171.0,      20.50,    16.76,    24.31,    24.98,    15.95
      172.0,      20.45,    16.71,    24.25,    24.92,    15.92
      173.0,      20.40,    16.66,    24.18,    24.86,    15.90
      174.0,      20.35,    16.61,    24.11,    24.81,    15.87
      175.0,      20.30,    16.56,    24.05,    24.75,    15.85
      176.0,      20.25,    16.51,    23.98,    24.69,    15.83
      177.0,      20.20,    16.46,    23.91,    24.63,    15.80
      178.0,      20.15,    16.41,    23.85,    24.57,    15.78
      179.0,      20.10,    16.37,    23.78,    24.51,    15.76
      180.0,      20.06,    16.32,    23.72,    24.45,    15.73
      181.0,      20.01,    16.27,    23.65,    24.39,    15.71
      182.0,      19.96,    16.23,    23.59,    24.34,    15.69
      183.0,      19.91,    16.18,    23.52,    24.28,    15.67
      184.0,      19.86,    16.14,    23.46,    24.22,    15.65
      185.0,      19.82,    16.09,    23.39,    24.16,    15.62
      186.0,      19.77,    16.04,    23.33,    24.10,    15.60
      187.0,      19.72,    16.00,    23.27,    24.05,    15.58
      188.0,      19.68,    15.96,    23.20,    23.99,    15.56
      189.0,      19.63,    15.91,    23.14,    23.93,    15.54
      190.0,      19.58,    15.87,    23.08,    23.88,    15.52
      191.0,      19.54,    15.82,    23.01,    23.82,    15.50
      192.0,      19.49,    15.78,    22.95,    23.76,    15.48
      193.0,      19.45,    15.74,    22.89,    23.71,    15.46
      194.0,      19.40,    15.70,    22.82,    23.65,    15.44
      195.0,      19.36,    15.65,    22.76,    23.60,    15.42
      196.0,      19.31,    15.61,    22.70,    23.54,    15.40
      197.0,      19.27,    15.57,    22.64,    23.49,    15.38
      198.0,      19.22,    15.53,    22.58,    23.43,    15.36
      199.0,      19.18,    15.49,    22.51,    23.38,    15.34
      200.0,      19.13,    15.45,    22.45,    23.32,    15.32
      201.0,      19.09,    15.41,    22.39,    23.27,    15.30
      202.0,      19.05,    15.37,    22.33,    23.21,    15.28
      203.0,      19.00,    15.32,    22.27,    23.16,    15.26
      204.0,      18.96,    15.29,    22.21,    23.10,    15.24
      205.0,      18.92,    15.25,    22.15,    23.05,    15.22
      206.0,      18.87,    15.21,    22.09,    22.99,    15.20
      207.0,      18.83,    15.17,    22.03,    22.94,    15.18
      208.0,      18.79,    15.13,    21.97,    22.89,    15.16
      209.0,      18.74,    15.09,    21.91,    22.83,    15.15
      210.0,      18.70,    15.05,    21.85,    22.78,    15.13
      211.0,      18.66,    15.01,    21.79,    22.73,    15.11
      212.0,      18.62,    14.97,    21.73,    22.67,    15.09
      213.0,      18.57,    14.94,    21.67,    22.62,    15.07
      214.0,      18.53,    14.90,    21.61,    22.57,    15.05
      215.0,      18.49,    14.86,    21.55,    22.52,    15.03
      216.0,      18.45,    14.83,    21.49,    22.46,    15.02
      217.0,      18.41,    14.79,    21.43,    22.41,    15.00
      218.0,      18.37,    14.75,    21.38,    22.36,    14.98
      219.0,      18.33,    14.72,    21.32,    22.31,    14.96
      220.0,      18.29,    14.68,    21.26,    22.26,    14.94
      221.0,      18.24,    14.64,    21.20,    22.20,    14.93
      222.0,      18.20,    14.61,    21.15,    22.15,    14.91
      223.0,      18.16,    14.57,    21.09,    22.10,    14.89
      224.0,      18.12,    14.54,    21.03,    22.05,    14.87
      225.0,      18.08,    14.50,    20.97,    22.00,    14.86
      226.0,      18.04,    14.47,    20.92,    21.95,    14.84
      227.0,      18.00,    14.43,    20.86,    21.90,    14.82
      228.0,      17.96,    14.40,    20.80,    21.85,    14.80
      229.0,      17.92,    14.36,    20.75,    21.80,    14.79
      230.0,      17.88,    14.33,    20.69,    21.75,    14.77
      231.0,      17.84,    14.29,    20.63,    21.70,    14.75
      232.0,      17.80,    14.26,    20.58,    21.65,    14.73
      233.0,      17.77,    14.22,    20.52,    21.60,    14.72
      234.0,      17.73,    14.19,    20.47,    21.55,    14.70
      235.0,      17.69,    14.16,    20.41,    21.50,    14.68
      236.0,      17.65,    14.12,    20.36,    21.45,    14.66
      237.0,      17.61,    14.09,    20.30,    21.40,    14.65
      238.0,      17.57,    14.06,    20.25,    21.35,    14.63
      239.0,      17.53,    14.02,    20.19,    21.30,    14.61
      240.0,      17.50,    13.99,    20.14,    21.25,    14.60
      241.0,      17.46,    13.96,    20.08,    21.21,    14.58
      242.0,      17.42,    13.93,    20.03,    21.16,    14.56
      243.0,      17.38,    13.89,    19.98,    21.11,    14.55
      244.0,      17.34,    13.86,    19.92,    21.06,    14.53
      245.0,      17.31,    13.83,    19.87,    21.01,    14.51
      246.0,      17.27,    13.80,    19.81,    20.97,    14.50
      247.0,      17.23,    13.77,    19.76,    20.92,    14.48
      248.0,      17.19,    13.73,    19.71,    20.87,    14.46
      249.0,      17.16,    13.70,    19.65,    20.82,    14.45
      250.0,      17.12,    13.67,    19.60,    20.78,    14.43
      251.0,      17.08,    13.64,    19.55,    20.73,    14.41
      252.0,      17.05,    13.61,    19.50,    20.68,    14.40
      253.0,      17.01,    13.58,    19.44,    20.63,    14.38
      254.0,      16.97,    13.55,    19.39,    20.59,    14.36
      255.0,      16.94,    13.52,    19.34,    20.54,    14.35
      256.0,      16.90,    13.49,    19.29,    20.49,    14.33
      257.0,      16.86,    13.46,    19.23,    20.45,    14.31
      258.0,      16.83,    13.43,    19.18,    20.40,    14.30
      259.0,      16.79,    13.40,    19.13,    20.36,    14.28
      260.0,      16.75,    13.37,    19.08,    20.31,    14.26
      261.0,      16.72,    13.34,    19.03,    20.26,    14.25
      262.0,      16.68,    13.31,    18.98,    20.22,    14.23
      263.0,      16.65,    13.28,    18.93,    20.17,    14.21
      264.0,      16.61,    13.25,    18.88,    20.13,    14.20
      265.0,      16.58,    13.22,    18.82,    20.08,    14.18
      266.0,      16.54,    13.19,    18.77,    20.04,    14.17
      267.0,      16.51,    13.16,    18.72,    19.99,    14.15
      268.0,      16.47,    13.13,    18.67,    19.95,    14.13
      269.0,      16.44,    13.10,    18.62,    19.90,    14.12
      270.0,      16.40,    13.07,    18.57,    19.86,    14.10
      271.0,      16.37,    13.04,    18.52,    19.81,    14.08
      272.0,      16.33,    13.01,    18.47,    19.77,    14.07
      273.0,      16.30,    12.99,    18.42,    19.72,    14.05
      274.0,      16.26,    12.96,    18.37,    19.68,    14.04
      275.0,      16.23,    12.93,    18.33,    19.64,    14.02
      276.0,      16.19,    12.90,    18.28,    19.59,    14.00
      277.0,      16.16,    12.87,    18.23,    19.55,    13.99
      278.0,      16.12,    12.84,    18.18,    19.50,    13.97
      279.0,      16.09,    12.82,    18.13,    19.46,    13.96
      280.0,      16.06,    12.79,    18.08,    19.42,    13.94
      281.0,      16.02,    12.76,    18.03,    19.37,    13.92
      282.0,      15.99,    12.73,    17.98,    19.33,    13.91
      283.0,      15.96,    12.70,    17.94,    19.29,    13.89
      284.0,      15.92,    12.68,    17.89,    19.24,    13.88
      285.0,      15.89,    12.65,    17.84,    19.20,    13.86
      286.0,      15.85,    12.62,    17.79,    19.16,    13.85
      287.0,      15.82,    12.59,    17.74,    19.12,    13.83
      288.0,      15.79,    12.57,    17.70,    19.07,    13.81
      289.0,      15.76,    12.54,    17.65,    19.03,    13.80
      290.0,      15.72,    12.51,    17.60,    18.99,    13.78
      291.0,      15.69,    12.49,    17.56,    18.95,    13.77
      292.0,      15.66,    12.46,    17.51,    18.90,    13.75
      293.0,      15.62,    12.43,    17.46,    18.86,    13.74
      294.0,      15.59,    12.41,    17.42,    18.82,    13.72
      295.0,      15.56,    12.38,    17.37,    18.78,    13.70
      296.0,      15.53,    12.35,    17.32,    18.74,    13.69
      297.0,      15.49,    12.33,    17.28,    18.70,    13.67
      298.0,      15.46,    12.30,    17.23,    18.65,    13.66
      299.0,      15.43,    12.27,    17.18,    18.61,    13.64
      300.0,      15.40,    12.25,    17.14,    18.57,    13.63
      301.0,      15.36,    12.22,    17.09,    18.53,    13.61
      302.0,      15.33,    12.20,    17.05,    18.49,    13.60
      303.0,      15.30,    12.17,    17.00,    18.45,    13.58
      304.0,      15.27,    12.14,    16.96,    18.41,    13.57
      305.0,      15.24,    12.12,    16.91,    18.37,    13.55
      306.0,      15.21,    12.09,    16.87,    18.33,    13.53
      307.0,      15.17,    12.07,    16.82,    18.29,    13.52
      308.0,      15.14,    12.04,    16.78,    18.25,    13.50
      309.0,      15.11,    12.02,    16.73,    18.21,    13.49
      310.0,      15.08,    11.99,    16.69,    18.17,    13.47
