Radius (km), Mean (m/s), NE (m/s), SE (m/s), SW (m/s), NW (m/s)
        0.0,       0.00,     0.00,     0.00,     0.00,     0.00
        1.0,       1.07,     1.06,     1.07,     1.04,     1.11
        2.0,       1.62,     1.61,     1.62,     1.59,     1.66
        3.0,       2.06,     2.05,     2.06,     2.03,     2.10
        4.0,       2.45,     2.44,     2.45,     2.43,     2.48
        5.0,       2.80,     2.79,     2.80,     2.78,     2.82
        6.0,       3.12,     3.12,     3.12,     3.11,     3.13
        7.0,       3.42,     3.42,     3.42,     3.42,     3.43
        8.0,       3.71,     3.71,     3.71,     3.71,     3.70
        9.0,       3.98,     3.98,     3.98,     3.98,     3.96
       10.0,       4.23,     4.24,     4.24,     4.25,     4.21
       11.0,       4.48,     4.49,     4.48,     4.50,     4.45
       12.0,       4.72,     4.73,     4.72,     4.75,     4.68
       13.0,       4.95,     4.97,     4.96,     4.99,     4.91
       14.0,       5.18,     5.19,     5.18,     5.22,     5.12
       15.0,       5.40,     5.41,     5.40,     5.44,     5.33
       16.0,       5.61,     5.63,     5.61,     5.66,     5.53
       17.0,       5.82,     5.84,     5.82,     5.88,     5.73
       18.0,       6.02,     6.04,     6.02,     6.08,     5.93
       19.0,       6.22,     6.24,     6.22,     6.29,     6.11
       20.0,       6.41,     6.44,     6.41,     6.49,     6.30
       21.0,       6.60,     6.63,     6.60,     6.69,     6.48
       22.0,       6.78,     6.82,     6.78,     6.88,     6.66
       23.0,       6.97,     7.00,     6.97,     7.07,     6.83
       24.0,       7.15,     7.18,     7.15,     7.25,     7.00
       25.0,       7.32,     7.36,     7.32,     7.44,     7.17
       26.0,       7.50,     7.54,     7.50,     7.62,     7.34
       27.0,       7.67,     7.71,     7.67,     7.80,     7.50
       28.0,       7.84,     7.88,     7.84,     7.97,     7.66
       29.0,       8.00,     8.05,     8.00,     8.14,     7.82
       30.0,       8.17,     8.22,     8.17,     8.32,     7.97
       31.0,       8.33,     8.38,     8.33,     8.48,     8.12
       32.0,       8.49,     8.54,     8.49,     8.65,     8.27
       33.0,       8.65,     8.70,     8.64,     8.81,     8.42
       34.0,       8.80,     8.86,     8.80,     8.98,     8.57
       35.0,       8.96,     9.02,     8.95,     9.14,     8.72
       36.0,       9.11,     9.17,     9.10,     9.30,     8.86
       37.0,       9.26,     9.32,     9.25,     9.45,     9.00
       38.0,       9.41,     9.47,     9.40,     9.61,     9.14
       39.0,       9.55,     9.62,     9.55,     9.76,     9.28
       40.0,       9.70,     9.77,     9.70,     9.92,     9.42
       41.0,       9.84,     9.92,     9.84,    10.07,     9.55
       42.0,       9.99,    10.06,     9.98,    10.22,     9.69
       43.0,      10.13,    10.20,    10.12,    10.36,     9.82
       44.0,      10.27,    10.35,    10.26,    10.51,     9.95
       45.0,      10.41,    10.49,    10.40,    10.66,    10.08
       46.0,      10.55,    10.63,    10.54,    10.80,    10.21
       47.0,      10.68,    10.77,    10.68,    10.94,    10.34
       48.0,      10.82,    10.90,    10.81,    11.08,    10.47
       49.0,      10.95,    11.04,    10.94,    11.23,    10.60
       50.0,      11.08,    11.17,    11.08,    11.36,    10.72
       51.0,      11.22,    11.31,    11.21,    11.50,    10.84
       52.0,      11.35,    11.44,    11.34,    11.64,    10.97
       53.0,      11.48,    11.57,    11.47,    11.78,    11.09
       54.0,      11.61,    11.70,    11.60,    11.91,    11.21
       55.0,      11.73,    11.83,    11.73,    12.05,    11.33
       56.0,      11.86,    11.96,    11.85,    12.18,    11.45
       57.0,      11.99,    12.09,    11.98,    12.31,    11.57
       58.0,      12.11,    12.22,    12.10,    12.44,    11.68
       59.0,      12.24,    12.35,    12.23,    12.58,    11.80
       60.0,      12.36,    12.47,    12.35,    12.70,    11.92
       61.0,      12.48,    12.60,    12.47,    12.83,    12.03
       62.0,      12.61,    12.72,    12.60,    12.96,    12.15
       63.0,      12.73,    12.84,    12.72,    13.09,    12.26
       64.0,      12.85,    12.96,    12.84,    13.22,    12.37
       65.0,      12.97,    13.09,    12.96,    13.34,    12.48
       66.0,      13.09,    13.21,    13.07,    13.47,    12.59
       67.0,      13.20,    13.33,    13.19,    13.59,    12.70
       68.0,      13.32,    13.45,    13.31,    13.72,    12.81
       69.0,      13.44,    13.57,    13.43,    13.84,    12.92
       70.0,      13.55,    13.68,    13.54,    13.96,    13.03
       71.0,      13.67,    13.80,    13.66,    14.08,    13.14
       72.0,      13.78,    13.92,    13.77,    14.20,    13.25
       73.0,      13.90,    14.03,    13.89,    14.32,    13.35
       74.0,      14.01,    14.15,    14.00,    14.44,    13.46
       75.0,      14.13,    14.26,    14.11,    14.56,    13.56
       76.0,      14.24,    14.38,    14.22,    14.68,    13.67
       77.0,      14.35,    14.49,    14.34,    14.80,    13.77
       78.0,      14.46,    14.60,    14.45,    14.92,    13.88
       79.0,      14.57,    14.72,    14.56,    15.03,    13.98
       80.0,      14.68,    14.83,    14.67,    15.15,    14.08
       81.0,      14.79,    14.94,    14.78,    15.26,    14.18
       82.0,      14.90,    15.05,    14.88,    15.38,    14.28
       83.0,      15.01,    15.16,    14.99,    15.49,    14.38
       84.0,      15.12,    15.27,    15.10,    15.61,    14.49
       85.0,      15.22,    15.38,    15.21,    15.72,    14.58
       86.0,      15.33,    15.49,    15.31,    15.83,    14.68
       87.0,      15.44,    15.60,    15.42,    15.95,    14.78
       88.0,      15.54,    15.70,    15.53,    16.06,    14.88
       89.0,      15.65,    15.81,    15.63,    16.17,    14.98
       90.0,      15.75,    15.92,    15.74,    16.28,    15.08
       91.0,      15.86,    16.02,    15.84,    16.39,    15.17
       92.0,      15.96,    16.13,    15.94,    16.50,    15.27
       93.0,      16.06,    16.24,    16.05,    16.61,    15.37
       94.0,      16.17,    16.34,    16.15,    16.72,    15.46
       95.0,      16.27,    16.44,    16.25,    16.83,    15.56
       96.0,      16.37,    16.55,    16.35,    16.94,    15.65
       97.0,      16.47,    16.65,    16.46,    17.04,    15.75
       98.0,      16.58,    16.76,    16.56,    17.15,    15.84
       99.0,      16.68,    16.86,    16.66,    17.26,    15.93
      100.0,      16.78,    16.96,    16.76,    17.36,    16.03
      101.0,      16.88,    17.06,    16.86,    17.47,    16.12
      102.0,      16.98,    17.16,    16.96,    17.57,    16.21
      103.0,      17.08,    17.26,    17.06,    17.68,    16.30
      104.0,      17.18,    17.37,    17.15,    17.78,    16.40
      105.0,      17.27,    17.47,    17.25,    17.89,    16.49
      106.0,      17.37,    17.57,    17.35,    17.99,    16.58
      107.0,      17.47,    17.67,    17.45,    18.10,    16.67
      108.0,      17.57,    17.76,    17.55,    18.20,    16.76
      109.0,      17.66,    17.86,    17.64,    18.30,    16.85
      110.0,      17.76,    17.96,    17.74,    18.41,    16.94
      111.0,      17.86,    18.06,    17.83,    18.51,    17.03
      112.0,      17.95,    18.16,    17.93,    18.61,    17.12
      113.0,      18.05,    18.26,    18.03,    18.71,    17.20
      114.0,      18.14,    18.35,    18.12,    18.81,    17.29
      115.0,      18.24,    18.45,    18.22,    18.91,    17.38
      116.0,      18.33,    18.55,    18.31,    19.01,    17.47
      117.0,      18.43,    18.64,    18.40,    19.11,    17.56
      118.0,      18.52,    18.74,    18.50,    19.21,    17.64
      119.0,      18.62,    18.83,    18.59,    19.31,    17.73
      120.0,      18.71,    18.93,    18.68,    19.41,    17.82
      121.0,      18.80,    19.02,    18.78,    19.51,    17.90
      122.0,      18.90,    19.12,    18.87,    19.61,    17.99
      123.0,      18.99,    19.21,    18.96,    19.71,    18.07
      124.0,      19.08,    19.30,    19.05,    19.80,    18.16
      125.0,      19.17,    19.40,    19.15,    19.90,    18.24
      126.0,      19.26,    19.49,    19.24,    20.00,    18.33
      127.0,      19.35,    19.58,    19.33,    20.10,    18.41
      128.0,      19.45,    19.68,    19.42,    20.19,    18.49
      129.0,      19.54,    19.77,    19.51,    20.29,    18.58
      130.0,      19.63,    19.86,    19.60,    20.38,    18.66
      131.0,      19.72,    19.95,    19.69,    20.48,    18.75
      132.0,      19.81,    20.05,    19.78,    20.58,    18.83
      133.0,      19.90,    20.14,    19.87,    20.67,    18.91
      134.0,      19.99,    20.23,    19.96,    20.77,    18.99
      135.0,      20.08,    20.32,    20.05,    20.86,    19.08
      136.0,      20.16,    20.41,    20.13,    20.96,    19.16
      137.0,      20.25,    20.50,    20.22,    21.05,    19.24
      138.0,      20.34,    20.59,    20.31,    21.14,    19.32
      139.0,      20.43,    20.68,    20.40,    21.24,    19.40
      140.0,      20.52,    20.77,    20.49,    21.33,    19.48
      141.0,      20.60,    20.86,    20.57,    21.42,    19.56
      142.0,      20.69,    20.95,    20.66,    21.52,    19.64
      143.0,      20.78,    21.03,    20.75,    21.61,    19.72
      144.0,      20.87,    21.12,    20.83,    21.70,    19.80
      145.0,      20.95,    21.21,    20.92,    21.79,    19.88
      146.0,      21.04,    21.30,    21.01,    21.88,    19.96
      147.0,      21.12,    21.39,    21.09,    21.98,    20.04
      148.0,      21.21,    21.47,    21.18,    22.07,    20.12
      149.0,      21.30,    21.56,    21.26,    22.16,    20.20
      150.0,      21.38,    21.65,    21.35,    22.25,    20.28
      151.0,      21.47,    21.74,    21.43,    22.34,    20.36
      152.0,      21.55,    21.82,    21.52,    22.43,    20.43
      153.0,      21.64,    21.91,    21.60,    22.52,    20.51
      154.0,      21.72,    22.00,    21.69,    22.61,    20.59
      155.0,      21.81,    22.08,    21.77,    22.71,    20.67
      156.0,      21.91,    22.18,    21.87,    22.83,    20.76
      157.0,      22.01,    22.28,    21.96,    22.95,    20.86
      158.0,      22.13,    22.39,    22.07,    23.10,    20.96
      159.0,      22.25,    22.51,    22.18,    23.25,    21.08
      160.0,      22.38,    22.63,    22.30,    23.41,    21.19
      161.0,      22.50,    22.74,    22.41,    23.55,    21.30
      162.0,      22.61,    22.85,    22.51,    23.68,    21.40
      163.0,      22.70,    22.94,    22.60,    23.77,    21.48
      164.0,      22.76,    23.01,    22.66,    23.82,    21.54
      165.0,      22.79,    23.05,    22.71,    23.82,    21.57
      166.0,      22.79,    23.07,    22.73,    23.78,    21.57
      167.0,      22.76,    23.06,    22.73,    23.70,    21.55
      168.0,      22.71,    23.03,    22.72,    23.59,    21.50
      169.0,      22.65,    22.99,    22.69,    23.46,    21.45
      170.0,      22.57,    22.94,    22.65,    23.31,    21.38
      171.0,      22.49,    22.89,    22.61,    23.17,    21.31
      172.0,      22.42,    22.83,    22.57,    23.03,    21.24
      173.0,      22.34,    22.78,    22.53,    22.90,    21.18
      174.0,      22.28,    22.73,    22.49,    22.77,    21.12
      175.0,      22.21,    22.68,    22.46,    22.65,    21.06
      176.0,      22.15,    22.64,    22.42,    22.54,    21.01
      177.0,      22.09,    22.60,    22.39,    22.43,    20.95
      178.0,      22.03,    22.55,    22.36,    22.32,    20.90
      179.0,      21.97,    22.51,    22.32,    22.21,    20.84
      180.0,      21.91,    22.46,    22.29,    22.11,    20.79
      181.0,      21.86,    22.42,    22.26,    22.00,    20.74
      182.0,      21.80,    22.38,    22.22,    21.91,    20.69
      183.0,      21.74,    22.33,    22.19,    21.81,    20.64
      184.0,      21.69,    22.29,    22.16,    21.72,    20.59
      185.0,      21.64,    22.25,    22.12,    21.62,    20.55
      186.0,      21.58,    22.21,    22.09,    21.53,    20.50
      187.0,      21.53,    22.17,    22.06,    21.45,    20.45
      188.0,      21.48,    22.12,    22.03,    21.36,    20.41
      189.0,      21.43,    22.08,    21.99,    21.28,    20.36
      190.0,      21.38,    22.04,    21.96,    21.19,    20.31
      191.0,      21.33,    22.00,    21.93,    21.11,    20.27
      192.0,      21.28,    21.96,    21.90,    21.04,    20.23
      193.0,      21.23,    21.92,    21.87,    20.96,    20.18
      194.0,      21.18,    21.88,    21.83,    20.89,    20.14
      195.0,      21.14,    21.84,    21.80,    20.81,    20.10
      196.0,      21.09,    21.80,    21.77,    20.74,    20.06
      197.0,      21.05,    21.76,    21.74,    20.67,    20.02
      198.0,      21.00,    21.72,    21.70,    20.60,    19.98
      199.0,      20.96,    21.68,    21.67,    20.54,    19.94
      200.0,      20.91,    21.64,    21.64,    20.47,    19.90
      201.0,      20.87,    21.60,    21.61,    20.41,    19.86
      202.0,      20.83,    21.56,    21.58,    20.35,    19.82
      203.0,      20.78,    21.53,    21.55,    20.28,    19.78
      204.0,      20.74,    21.49,    21.51,    20.22,    19.75
      205.0,      20.70,    21.45,    21.48,    20.17,    19.71
      206.0,      20.66,    21.41,    21.45,    20.11,    19.67
      207.0,      20.62,    21.37,    21.42,    20.05,    19.63
      208.0,      20.58,    21.34,    21.39,    20.00,    19.60
      209.0,      20.54,    21.30,    21.36,    19.94,    19.56
      210.0,      20.50,    21.26,    21.33,    19.89,    19.53
      211.0,      20.46,    21.22,    21.30,    19.84,    19.49
      212.0,      20.42,    21.19,    21.26,    19.79,    19.46
      213.0,      20.39,    21.15,    21.23,    19.74,    19.43
      214.0,      20.35,    21.11,    21.20,    19.69,    19.39
      215.0,      20.31,    21.08,    21.17,    19.64,    19.36
      216.0,      20.28,    21.04,    21.14,    19.59,    19.33
      217.0,      20.24,    21.01,    21.11,    19.55,    19.29
      218.0,      20.20,    20.97,    21.08,    19.50,    19.26
      219.0,      20.17,    20.94,    21.05,    19.46,    19.23
      220.0,      20.13,    20.90,    21.02,    19.41,    19.20
      221.0,      20.10,    20.86,    20.99,    19.37,    19.16
      222.0,      20.06,    20.83,    20.96,    19.33,    19.13
      223.0,      20.03,    20.79,    20.93,    19.28,    19.10
      224.0,      19.99,    20.76,    20.90,    19.24,    19.07
      225.0,      19.96,    20.73,    20.87,    19.20,    19.04
      226.0,      19.93,    20.69,    20.84,    19.16,    19.01
      227.0,      19.89,    20.66,    20.81,    19.13,    18.98
      228.0,      19.86,    20.62,    20.78,    19.09,    18.95
      229.0,      19.83,    20.59,    20.75,    19.05,    18.92
      230.0,      19.79,    20.55,    20.72,    19.01,    18.89
      231.0,      19.76,    20.52,    20.69,    18.98,    18.86
      232.0,      19.73,    20.49,    20.66,    18.94,    18.84
      233.0,      19.70,    20.45,    20.63,    18.90,    18.81
      234.0,      19.67,    20.42,    20.60,    18.87,    18.78
      235.0,      19.63,    20.39,    20.57,    18.83,    18.75
      236.0,      19.60,    20.35,    20.54,    18.80,    18.72
      237.0,      19.57,    20.32,    20.51,    18.77,    18.69
      238.0,      19.54,    20.29,    20.48,    18.73,    18.67
      239.0,      19.51,    20.26,    20.45,    18.70,    18.64
      240.0,      19.48,    20.22,    20.42,    18.67,    18.61
      241.0,      19.45,    20.19,    20.39,    18.64,    18.59
      242.0,      19.42,    20.16,    20.36,    18.61,    18.56
      243.0,      19.39,    20.13,    20.33,    18.58,    18.53
      244.0,      19.36,    20.10,    20.30,    18.55,    18.51
      245.0,      19.33,    20.06,    20.27,    18.52,    18.48
      246.0,      19.30,    20.03,    20.24,    18.49,    18.45
      247.0,      19.27,    20.00,    20.21,    18.46,    18.43
      248.0,      19.25,    19.97,    20.18,    18.43,    18.40
      249.0,      19.22,    19.94,    20.16,    18.40,    18.38
      250.0,      19.19,    19.91,    20.13,    18.37,    18.35
      251.0,      19.16,    19.87,    20.10,    18.34,    18.32
      252.0,      19.13,    19.84,    20.07,    18.31,    18.30
      253.0,      19.10,    19.81,    20.04,    18.29,    18.27
      254.0,      19.08,    19.78,    20.01,    18.26,    18.25
      255.0,      19.05,    19.75,    19.98,    18.23,    18.22
      256.0,      19.02,    19.72,    19.95,    18.21,    18.20
      257.0,      18.99,    19.69,    19.93,    18.18,    18.18
      258.0,      18.97,    19.66,    19.90,    18.15,    18.15
      259.0,      18.94,    19.63,    19.87,    18.13,    18.13
      260.0,      18.91,    19.60,    19.84,    18.10,    18.10
      261.0,      18.88,    19.57,    19.81,    18.08,    18.08
      262.0,      18.86,    19.54,    19.78,    18.05,    18.05
      263.0,      18.83,    19.51,    19.76,    18.03,    18.03
      264.0,      18.80,    19.48,    19.73,    18.00,    18.01
      265.0,      18.78,    19.45,    19.70,    17.98,    17.98
      266.0,      18.75,    19.42,    19.67,    17.96,    17.96
      267.0,      18.73,    19.39,    19.64,    17.93,    17.94
      268.0,      18.70,    19.36,    19.62,    17.91,    17.91
      269.0,      18.67,    19.33,    19.59,    17.88,    17.89
      270.0,      18.65,    19.30,    19.56,    17.86,    17.87
      271.0,      18.62,    19.27,    19.53,    17.84,    17.84
      272.0,      18.60,    19.25,    19.50,    17.82,    17.82
      273.0,      18.57,    19.22,    19.48,    17.79,    17.80
      274.0,      18.55,    19.19,    19.45,    17.77,    17.77
      275.0,      18.52,    19.16,    19.42,    17.75,    17.75
      276.0,      18.49,    19.13,    19.39,    17.73,    17.73
      277.0,      18.47,    19.10,    19.37,    17.70,    17.71
      278.0,      18.44,    19.07,    19.34,    17.68,    17.68
      279.0,      18.42,    19.05,    19.31,    17.66,    17.66
      280.0,      18.39,    19.02,    19.28,    17.64,    17.64
      281.0,      18.37,    18.99,    19.26,    17.62,    17.62
      282.0,      18.34,    18.96,    19.23,    17.59,    17.59
      283.0,      18.32,    18.93,    19.20,    17.57,    17.57
      284.0,      18.30,    18.91,    19.17,    17.55,    17.55
      285.0,      18.27,    18.88,    19.15,    17.53,    17.53
      286.0,      18.25,    18.85,    19.12,    17.51,    17.51
      287.0,      18.22,    18.82,    19.09,    17.49,    17.49
      288.0,      18.20,    18.79,    19.07,    17.47,    17.46
      289.0,      18.17,    18.77,    19.04,    17.45,    17.44
      290.0,      18.15,    18.74,    19.01,    17.43,    17.42
      291.0,      18.13,    18.71,    18.99,    17.41,    17.40
      292.0,      18.10,    18.69,    18.96,    17.39,    17.38
      293.0,      18.08,    18.66,    18.93,    17.37,    17.36
      294.0,      18.05,    18.63,    18.91,    17.35,    17.33
      295.0,      18.03,    18.60,    18.88,    17.33,    17.31
      296.0,      18.01,    18.58,    18.85,    17.31,    17.29
      297.0,      17.98,    18.55,    18.83,    17.29,    17.27
      298.0,      17.96,    18.52,    18.80,    17.27,    17.25
      299.0,      17.94,    18.50,    18.77,    17.25,    17.23
      300.0,      17.91,    18.47,    18.75,    17.23,    17.21
      301.0,      17.89,    18.44,    18.72,    17.21,    17.19
      302.0,      17.87,    18.42,    18.69,    17.19,    17.17
      303.0,      17.84,    18.39,    18.67,    17.17,    17.14
      304.0,      17.82,    18.36,    18.64,    17.15,    17.12
      305.0,      17.80,    18.34,    18.61,    17.13,    17.10
      306.0,      17.77,    18.31,    18.59,    17.11,    17.08
      307.0,      17.75,    18.29,    18.56,    17.10,    17.06
      308.0,      17.73,    18.26,    18.54,    17.08,    17.04
      309.0,      17.71,    18.23,    18.51,    17.06,    17.02
      310.0,      17.68,    18.21,    18.48,    17.04,    17.00
