Radius (km), Mean (m/s), NE (m/s), SE (m/s), SW (m/s), NW (m/s)
        0.0,       0.00,     0.00,     0.00,     0.00,     0.00
        1.0,       1.64,     1.60,     1.71,     1.71,     1.55
        2.0,       2.71,     2.67,     2.77,     2.77,     2.62
        3.0,       3.63,     3.60,     3.68,     3.68,     3.55
        4.0,       4.47,     4.45,     4.50,     4.50,     4.42
        5.0,       5.25,     5.25,     5.26,     5.26,     5.23
        6.0,       5.98,     6.00,     5.97,     5.97,     6.00
        7.0,       6.69,     6.72,     6.65,     6.65,     6.74
        8.0,       7.37,     7.41,     7.30,     7.30,     7.45
        9.0,       8.02,     8.08,     7.93,     7.93,     8.14
       10.0,       8.65,     8.73,     8.53,     8.53,     8.81
       11.0,       9.27,     9.37,     9.12,     9.12,     9.47
       12.0,       9.87,     9.99,     9.69,     9.69,    10.11
       13.0,      10.46,    10.60,    10.25,    10.25,    10.74
       14.0,      11.03,    11.19,    10.79,    10.79,    11.36
       15.0,      11.60,    11.77,    11.33,    11.33,    11.97
       16.0,      12.15,    12.34,    11.85,    11.85,    12.56
       17.0,      12.70,    12.91,    12.36,    12.36,    13.15
       18.0,      13.23,    13.46,    12.87,    12.87,    13.73
       19.0,      13.76,    14.01,    13.36,    13.36,    14.30
       20.0,      14.28,    14.55,    13.85,    13.85,    14.87
       21.0,      14.79,    15.08,    14.33,    14.33,    15.43
       22.0,      15.30,    15.60,    14.80,    14.80,    15.98
       23.0,      15.80,    16.12,    15.27,    15.27,    16.52
       24.0,      16.29,    16.64,    15.73,    15.73,    17.06
       25.0,      16.78,    17.14,    16.19,    16.19,    17.59
       26.0,      17.26,    17.64,    16.64,    16.64,    18.12
       27.0,      17.74,    18.14,    17.08,    17.08,    18.64
       28.0,      18.21,    18.63,    17.52,    17.52,    19.16
       29.0,      18.68,    19.12,    17.96,    17.96,    19.68
       30.0,      19.14,    19.60,    18.39,    18.39,    20.19
       31.0,      19.60,    20.08,    18.81,    18.81,    20.69
       32.0,      20.06,    20.56,    19.24,    19.24,    21.19
       33.0,      20.51,    21.03,    19.65,    19.65,    21.69
       34.0,      20.95,    21.49,    20.07,    20.07,    22.19
       35.0,      21.40,    21.96,    20.48,    20.48,    22.68
       36.0,      21.84,    22.42,    20.89,    20.89,    23.16
       37.0,      22.28,    22.87,    21.29,    21.29,    23.65
       38.0,      22.71,    23.33,    21.69,    21.69,    24.13
       39.0,      23.14,    23.78,    22.09,    22.09,    24.60
       40.0,      23.57,    24.23,    22.48,    22.48,    25.08
       41.0,      23.99,    24.67,    22.88,    22.88,    25.55
       42.0,      24.43,    25.13,    23.29,    23.27,    26.03
       43.0,      24.89,    25.61,    23.72,    23.69,    26.53
       44.0,      25.38,    26.13,    24.19,    24.13,    27.05
       45.0,      25.91,    26.70,    24.69,    24.61,    27.63
       46.0,      26.48,    27.31,    25.23,    25.12,    28.24
       47.0,      27.07,    27.95,    25.79,    25.66,    28.89
       48.0,      27.67,    28.59,    26.34,    26.21,    29.55
       49.0,      28.25,    29.21,    26.86,    26.73,    30.19
       50.0,      28.77,    29.76,    27.32,    27.21,    30.78
       51.0,      29.21,    30.22,    27.71,    27.62,    31.28
       52.0,      29.54,    30.56,    28.00,    27.94,    31.68
       53.0,      29.77,    30.79,    28.19,    28.16,    31.95
       54.0,      29.89,    30.89,    28.29,    28.28,    32.11
       55.0,      29.91,    30.89,    28.31,    28.30,    32.15
       56.0,      29.86,    30.80,    28.26,    28.26,    32.10
       57.0,      29.75,    30.66,    28.17,    28.16,    31.99
       58.0,      29.60,    30.49,    28.07,    28.03,    31.83
       59.0,      29.45,    30.30,    27.95,    27.89,    31.66
       60.0,      29.30,    30.13,    27.84,    27.75,    31.49
       61.0,      29.16,    29.96,    27.74,    27.63,    31.33
       62.0,      29.03,    29.80,    27.64,    27.50,    31.18
       63.0,      28.91,    29.65,    27.55,    27.39,    31.04
       64.0,      28.79,    29.51,    27.46,    27.28,    30.90
       65.0,      28.67,    29.37,    27.37,    27.17,    30.77
       66.0,      28.55,    29.23,    27.28,    27.06,    30.64
       67.0,      28.44,    29.10,    27.19,    26.96,    30.51
       68.0,      28.33,    28.96,    27.11,    26.86,    30.38
       69.0,      28.22,    28.84,    27.02,    26.76,    30.26
       70.0,      28.11,    28.71,    26.94,    26.66,    30.14
       71.0,      28.01,    28.59,    26.86,    26.56,    30.02
       72.0,      27.90,    28.47,    26.78,    26.46,    29.90
       73.0,      27.80,    28.35,    26.71,    26.37,    29.78
       74.0,      27.70,    28.24,    26.63,    26.28,    29.67
       75.0,      27.61,    28.13,    26.55,    26.19,    29.55
       76.0,      27.51,    28.02,    26.48,    26.10,    29.44
       77.0,      27.41,    27.91,    26.41,    26.01,    29.33
       78.0,      27.32,    27.80,    26.34,    25.92,    29.22
       79.0,      27.23,    27.70,    26.27,    25.83,    29.12
       80.0,      27.14,    27.60,    26.20,    25.75,    29.01
       81.0,      27.05,    27.50,    26.13,    25.67,    28.91
       82.0,      26.96,    27.40,    26.06,    25.58,    28.80
       83.0,      26.88,    27.30,    25.99,    25.50,    28.70
       84.0,      26.79,    27.21,    25.93,    25.42,    28.60
       85.0,      26.71,    27.12,    25.86,    25.34,    28.50
       86.0,      26.62,    27.03,    25.80,    25.26,    28.41
       87.0,      26.54,    26.94,    25.74,    25.18,    28.31
       88.0,      26.46,    26.85,    25.67,    25.11,    28.21
       89.0,      26.38,    26.76,    25.61,    25.03,    28.12
       90.0,      26.30,    26.68,    25.55,    24.96,    28.02
       91.0,      26.22,    26.59,    25.49,    24.88,    27.93
       92.0,      26.15,    26.51,    25.43,    24.81,    27.84
       93.0,      26.07,    26.43,    25.37,    24.74,    27.75
       94.0,      26.00,    26.35,    25.31,    24.67,    27.66
       95.0,      25.92,    26.27,    25.26,    24.59,    27.57
       96.0,      25.85,    26.19,    25.20,    24.52,    27.48
       97.0,      25.78,    26.11,    25.14,    24.45,    27.39
       98.0,      25.70,    26.04,    25.09,    24.39,    27.31
       99.0,      25.63,    25.96,    25.03,    24.32,    27.22
      100.0,      25.56,    25.89,    24.98,    24.25,    27.13
      101.0,      25.49,    25.81,    24.92,    24.18,    27.05
      102.0,      25.42,    25.74,    24.87,    24.11,    26.97
      103.0,      25.35,    25.67,    24.82,    24.05,    26.88
      104.0,      25.29,    25.60,    24.76,    23.98,    26.80
      105.0,      25.22,    25.53,    24.71,    23.92,    26.72
      106.0,      25.15,    25.46,    24.66,    23.85,    26.64
      107.0,      25.09,    25.39,    24.61,    23.79,    26.56
      108.0,      25.02,    25.33,    24.56,    23.73,    26.47
      109.0,      24.96,    25.26,    24.51,    23.66,    26.40
      110.0,      24.89,    25.19,    24.46,    23.60,    26.32
      111.0,      24.83,    25.13,    24.41,    23.54,    26.24
      112.0,      24.76,    25.06,    24.36,    23.48,    26.16
      113.0,      24.70,    25.00,    24.31,    23.41,    26.08
      114.0,      24.64,    24.93,    24.26,    23.35,    26.01
      115.0,      24.58,    24.87,    24.21,    23.29,    25.93
      116.0,      24.51,    24.81,    24.16,    23.23,    25.85
      117.0,      24.45,    24.75,    24.11,    23.17,    25.78
      118.0,      24.39,    24.68,    24.07,    23.11,    25.70
      119.0,      24.33,    24.62,    24.02,    23.05,    25.63
      120.0,      24.27,    24.56,    23.97,    22.99,    25.55
      121.0,      24.21,    24.50,    23.93,    22.94,    25.48
      122.0,      24.15,    24.44,    23.88,    22.88,    25.41
      123.0,      24.09,    24.38,    23.83,    22.82,    25.33
      124.0,      24.03,    24.32,    23.79,    22.76,    25.26
      125.0,      23.98,    24.27,    23.74,    22.71,    25.19
      126.0,      23.92,    24.21,    23.70,    22.65,    25.12
      127.0,      23.86,    24.15,    23.65,    22.59,    25.04
      128.0,      23.80,    24.09,    23.61,    22.54,    24.97
      129.0,      23.75,    24.04,    23.56,    22.48,    24.90
      130.0,      23.69,    23.98,    23.52,    22.42,    24.83
      131.0,      23.63,    23.92,    23.47,    22.37,    24.76
      132.0,      23.58,    23.87,    23.43,    22.31,    24.69
      133.0,      23.52,    23.81,    23.39,    22.26,    24.62
      134.0,      23.46,    23.76,    23.34,    22.20,    24.55
      135.0,      23.41,    23.70,    23.30,    22.15,    24.48
      136.0,      23.35,    23.65,    23.26,    22.09,    24.42
      137.0,      23.30,    23.59,    23.21,    22.04,    24.35
      138.0,      23.24,    23.54,    23.17,    21.99,    24.28
      139.0,      23.19,    23.49,    23.13,    21.93,    24.21
      140.0,      23.14,    23.43,    23.09,    21.88,    24.14
      141.0,      23.08,    23.38,    23.04,    21.82,    24.08
      142.0,      23.03,    23.33,    23.00,    21.77,    24.01
      143.0,      22.97,    23.27,    22.96,    21.72,    23.94
      144.0,      22.92,    23.22,    22.92,    21.67,    23.88
      145.0,      22.87,    23.17,    22.88,    21.61,    23.81
      146.0,      22.81,    23.12,    22.84,    21.56,    23.75
      147.0,      22.76,    23.07,    22.79,    21.51,    23.68
      148.0,      22.71,    23.01,    22.75,    21.46,    23.61
      149.0,      22.66,    22.96,    22.71,    21.41,    23.55
      150.0,      22.61,    22.91,    22.67,    21.35,    23.48
      151.0,      22.55,    22.86,    22.63,    21.30,    23.42
      152.0,      22.50,    22.81,    22.59,    21.25,    23.36
      153.0,      22.45,    22.76,    22.55,    21.20,    23.29
      154.0,      22.40,    22.71,    22.51,    21.15,    23.23
      155.0,      22.35,    22.66,    22.47,    21.10,    23.16
      156.0,      22.30,    22.61,    22.43,    21.05,    23.10
      157.0,      22.25,    22.56,    22.39,    21.00,    23.04
      158.0,      22.20,    22.51,    22.35,    20.95,    22.97
      159.0,      22.15,    22.46,    22.31,    20.90,    22.91
      160.0,      22.10,    22.41,    22.27,    20.85,    22.85
      161.0,      22.05,    22.36,    22.23,    20.80,    22.79
      162.0,      22.00,    22.31,    22.19,    20.75,    22.72
      163.0,      21.95,    22.27,    22.15,    20.70,    22.66
      164.0,      21.90,    22.22,    22.11,    20.65,    22.60
      165.0,      21.85,    22.17,    22.08,    20.60,    22.54
      166.0,      21.80,    22.12,    22.04,    20.55,    22.48
      167.0,      21.75,    22.07,    22.00,    20.50,    22.42
      168.0,      21.70,    22.03,    21.96,    20.45,    22.36
      169.0,      21.65,    21.98,    21.92,    20.41,    22.30
      170.0,      21.60,    21.93,    21.88,    20.36,    22.24
      171.0,      21.55,    21.88,    21.84,    20.31,    22.17
      172.0,      21.50,    21.84,    21.81,    20.26,    22.11
      173.0,      21.46,    21.79,    21.77,    20.21,    22.05
      174.0,      21.41,    21.74,    21.73,    20.17,    21.99
      175.0,      21.36,    21.70,    21.69,    20.12,    21.94
      176.0,      21.31,    21.65,    21.65,    20.07,    21.88
      177.0,      21.26,    21.60,    21.62,    20.02,    21.82
      178.0,      21.22,    21.56,    21.58,    19.98,    21.76
      179.0,      21.17,    21.51,    21.54,    19.93,    21.70
      180.0,      21.12,    21.46,    21.50,    19.88,    21.64
      181.0,      21.07,    21.42,    21.47,    19.83,    21.58
      182.0,      21.03,    21.37,    21.43,    19.79,    21.52
      183.0,      20.98,    21.33,    21.39,    19.74,    21.47
      184.0,      20.93,    21.28,    21.35,    19.69,    21.41
      185.0,      20.89,    21.23,    21.32,    19.65,    21.35
      186.0,      20.84,    21.19,    21.28,    19.60,    21.29
      187.0,      20.79,    21.14,    21.24,    19.56,    21.23
      188.0,      20.75,    21.10,    21.21,    19.51,    21.18
      189.0,      20.70,    21.05,    21.17,    19.46,    21.12
      190.0,      20.66,    21.01,    21.13,    19.42,    21.06
      191.0,      20.61,    20.96,    21.10,    19.37,    21.01
      192.0,      20.56,    20.92,    21.06,    19.33,    20.95
      193.0,      20.52,    20.87,    21.02,    19.28,    20.89
      194.0,      20.47,    20.83,    20.99,    19.24,    20.84
      195.0,      20.43,    20.79,    20.95,    19.19,    20.78
      196.0,      20.38,    20.74,    20.91,    19.15,    20.72
      197.0,      20.34,    20.70,    20.88,    19.10,    20.67
      198.0,      20.29,    20.65,    20.84,    19.06,    20.61
      199.0,      20.25,    20.61,    20.81,    19.01,    20.56
      200.0,      20.20,    20.57,    20.77,    18.97,    20.50
      201.0,      20.16,    20.52,    20.73,    18.92,    20.45
      202.0,      20.11,    20.48,    20.70,    18.88,    20.39
      203.0,      20.07,    20.44,    20.66,    18.83,    20.34
      204.0,      20.02,    20.39,    20.63,    18.79,    20.28
      205.0,      19.98,    20.35,    20.59,    18.74,    20.23
      206.0,      19.93,    20.31,    20.56,    18.70,    20.17
      207.0,      19.89,    20.26,    20.52,    18.66,    20.12
      208.0,      19.85,    20.22,    20.49,    18.61,    20.07
      209.0,      19.80,    20.18,    20.45,    18.57,    20.01
      210.0,      19.76,    20.13,    20.41,    18.53,    19.96
      211.0,      19.71,    20.09,    20.38,    18.48,    19.90
      212.0,      19.67,    20.05,    20.34,    18.44,    19.85
      213.0,      19.63,    20.01,    20.31,    18.40,    19.80
      214.0,      19.58,    19.96,    20.27,    18.35,    19.74
      215.0,      19.54,    19.92,    20.24,    18.31,    19.69
      216.0,      19.50,    19.88,    20.20,    18.27,    19.64
      217.0,      19.45,    19.84,    20.17,    18.22,    19.58
      218.0,      19.41,    19.79,    20.14,    18.18,    19.53
      219.0,      19.37,    19.75,    20.10,    18.14,    19.48
      220.0,      19.33,    19.71,    20.07,    18.10,    19.43
      221.0,      19.28,    19.67,    20.03,    18.05,    19.38
      222.0,      19.24,    19.63,    20.00,    18.01,    19.32
      223.0,      19.20,    19.59,    19.96,    17.97,    19.27
      224.0,      19.16,    19.55,    19.93,    17.93,    19.22
      225.0,      19.11,    19.50,    19.89,    17.88,    19.17
      226.0,      19.07,    19.46,    19.86,    17.84,    19.12
      227.0,      19.03,    19.42,    19.83,    17.80,    19.07
      228.0,      18.99,    19.38,    19.79,    17.76,    19.01
      229.0,      18.94,    19.34,    19.76,    17.72,    18.96
      230.0,      18.90,    19.30,    19.72,    17.68,    18.91
      231.0,      18.86,    19.26,    19.69,    17.63,    18.86
      232.0,      18.82,    19.22,    19.66,    17.59,    18.81
      233.0,      18.78,    19.18,    19.62,    17.55,    18.76
      234.0,      18.74,    19.14,    19.59,    17.51,    18.71
      235.0,      18.70,    19.10,    19.56,    17.47,    18.66
      236.0,      18.65,    19.06,    19.52,    17.43,    18.61
      237.0,      18.61,    19.01,    19.49,    17.39,    18.56
      238.0,      18.57,    18.97,    19.45,    17.35,    18.51
      239.0,      18.53,    18.93,    19.42,    17.31,    18.46
      240.0,      18.49,    18.89,    19.39,    17.27,    18.41
      241.0,      18.45,    18.85,    19.36,    17.23,    18.36
      242.0,      18.41,    18.82,    19.32,    17.19,    18.31
      243.0,      18.37,    18.78,    19.29,    17.15,    18.26
      244.0,      18.33,    18.74,    19.26,    17.11,    18.21
      245.0,      18.29,    18.70,    19.22,    17.07,    18.16
      246.0,      18.25,    18.66,    19.19,    17.03,    18.12
      247.0,      18.21,    18.62,    19.16,    16.99,    18.07
      248.0,      18.17,    18.58,    19.12,    16.95,    18.02
      249.0,      18.13,    18.54,    19.09,    16.91,    17.97
      250.0,      18.09,    18.50,    19.06,    16.87,    17.92
      251.0,      18.05,    18.46,    19.03,    16.83,    17.87
      252.0,      18.01,    18.42,    18.99,    16.79,    17.83
      253.0,      17.97,    18.38,    18.96,    16.75,    17.78
      254.0,      17.93,    18.34,    18.93,    16.71,    17.73
      255.0,      17.89,    18.31,    18.90,    16.67,    17.68
      256.0,      17.85,    18.27,    18.86,    16.63,    17.64
      257.0,      17.81,    18.23,    18.83,    16.59,    17.59
      258.0,      17.77,    18.19,    18.80,    16.55,    17.54
      259.0,      17.73,    18.15,    18.77,    16.52,    17.49
      260.0,      17.69,    18.11,    18.73,    16.48,    17.45
      261.0,      17.65,    18.07,    18.70,    16.44,    17.40
      262.0,      17.62,    18.04,    18.67,    16.40,    17.35
      263.0,      17.58,    18.00,    18.64,    16.36,    17.31
      264.0,      17.54,    17.96,    18.61,    16.32,    17.26
      265.0,      17.50,    17.92,    18.57,    16.28,    17.21
      266.0,      17.46,    17.88,    18.54,    16.25,    17.17
      267.0,      17.42,    17.85,    18.51,    16.21,    17.12
      268.0,      17.38,    17.81,    18.48,    16.17,    17.08
      269.0,      17.35,    17.77,    18.45,    16.13,    17.03
      270.0,      17.31,    17.73,    18.42,    16.10,    16.99
      271.0,      17.27,    17.70,    18.38,    16.06,    16.94
      272.0,      17.23,    17.66,    18.35,    16.02,    16.89
      273.0,      17.19,    17.62,    18.32,    15.98,    16.85
      274.0,      17.16,    17.59,    18.29,    15.95,    16.80
      275.0,      17.12,    17.55,    18.26,    15.91,    16.76
      276.0,      17.08,    17.51,    18.23,    15.87,    16.71
      277.0,      17.04,    17.47,    18.20,    15.83,    16.67
      278.0,      17.01,    17.44,    18.17,    15.80,    16.62
      279.0,      16.97,    17.40,    18.13,    15.76,    16.58
      280.0,      16.93,    17.36,    18.10,    15.72,    16.54
      281.0,      16.89,    17.33,    18.07,    15.69,    16.49
      282.0,      16.86,    17.29,    18.04,    15.65,    16.45
      283.0,      16.82,    17.25,    18.01,    15.61,    16.40
      284.0,      16.78,    17.22,    17.98,    15.58,    16.36
      285.0,      16.75,    17.18,    17.95,    15.54,    16.31
      286.0,      16.71,    17.15,    17.92,    15.50,    16.27
      287.0,      16.67,    17.11,    17.89,    15.47,    16.23
      288.0,      16.64,    17.07,    17.86,    15.43,    16.18
      289.0,      16.60,    17.04,    17.83,    15.39,    16.14
      290.0,      16.56,    17.00,    17.80,    15.36,    16.10
      291.0,      16.53,    16.97,    17.76,    15.32,    16.05
      292.0,      16.49,    16.93,    17.73,    15.29,    16.01
      293.0,      16.45,    16.89,    17.70,    15.25,    15.97
      294.0,      16.42,    16.86,    17.67,    15.22,    15.93
      295.0,      16.38,    16.82,    17.64,    15.18,    15.88
      296.0,      16.35,    16.79,    17.61,    15.14,    15.84
      297.0,      16.31,    16.75,    17.58,    15.11,    15.80
      298.0,      16.27,    16.72,    17.55,    15.07,    15.76
      299.0,      16.24,    16.68,    17.52,    15.04,    15.71
      300.0,      16.20,    16.65,    17.49,    15.00,    15.67
      301.0,      16.17,    16.61,    17.46,    14.97,    15.63
      302.0,      16.13,    16.58,    17.43,    14.93,    15.59
      303.0,      16.10,    16.54,    17.40,    14.90,    15.55
      304.0,      16.06,    16.51,    17.37,    14.86,    15.50
      305.0,      16.03,    16.47,    17.34,    14.83,    15.46
      306.0,      15.99,    16.44,    17.31,    14.79,    15.42
      307.0,      15.96,    16.40,    17.28,    14.76,    15.38
      308.0,      15.92,    16.37,    17.25,    14.72,    15.34
      309.0,      15.89,    16.33,    17.23,    14.69,    15.30
      310.0,      15.85,    16.30,    17.20,    14.66,    15.26
