Radius (km), Mean (m/s), NE (m/s), SE (m/s), SW (m/s), NW (m/s)
        0.0,       0.00,     0.00,     0.00,     0.00,     0.00
        1.0,       1.18,     1.41,     0.96,     0.96,     1.41
        2.0,       2.01,     2.29,     1.74,     1.74,     2.29
        3.0,       2.75,     3.03,     2.48,     2.48,     3.03
        4.0,       3.44,     3.70,     3.18,     3.18,     3.70
        5.0,       4.09,     4.32,     3.87,     3.87,     4.32
        6.0,       4.72,     4.90,     4.53,     4.53,     4.90
        7.0,       5.32,     5.46,     5.18,     5.18,     5.46
        8.0,       5.90,     5.99,     5.81,     5.81,     5.99
        9.0,       6.47,     6.50,     6.44,     6.44,     6.50
       10.0,       7.03,     6.99,     7.06,     7.06,     6.99
       11.0,       7.57,     7.47,     7.67,     7.67,     7.47
       12.0,       8.10,     7.94,     8.27,     8.27,     7.94
       13.0,       8.63,     8.39,     8.86,     8.86,     8.39
       14.0,       9.15,     8.84,     9.45,     9.45,     8.84
       15.0,       9.65,     9.27,    10.04,    10.04,     9.27
       16.0,      10.16,     9.70,    10.62,    10.62,     9.70
       17.0,      10.65,    10.11,    11.19,    11.19,    10.11
       18.0,      11.14,    10.52,    11.76,    11.76,    10.52
       19.0,      11.63,    10.93,    12.32,    12.32,    10.93
       20.0,      12.10,    11.32,    12.89,    12.89,    11.32
       21.0,      12.58,    11.71,    13.44,    13.44,    11.71
       22.0,      13.05,    12.10,    14.00,    14.00,    12.10
       23.0,      13.51,    12.48,    14.55,    14.55,    12.48
       24.0,      13.98,    12.85,    15.10,    15.10,    12.85
       25.0,      14.43,    13.22,    15.64,    15.64,    13.22
       26.0,      14.89,    13.59,    16.18,    16.18,    13.59
       27.0,      15.34,    13.95,    16.72,    16.72,    13.95
       28.0,      15.78,    14.31,    17.26,    17.26,    14.31
       29.0,      16.23,    14.66,    17.79,    17.79,    14.66
       30.0,      16.67,    15.01,    18.33,    18.33,    15.01
       31.0,      17.11,    15.36,    18.86,    18.86,    15.36
       32.0,      17.54,    15.70,    19.38,    19.38,    15.70
       33.0,      17.97,    16.04,    19.91,    19.91,    16.04
       34.0,      18.40,    16.37,    20.43,    20.43,    16.37
       35.0,      18.83,    16.71,    20.95,    20.95,    16.71
       36.0,      19.25,    17.04,    21.47,    21.47,    17.04
       37.0,      19.68,    17.36,    21.99,    21.99,    17.36
       38.0,      20.10,    17.69,    22.50,    22.50,    17.69
       39.0,      20.51,    18.01,    23.02,    23.02,    18.01
       40.0,      20.93,    18.33,    23.53,    23.53,    18.33
       41.0,      21.34,    18.65,    24.04,    24.04,    18.65
       42.0,      21.76,    18.96,    24.55,    24.55,    18.96
       43.0,      22.17,    19.28,    25.05,    25.05,    19.28
       44.0,      22.57,    19.59,    25.56,    25.56,    19.59
       45.0,      22.98,    19.90,    26.06,    26.06,    19.90
       46.0,      23.38,    20.20,    26.57,    26.57,    20.20
       47.0,      23.79,    20.51,    27.07,    27.07,    20.51
       48.0,      24.19,    20.81,    27.57,    27.57,    20.81
       49.0,      24.59,    21.11,    28.06,    28.06,    21.11
       50.0,      24.98,    21.41,    28.56,    28.56,    21.41
       51.0,      25.38,    21.70,    29.06,    29.06,    21.70
       52.0,      25.77,    22.00,    29.55,    29.55,    22.00
       53.0,      26.17,    22.29,    30.04,    30.04,    22.29
       54.0,      26.56,    22.58,    30.54,    30.54,    22.58
       55.0,      26.95,    22.87,    31.03,    31.03,    22.87
       56.0,      27.34,    23.16,    31.52,    31.52,    23.16
       57.0,      27.73,    23.45,    32.00,    32.00,    23.45
       58.0,      28.11,    23.73,    32.49,    32.49,    23.73
       59.0,      28.50,    24.02,    32.98,    32.98,    24.02
       60.0,      28.89,    24.30,    33.47,    33.49,    24.30
       61.0,      29.30,    24.59,    33.98,    34.04,    24.58
       62.0,      29.74,    24.89,    34.54,    34.67,    24.87
       63.0,      30.24,    25.22,    35.16,    35.40,    25.18
       64.0,      30.80,    25.59,    35.87,    36.23,    25.51
       65.0,      31.42,    26.00,    36.66,    37.13,    25.88
       66.0,      32.06,    26.44,    37.49,    38.07,    26.26
       67.0,      32.71,    26.88,    38.32,    38.97,    26.66
       68.0,      33.30,    27.31,    39.09,    39.76,    27.05
       69.0,      33.81,    27.68,    39.74,    40.39,    27.41
       70.0,      34.19,    27.98,    40.24,    40.81,    27.72
       71.0,      34.42,    28.18,    40.53,    40.99,    27.95
       72.0,      34.48,    28.28,    40.62,    40.94,    28.10
       73.0,      34.40,    28.26,    40.50,    40.67,    28.16
       74.0,      34.18,    28.15,    40.21,    40.23,    28.14
       75.0,      33.86,    27.95,    39.80,    39.66,    28.04
       76.0,      33.48,    27.70,    39.30,    39.03,    27.89
       77.0,      33.06,    27.41,    38.76,    38.38,    27.71
       78.0,      32.65,    27.11,    38.22,    37.75,    27.51
       79.0,      32.24,    26.82,    37.70,    37.14,    27.31
       80.0,      31.86,    26.54,    37.22,    36.57,    27.12
       81.0,      31.50,    26.28,    36.76,    36.03,    26.94
       82.0,      31.16,    26.02,    36.33,    35.52,    26.77
       83.0,      30.83,    25.77,    35.92,    35.02,    26.60
       84.0,      30.51,    25.53,    35.52,    34.55,    26.44
       85.0,      30.20,    25.28,    35.14,    34.09,    26.27
       86.0,      29.89,    25.04,    34.77,    33.65,    26.11
       87.0,      29.60,    24.81,    34.41,    33.22,    25.95
       88.0,      29.31,    24.58,    34.06,    32.81,    25.79
       89.0,      29.03,    24.35,    33.72,    32.41,    25.63
       90.0,      28.76,    24.12,    33.40,    32.03,    25.48
       91.0,      28.49,    23.90,    33.09,    31.67,    25.32
       92.0,      28.24,    23.68,    32.79,    31.31,    25.17
       93.0,      27.99,    23.46,    32.49,    30.97,    25.01
       94.0,      27.74,    23.25,    32.21,    30.65,    24.86
       95.0,      27.50,    23.04,    31.94,    30.33,    24.71
       96.0,      27.27,    22.83,    31.67,    30.02,    24.56
       97.0,      27.05,    22.63,    31.42,    29.73,    24.41
       98.0,      26.83,    22.43,    31.17,    29.45,    24.27
       99.0,      26.61,    22.23,    30.93,    29.17,    24.12
      100.0,      26.40,    22.03,    30.70,    28.91,    23.98
      101.0,      26.20,    21.84,    30.47,    28.65,    23.83
      102.0,      26.00,    21.65,    30.25,    28.41,    23.69
      103.0,      25.81,    21.46,    30.04,    28.17,    23.55
      104.0,      25.62,    21.28,    29.84,    27.94,    23.41
      105.0,      25.43,    21.09,    29.64,    27.72,    23.27
      106.0,      25.25,    20.91,    29.45,    27.51,    23.13
      107.0,      25.07,    20.74,    29.26,    27.30,    22.99
      108.0,      24.90,    20.56,    29.08,    27.11,    22.86
      109.0,      24.73,    20.39,    28.90,    26.91,    22.72
      110.0,      24.57,    20.22,    28.73,    26.73,    22.59
      111.0,      24.41,    20.05,    28.57,    26.55,    22.46
      112.0,      24.25,    19.89,    28.41,    26.38,    22.33
      113.0,      24.09,    19.72,    28.25,    26.21,    22.20
      114.0,      23.94,    19.56,    28.10,    26.05,    22.07
      115.0,      23.80,    19.40,    27.95,    25.89,    21.94
      116.0,      23.65,    19.25,    27.81,    25.74,    21.81
      117.0,      23.51,    19.09,    27.67,    25.59,    21.68
      118.0,      23.37,    18.94,    27.53,    25.45,    21.56
      119.0,      23.23,    18.79,    27.40,    25.32,    21.43
      120.0,      23.10,    18.64,    27.27,    25.18,    21.31
      121.0,      22.97,    18.50,    27.14,    25.06,    21.19
      122.0,      22.84,    18.35,    27.02,    24.93,    21.07
      123.0,      22.72,    18.21,    26.90,    24.81,    20.95
      124.0,      22.59,    18.07,    26.78,    24.69,    20.83
      125.0,      22.47,    17.94,    26.67,    24.58,    20.71
      126.0,      22.36,    17.80,    26.56,    24.47,    20.59
      127.0,      22.24,    17.67,    26.45,    24.37,    20.48
      128.0,      22.12,    17.53,    26.34,    24.26,    20.36
      129.0,      22.01,    17.40,    26.24,    24.16,    20.24
      130.0,      21.90,    17.27,    26.14,    24.07,    20.13
      131.0,      21.79,    17.15,    26.04,    23.97,    20.02
      132.0,      21.69,    17.02,    25.94,    23.88,    19.91
      133.0,      21.58,    16.90,    25.85,    23.79,    19.79
      134.0,      21.48,    16.78,    25.76,    23.70,    19.68
      135.0,      21.38,    16.66,    25.67,    23.62,    19.57
      136.0,      21.28,    16.54,    25.58,    23.54,    19.47
      137.0,      21.18,    16.42,    25.49,    23.46,    19.36
      138.0,      21.09,    16.31,    25.41,    23.38,    19.25
      139.0,      20.99,    16.20,    25.32,    23.31,    19.14
      140.0,      20.90,    16.08,    25.24,    23.23,    19.04
      141.0,      20.81,    15.97,    25.16,    23.16,    18.93
      142.0,      20.72,    15.86,    25.08,    23.09,    18.83
      143.0,      20.63,    15.76,    25.00,    23.02,    18.73
      144.0,      20.54,    15.65,    24.93,    22.96,    18.63
      145.0,      20.46,    15.55,    24.85,    22.89,    18.53
      146.0,      20.37,    15.44,    24.78,    22.83,    18.42
      147.0,      20.29,    15.34,    24.71,    22.77,    18.33
      148.0,      20.20,    15.24,    24.64,    22.71,    18.23
      149.0,      20.12,    15.14,    24.57,    22.65,    18.13
      150.0,      20.04,    15.05,    24.50,    22.59,    18.03
      151.0,      19.96,    14.95,    24.43,    22.54,    17.93
      152.0,      19.89,    14.85,    24.36,    22.48,    17.84
      153.0,      19.81,    14.76,    24.30,    22.43,    17.74
      154.0,      19.73,    14.67,    24.23,    22.38,    17.65
      155.0,      19.66,    14.58,    24.17,    22.33,    17.56
      156.0,      19.58,    14.49,    24.11,    22.28,    17.46
      157.0,      19.51,    14.40,    24.04,    22.23,    17.37
      158.0,      19.44,    14.31,    23.98,    22.18,    17.28
      159.0,      19.37,    14.22,    23.92,    22.13,    17.19
      160.0,      19.30,    14.14,    23.86,    22.09,    17.10
      161.0,      19.23,    14.06,    23.80,    22.04,    17.01
      162.0,      19.16,    13.97,    23.74,    22.00,    16.92
      163.0,      19.09,    13.89,    23.69,    21.95,    16.83
      164.0,      19.02,    13.81,    23.63,    21.91,    16.75
      165.0,      18.96,    13.73,    23.57,    21.87,    16.66
      166.0,      18.89,    13.65,    23.52,    21.83,    16.57
      167.0,      18.83,    13.57,    23.46,    21.78,    16.49
      168.0,      18.76,    13.50,    23.41,    21.74,    16.40
      169.0,      18.70,    13.42,    23.35,    21.71,    16.32
      170.0,      18.64,    13.35,    23.30,    21.67,    16.24
      171.0,      18.58,    13.27,    23.25,    21.63,    16.15
      172.0,      18.51,    13.20,    23.19,    21.59,    16.07
      173.0,      18.45,    13.13,    23.14,    21.55,    15.99
      174.0,      18.39,    13.06,    23.09,    21.52,    15.91
      175.0,      18.33,    12.99,    23.04,    21.48,    15.83
      176.0,      18.28,    12.92,    22.99,    21.44,    15.75
      177.0,      18.22,    12.85,    22.94,    21.41,    15.67
      178.0,      18.16,    12.78,    22.89,    21.37,    15.59
      179.0,      18.10,    12.72,    22.84,    21.34,    15.51
      180.0,      18.05,    12.65,    22.79,    21.31,    15.44
      181.0,      17.99,    12.59,    22.74,    21.27,    15.36
      182.0,      17.94,    12.52,    22.69,    21.24,    15.28
      183.0,      17.88,    12.46,    22.65,    21.21,    15.21
      184.0,      17.83,    12.40,    22.60,    21.17,    15.13
      185.0,      17.77,    12.34,    22.55,    21.14,    15.06
      186.0,      17.72,    12.28,    22.50,    21.11,    14.99
      187.0,      17.67,    12.22,    22.46,    21.08,    14.91
      188.0,      17.61,    12.16,    22.41,    21.05,    14.84
      189.0,      17.56,    12.10,    22.36,    21.02,    14.77
      190.0,      17.51,    12.04,    22.32,    20.99,    14.70
      191.0,      17.46,    11.99,    22.27,    20.96,    14.63
      192.0,      17.41,    11.93,    22.23,    20.93,    14.56
      193.0,      17.36,    11.87,    22.18,    20.90,    14.49
      194.0,      17.31,    11.82,    22.14,    20.87,    14.42
      195.0,      17.26,    11.77,    22.09,    20.84,    14.35
      196.0,      17.21,    11.71,    22.05,    20.81,    14.28
      197.0,      17.16,    11.66,    22.00,    20.78,    14.21
      198.0,      17.12,    11.61,    21.96,    20.75,    14.14
      199.0,      17.07,    11.56,    21.92,    20.73,    14.08
      200.0,      17.02,    11.51,    21.87,    20.70,    14.01
      201.0,      16.98,    11.46,    21.83,    20.67,    13.94
      202.0,      16.93,    11.41,    21.79,    20.64,    13.88
      203.0,      16.88,    11.36,    21.74,    20.61,    13.81
      204.0,      16.84,    11.31,    21.70,    20.59,    13.75
      205.0,      16.79,    11.26,    21.66,    20.56,    13.69
      206.0,      16.75,    11.21,    21.62,    20.53,    13.62
      207.0,      16.70,    11.17,    21.58,    20.51,    13.56
      208.0,      16.66,    11.12,    21.53,    20.48,    13.50
      209.0,      16.61,    11.08,    21.49,    20.45,    13.44
      210.0,      16.57,    11.03,    21.45,    20.43,    13.37
      211.0,      16.53,    10.99,    21.41,    20.40,    13.31
      212.0,      16.48,    10.94,    21.37,    20.37,    13.25
      213.0,      16.44,    10.90,    21.33,    20.35,    13.19
      214.0,      16.40,    10.86,    21.29,    20.32,    13.13
      215.0,      16.36,    10.82,    21.24,    20.30,    13.07
      216.0,      16.32,    10.77,    21.20,    20.27,    13.02
      217.0,      16.28,    10.73,    21.16,    20.25,    12.96
      218.0,      16.23,    10.69,    21.12,    20.22,    12.90
      219.0,      16.19,    10.65,    21.08,    20.20,    12.84
      220.0,      16.15,    10.61,    21.04,    20.17,    12.78
      221.0,      16.11,    10.57,    21.00,    20.15,    12.73
      222.0,      16.07,    10.54,    20.96,    20.12,    12.67
      223.0,      16.03,    10.50,    20.92,    20.10,    12.62
      224.0,      15.99,    10.46,    20.88,    20.07,    12.56
      225.0,      15.95,    10.42,    20.84,    20.05,    12.51
      226.0,      15.92,    10.38,    20.80,    20.02,    12.45
      227.0,      15.88,    10.35,    20.76,    20.00,    12.40
      228.0,      15.84,    10.31,    20.73,    19.97,    12.34
      229.0,      15.80,    10.28,    20.69,    19.95,    12.29
      230.0,      15.76,    10.24,    20.65,    19.93,    12.24
      231.0,      15.72,    10.21,    20.61,    19.90,    12.18
      232.0,      15.69,    10.17,    20.57,    19.88,    12.13
      233.0,      15.65,    10.14,    20.53,    19.85,    12.08
      234.0,      15.61,    10.10,    20.49,    19.83,    12.03
      235.0,      15.58,    10.07,    20.45,    19.81,    11.98
      236.0,      15.54,    10.04,    20.42,    19.78,    11.93
      237.0,      15.50,    10.00,    20.38,    19.76,    11.88
      238.0,      15.47,     9.97,    20.34,    19.73,    11.83
      239.0,      15.43,     9.94,    20.30,    19.71,    11.78
      240.0,      15.40,     9.91,    20.26,    19.69,    11.73
      241.0,      15.36,     9.88,    20.23,    19.66,    11.68
      242.0,      15.33,     9.85,    20.19,    19.64,    11.63
      243.0,      15.29,     9.82,    20.15,    19.62,    11.58
      244.0,      15.26,     9.79,    20.11,    19.59,    11.53
      245.0,      15.22,     9.76,    20.08,    19.57,    11.49
      246.0,      15.19,     9.73,    20.04,    19.55,    11.44
      247.0,      15.15,     9.70,    20.00,    19.52,    11.39
      248.0,      15.12,     9.67,    19.96,    19.50,    11.34
      249.0,      15.09,     9.64,    19.93,    19.48,    11.30
      250.0,      15.05,     9.61,    19.89,    19.46,    11.25
      251.0,      15.02,     9.58,    19.85,    19.43,    11.21
      252.0,      14.99,     9.56,    19.82,    19.41,    11.16
      253.0,      14.95,     9.53,    19.78,    19.39,    11.12
      254.0,      14.92,     9.50,    19.74,    19.36,    11.07
      255.0,      14.89,     9.48,    19.71,    19.34,    11.03
      256.0,      14.86,     9.45,    19.67,    19.32,    10.98
      257.0,      14.82,     9.42,    19.63,    19.30,    10.94
      258.0,      14.79,     9.40,    19.60,    19.27,    10.90
      259.0,      14.76,     9.37,    19.56,    19.25,    10.85
      260.0,      14.73,     9.35,    19.52,    19.23,    10.81
      261.0,      14.70,     9.32,    19.49,    19.21,    10.77
      262.0,      14.67,     9.30,    19.45,    19.18,    10.73
      263.0,      14.63,     9.27,    19.42,    19.16,    10.69
      264.0,      14.60,     9.25,    19.38,    19.14,    10.64
      265.0,      14.57,     9.22,    19.35,    19.12,    10.60
      266.0,      14.54,     9.20,    19.31,    19.09,    10.56
      267.0,      14.51,     9.18,    19.27,    19.07,    10.52
      268.0,      14.48,     9.15,    19.24,    19.05,    10.48
      269.0,      14.45,     9.13,    19.20,    19.03,    10.44
      270.0,      14.42,     9.11,    19.17,    19.01,    10.40
      271.0,      14.39,     9.08,    19.13,    18.98,    10.36
      272.0,      14.36,     9.06,    19.10,    18.96,    10.32
      273.0,      14.33,     9.04,    19.06,    18.94,    10.28
      274.0,      14.30,     9.02,    19.03,    18.92,    10.24
      275.0,      14.27,     9.00,    18.99,    18.90,    10.21
      276.0,      14.24,     8.97,    18.96,    18.87,    10.17
      277.0,      14.21,     8.95,    18.92,    18.85,    10.13
      278.0,      14.18,     8.93,    18.89,    18.83,    10.09
      279.0,      14.16,     8.91,    18.85,    18.81,    10.05
      280.0,      14.13,     8.89,    18.82,    18.79,    10.02
      281.0,      14.10,     8.87,    18.78,    18.77,     9.98
      282.0,      14.07,     8.85,    18.75,    18.74,     9.94
      283.0,      14.04,     8.83,    18.71,    18.72,     9.91
      284.0,      14.01,     8.81,    18.68,    18.70,     9.87
      285.0,      13.99,     8.79,    18.64,    18.68,     9.83
      286.0,      13.96,     8.77,    18.61,    18.66,     9.80
      287.0,      13.93,     8.75,    18.58,    18.64,     9.76
      288.0,      13.90,     8.73,    18.54,    18.61,     9.73
      289.0,      13.88,     8.71,    18.51,    18.59,     9.69
      290.0,      13.85,     8.69,    18.47,    18.57,     9.66
      291.0,      13.82,     8.67,    18.44,    18.55,     9.62
      292.0,      13.79,     8.65,    18.41,    18.53,     9.59
      293.0,      13.77,     8.64,    18.37,    18.51,     9.56
      294.0,      13.74,     8.62,    18.34,    18.49,     9.52
      295.0,      13.71,     8.60,    18.30,    18.46,     9.49
      296.0,      13.69,     8.58,    18.27,    18.44,     9.46
      297.0,      13.66,     8.56,    18.24,    18.42,     9.42
      298.0,      13.64,     8.55,    18.20,    18.40,     9.39
      299.0,      13.61,     8.53,    18.17,    18.38,     9.36
      300.0,      13.58,     8.51,    18.14,    18.36,     9.32
      301.0,      13.56,     8.49,    18.10,    18.34,     9.29
      302.0,      13.53,     8.48,    18.07,    18.32,     9.26
      303.0,      13.51,     8.46,    18.04,    18.29,     9.23
      304.0,      13.48,     8.44,    18.00,    18.27,     9.20
      305.0,      13.45,     8.43,    17.97,    18.25,     9.17
      306.0,      13.43,     8.41,    17.94,    18.23,     9.13
      307.0,      13.40,     8.39,    17.90,    18.21,     9.10
      308.0,      13.38,     8.38,    17.87,    18.19,     9.07
      309.0,      13.35,     8.36,    17.84,    18.17,     9.04
      310.0,      13.33,     8.35,    17.81,    18.15,     9.01
