Radius (km), Mean (m/s), NE (m/s), SE (m/s), SW (m/s), NW (m/s)
        0.0,       0.00,     0.00,     0.00,     0.00,     0.00
        1.0,       1.03,     1.02,     1.02,     1.00,     1.08
        2.0,       1.58,     1.56,     1.57,     1.55,     1.63
        3.0,       2.02,     2.01,     2.01,     1.99,     2.07
        4.0,       2.41,     2.40,     2.40,     2.38,     2.45
        5.0,       2.76,     2.75,     2.75,     2.74,     2.79
        6.0,       3.08,     3.08,     3.08,     3.07,     3.10
        7.0,       3.39,     3.38,     3.38,     3.38,     3.40
        8.0,       3.67,     3.67,     3.67,     3.67,     3.67
        9.0,       3.95,     3.95,     3.95,     3.95,     3.94
       10.0,       4.21,     4.22,     4.22,     4.22,     4.19
       11.0,       4.46,     4.47,     4.47,     4.48,     4.43
       12.0,       4.71,     4.72,     4.72,     4.73,     4.66
       13.0,       4.94,     4.96,     4.95,     4.97,     4.88
       14.0,       5.17,     5.19,     5.19,     5.20,     5.10
       15.0,       5.39,     5.41,     5.41,     5.43,     5.31
       16.0,       5.61,     5.63,     5.63,     5.66,     5.52
       17.0,       5.82,     5.85,     5.84,     5.87,     5.72
       18.0,       6.03,     6.06,     6.05,     6.09,     5.91
       19.0,       6.23,     6.26,     6.26,     6.29,     6.10
       20.0,       6.43,     6.46,     6.46,     6.50,     6.29
       21.0,       6.62,     6.66,     6.66,     6.70,     6.47
       22.0,       6.81,     6.86,     6.85,     6.90,     6.65
       23.0,       7.00,     7.05,     7.04,     7.09,     6.83
       24.0,       7.19,     7.23,     7.23,     7.28,     7.00
       25.0,       7.37,     7.42,     7.41,     7.47,     7.17
       26.0,       7.55,     7.60,     7.59,     7.66,     7.34
       27.0,       7.72,     7.78,     7.77,     7.84,     7.50
       28.0,       7.89,     7.96,     7.94,     8.02,     7.66
       29.0,       8.07,     8.13,     8.12,     8.19,     7.82
       30.0,       8.23,     8.30,     8.29,     8.37,     7.98
       31.0,       8.40,     8.47,     8.46,     8.54,     8.13
       32.0,       8.57,     8.64,     8.62,     8.71,     8.29
       33.0,       8.73,     8.80,     8.79,     8.88,     8.44
       34.0,       8.89,     8.97,     8.95,     9.05,     8.59
       35.0,       9.05,     9.13,     9.11,     9.21,     8.74
       36.0,       9.21,     9.29,     9.27,     9.38,     8.88
       37.0,       9.36,     9.45,     9.43,     9.54,     9.02
       38.0,       9.51,     9.60,     9.59,     9.70,     9.17
       39.0,       9.67,     9.76,     9.74,     9.86,     9.31
       40.0,       9.82,     9.91,     9.89,    10.02,     9.45
       41.0,       9.97,    10.06,    10.05,    10.17,     9.58
       42.0,      10.11,    10.21,    10.20,    10.32,     9.72
       43.0,      10.26,    10.36,    10.34,    10.48,     9.86
       44.0,      10.41,    10.51,    10.49,    10.63,     9.99
       45.0,      10.55,    10.66,    10.64,    10.78,    10.12
       46.0,      10.69,    10.80,    10.78,    10.93,    10.25
       47.0,      10.83,    10.95,    10.93,    11.08,    10.38
       48.0,      10.97,    11.09,    11.07,    11.22,    10.51
       49.0,      11.11,    11.23,    11.21,    11.37,    10.64
       50.0,      11.25,    11.37,    11.35,    11.51,    10.77
       51.0,      11.39,    11.51,    11.49,    11.65,    10.89
       52.0,      11.52,    11.65,    11.63,    11.80,    11.02
       53.0,      11.66,    11.79,    11.77,    11.94,    11.14
       54.0,      11.79,    11.93,    11.90,    12.08,    11.27
       55.0,      11.93,    12.06,    12.04,    12.22,    11.39
       56.0,      12.06,    12.20,    12.17,    12.35,    11.51
       57.0,      12.19,    12.33,    12.30,    12.49,    11.63
       58.0,      12.32,    12.46,    12.44,    12.63,    11.75
       59.0,      12.45,    12.60,    12.57,    12.76,    11.87
       60.0,      12.58,    12.73,    12.70,    12.90,    11.98
       61.0,      12.70,    12.86,    12.83,    13.03,    12.10
       62.0,      12.83,    12.99,    12.96,    13.16,    12.22
       63.0,      12.96,    13.12,    13.09,    13.30,    12.33
       64.0,      13.08,    13.24,    13.21,    13.43,    12.45
       65.0,      13.21,    13.37,    13.34,    13.56,    12.56
       66.0,      13.33,    13.50,    13.47,    13.69,    12.67
       67.0,      13.45,    13.62,    13.59,    13.82,    12.79
       68.0,      13.58,    13.75,    13.72,    13.94,    12.90
       69.0,      13.70,    13.87,    13.84,    14.07,    13.01
       70.0,      13.82,    14.00,    13.96,    14.20,    13.12
       71.0,      13.94,    14.12,    14.08,    14.33,    13.23
       72.0,      14.06,    14.24,    14.21,    14.45,    13.34
       73.0,      14.18,    14.36,    14.33,    14.58,    13.45
       74.0,      14.30,    14.48,    14.45,    14.70,    13.55
       75.0,      14.41,    14.60,    14.57,    14.82,    13.66
       76.0,      14.53,    14.72,    14.69,    14.95,    13.77
       77.0,      14.65,    14.84,    14.81,    15.07,    13.87
       78.0,      14.76,    14.96,    14.92,    15.19,    13.98
       79.0,      14.88,    15.08,    15.04,    15.31,    14.08
       80.0,      14.99,    15.20,    15.16,    15.43,    14.19
       81.0,      15.11,    15.31,    15.27,    15.55,    14.29
       82.0,      15.22,    15.43,    15.39,    15.67,    14.40
       83.0,      15.34,    15.55,    15.51,    15.79,    14.50
       84.0,      15.45,    15.66,    15.62,    15.91,    14.60
       85.0,      15.56,    15.78,    15.73,    16.03,    14.70
       86.0,      15.67,    15.89,    15.85,    16.15,    14.80
       87.0,      15.78,    16.00,    15.96,    16.26,    14.90
       88.0,      15.89,    16.12,    16.07,    16.38,    15.01
       89.0,      16.00,    16.23,    16.19,    16.49,    15.11
       90.0,      16.11,    16.34,    16.30,    16.61,    15.20
       91.0,      16.22,    16.45,    16.41,    16.72,    15.30
       92.0,      16.33,    16.57,    16.52,    16.84,    15.40
       93.0,      16.44,    16.68,    16.63,    16.95,    15.50
       94.0,      16.55,    16.79,    16.74,    17.07,    15.60
       95.0,      16.65,    16.90,    16.85,    17.18,    15.69
       96.0,      16.76,    17.01,    16.96,    17.29,    15.79
       97.0,      16.87,    17.12,    17.07,    17.40,    15.89
       98.0,      16.97,    17.22,    17.17,    17.52,    15.98
       99.0,      17.08,    17.33,    17.28,    17.63,    16.08
      100.0,      17.19,    17.44,    17.39,    17.74,    16.17
      101.0,      17.29,    17.55,    17.50,    17.85,    16.27
      102.0,      17.39,    17.65,    17.60,    17.96,    16.36
      103.0,      17.50,    17.76,    17.71,    18.07,    16.46
      104.0,      17.60,    17.87,    17.81,    18.18,    16.55
      105.0,      17.71,    17.97,    17.92,    18.29,    16.64
      106.0,      17.81,    18.08,    18.02,    18.39,    16.74
      107.0,      17.91,    18.18,    18.13,    18.50,    16.83
      108.0,      18.01,    18.29,    18.23,    18.61,    16.92
      109.0,      18.11,    18.39,    18.34,    18.72,    17.01
      110.0,      18.22,    18.50,    18.44,    18.82,    17.10
      111.0,      18.32,    18.60,    18.54,    18.93,    17.20
      112.0,      18.42,    18.70,    18.65,    19.04,    17.29
      113.0,      18.52,    18.80,    18.75,    19.14,    17.38
      114.0,      18.62,    18.91,    18.85,    19.25,    17.47
      115.0,      18.72,    19.01,    18.95,    19.35,    17.56
      116.0,      18.82,    19.11,    19.05,    19.46,    17.65
      117.0,      18.92,    19.21,    19.15,    19.56,    17.74
      118.0,      19.01,    19.31,    19.25,    19.67,    17.82
      119.0,      19.11,    19.41,    19.35,    19.77,    17.91
      120.0,      19.21,    19.51,    19.45,    19.87,    18.00
      121.0,      19.31,    19.61,    19.55,    19.98,    18.09
      122.0,      19.41,    19.71,    19.65,    20.08,    18.18
      123.0,      19.50,    19.81,    19.75,    20.18,    18.26
      124.0,      19.60,    19.91,    19.85,    20.28,    18.35
      125.0,      19.70,    20.01,    19.95,    20.39,    18.44
      126.0,      19.79,    20.11,    20.05,    20.49,    18.52
      127.0,      19.89,    20.21,    20.15,    20.59,    18.61
      128.0,      19.98,    20.31,    20.24,    20.69,    18.70
      129.0,      20.08,    20.40,    20.34,    20.79,    18.78
      130.0,      20.17,    20.50,    20.44,    20.89,    18.87
      131.0,      20.27,    20.60,    20.53,    20.99,    18.95
      132.0,      20.36,    20.70,    20.63,    21.09,    19.04
      133.0,      20.46,    20.79,    20.73,    21.19,    19.12
      134.0,      20.55,    20.89,    20.82,    21.29,    19.20
      135.0,      20.65,    20.98,    20.92,    21.39,    19.29
      136.0,      20.74,    21.08,    21.01,    21.49,    19.37
      137.0,      20.83,    21.18,    21.11,    21.59,    19.46
      138.0,      20.92,    21.27,    21.20,    21.68,    19.54
      139.0,      21.02,    21.37,    21.30,    21.78,    19.62
      140.0,      21.11,    21.46,    21.39,    21.88,    19.70
      141.0,      21.20,    21.56,    21.48,    21.98,    19.79
      142.0,      21.29,    21.65,    21.58,    22.07,    19.87
      143.0,      21.38,    21.74,    21.67,    22.17,    19.95
      144.0,      21.48,    21.84,    21.76,    22.27,    20.03
      145.0,      21.57,    21.93,    21.86,    22.36,    20.11
      146.0,      21.66,    22.02,    21.95,    22.46,    20.20
      147.0,      21.75,    22.12,    22.04,    22.56,    20.28
      148.0,      21.84,    22.21,    22.13,    22.65,    20.36
      149.0,      21.93,    22.30,    22.23,    22.75,    20.44
      150.0,      22.02,    22.39,    22.32,    22.84,    20.52
      151.0,      22.11,    22.49,    22.41,    22.94,    20.60
      152.0,      22.20,    22.58,    22.50,    23.03,    20.68
      153.0,      22.29,    22.67,    22.59,    23.13,    20.76
      154.0,      22.38,    22.76,    22.68,    23.22,    20.84
      155.0,      22.48,    22.87,    22.78,    23.33,    20.92
      156.0,      22.59,    22.98,    22.89,    23.46,    21.01
      157.0,      22.71,    23.12,    23.01,    23.60,    21.11
      158.0,      22.85,    23.27,    23.15,    23.77,    21.22
      159.0,      23.00,    23.43,    23.29,    23.95,    21.35
      160.0,      23.16,    23.59,    23.44,    24.13,    21.48
      161.0,      23.30,    23.73,    23.58,    24.29,    21.60
      162.0,      23.43,    23.86,    23.70,    24.43,    21.72
      163.0,      23.52,    23.95,    23.80,    24.53,    21.81
      164.0,      23.57,    24.00,    23.86,    24.57,    21.86
      165.0,      23.58,    24.00,    23.88,    24.55,    21.88
      166.0,      23.54,    23.95,    23.85,    24.47,    21.86
      167.0,      23.45,    23.87,    23.79,    24.35,    21.81
      168.0,      23.34,    23.75,    23.70,    24.19,    21.72
      169.0,      23.20,    23.62,    23.59,    24.00,    21.60
      170.0,      23.06,    23.48,    23.47,    23.80,    21.48
      171.0,      22.91,    23.34,    23.35,    23.61,    21.35
      172.0,      22.77,    23.20,    23.23,    23.42,    21.22
      173.0,      22.63,    23.07,    23.12,    23.24,    21.10
      174.0,      22.51,    22.95,    23.01,    23.07,    20.98
      175.0,      22.39,    22.84,    22.92,    22.92,    20.88
      176.0,      22.27,    22.73,    22.82,    22.77,    20.78
      177.0,      22.17,    22.63,    22.73,    22.62,    20.68
      178.0,      22.06,    22.52,    22.64,    22.48,    20.59
      179.0,      21.96,    22.43,    22.56,    22.35,    20.50
      180.0,      21.86,    22.33,    22.47,    22.22,    20.41
      181.0,      21.76,    22.24,    22.39,    22.09,    20.32
      182.0,      21.67,    22.15,    22.31,    21.97,    20.24
      183.0,      21.58,    22.06,    22.24,    21.85,    20.16
      184.0,      21.49,    21.98,    22.16,    21.74,    20.08
      185.0,      21.40,    21.90,    22.09,    21.63,    20.00
      186.0,      21.32,    21.82,    22.02,    21.52,    19.92
      187.0,      21.24,    21.74,    21.95,    21.42,    19.85
      188.0,      21.16,    21.66,    21.88,    21.32,    19.78
      189.0,      21.08,    21.59,    21.82,    21.22,    19.71
      190.0,      21.01,    21.52,    21.75,    21.12,    19.64
      191.0,      20.94,    21.45,    21.69,    21.03,    19.57
      192.0,      20.87,    21.39,    21.63,    20.95,    19.51
      193.0,      20.80,    21.32,    21.57,    20.86,    19.45
      194.0,      20.73,    21.26,    21.51,    20.78,    19.38
      195.0,      20.67,    21.20,    21.45,    20.70,    19.32
      196.0,      20.61,    21.14,    21.40,    20.62,    19.27
      197.0,      20.54,    21.08,    21.34,    20.54,    19.21
      198.0,      20.48,    21.02,    21.29,    20.47,    19.15
      199.0,      20.43,    20.97,    21.24,    20.40,    19.10
      200.0,      20.37,    20.91,    21.19,    20.33,    19.04
      201.0,      20.31,    20.86,    21.14,    20.26,    18.99
      202.0,      20.26,    20.81,    21.09,    20.20,    18.94
      203.0,      20.21,    20.76,    21.04,    20.14,    18.89
      204.0,      20.15,    20.71,    20.99,    20.07,    18.84
      205.0,      20.10,    20.66,    20.95,    20.01,    18.79
      206.0,      20.05,    20.62,    20.90,    19.96,    18.74
      207.0,      20.01,    20.57,    20.86,    19.90,    18.69
      208.0,      19.96,    20.53,    20.81,    19.84,    18.64
      209.0,      19.91,    20.48,    20.77,    19.79,    18.60
      210.0,      19.87,    20.44,    20.73,    19.74,    18.55
      211.0,      19.82,    20.40,    20.69,    19.69,    18.51
      212.0,      19.78,    20.36,    20.65,    19.64,    18.47
      213.0,      19.73,    20.32,    20.61,    19.59,    18.42
      214.0,      19.69,    20.28,    20.57,    19.54,    18.38
      215.0,      19.65,    20.24,    20.53,    19.49,    18.34
      216.0,      19.61,    20.21,    20.49,    19.45,    18.30
      217.0,      19.57,    20.17,    20.45,    19.40,    18.26
      218.0,      19.53,    20.13,    20.42,    19.36,    18.22
      219.0,      19.49,    20.10,    20.38,    19.32,    18.18
      220.0,      19.46,    20.06,    20.34,    19.28,    18.14
      221.0,      19.42,    20.03,    20.31,    19.24,    18.11
      222.0,      19.38,    19.99,    20.27,    19.20,    18.07
      223.0,      19.35,    19.96,    20.24,    19.16,    18.03
      224.0,      19.31,    19.93,    20.20,    19.12,    18.00
      225.0,      19.28,    19.90,    20.17,    19.09,    17.96
      226.0,      19.24,    19.87,    20.14,    19.05,    17.92
      227.0,      19.21,    19.83,    20.10,    19.01,    17.89
      228.0,      19.18,    19.80,    20.07,    18.98,    17.85
      229.0,      19.14,    19.77,    20.04,    18.94,    17.82
      230.0,      19.11,    19.74,    20.01,    18.91,    17.79
      231.0,      19.08,    19.71,    19.98,    18.88,    17.75
      232.0,      19.05,    19.69,    19.94,    18.85,    17.72
      233.0,      19.02,    19.66,    19.91,    18.81,    17.69
      234.0,      18.99,    19.63,    19.88,    18.78,    17.65
      235.0,      18.96,    19.60,    19.85,    18.75,    17.62
      236.0,      18.93,    19.57,    19.82,    18.72,    17.59
      237.0,      18.90,    19.55,    19.79,    18.69,    17.56
      238.0,      18.87,    19.52,    19.76,    18.66,    17.53
      239.0,      18.84,    19.49,    19.73,    18.63,    17.50
      240.0,      18.81,    19.47,    19.70,    18.60,    17.47
      241.0,      18.78,    19.44,    19.68,    18.58,    17.43
      242.0,      18.75,    19.42,    19.65,    18.55,    17.40
      243.0,      18.73,    19.39,    19.62,    18.52,    17.37
      244.0,      18.70,    19.37,    19.59,    18.50,    17.34
      245.0,      18.67,    19.34,    19.56,    18.47,    17.31
      246.0,      18.64,    19.32,    19.53,    18.44,    17.29
      247.0,      18.62,    19.29,    19.51,    18.42,    17.26
      248.0,      18.59,    19.27,    19.48,    18.39,    17.23
      249.0,      18.57,    19.24,    19.45,    18.37,    17.20
      250.0,      18.54,    19.22,    19.43,    18.34,    17.17
      251.0,      18.51,    19.20,    19.40,    18.32,    17.14
      252.0,      18.49,    19.17,    19.37,    18.29,    17.11
      253.0,      18.46,    19.15,    19.35,    18.27,    17.08
      254.0,      18.44,    19.13,    19.32,    18.24,    17.06
      255.0,      18.41,    19.11,    19.29,    18.22,    17.03
      256.0,      18.39,    19.08,    19.27,    18.20,    17.00
      257.0,      18.36,    19.06,    19.24,    18.17,    16.97
      258.0,      18.34,    19.04,    19.22,    18.15,    16.95
      259.0,      18.31,    19.02,    19.19,    18.13,    16.92
      260.0,      18.29,    18.99,    19.16,    18.11,    16.89
      261.0,      18.26,    18.97,    19.14,    18.08,    16.87
      262.0,      18.24,    18.95,    19.11,    18.06,    16.84
      263.0,      18.22,    18.93,    19.09,    18.04,    16.81
      264.0,      18.19,    18.91,    19.06,    18.02,    16.79
      265.0,      18.17,    18.89,    19.04,    18.00,    16.76
      266.0,      18.15,    18.86,    19.01,    17.97,    16.73
      267.0,      18.12,    18.84,    18.99,    17.95,    16.71
      268.0,      18.10,    18.82,    18.96,    17.93,    16.68
      269.0,      18.08,    18.80,    18.94,    17.91,    16.65
      270.0,      18.05,    18.78,    18.91,    17.89,    16.63
      271.0,      18.03,    18.76,    18.89,    17.87,    16.60
      272.0,      18.01,    18.74,    18.87,    17.85,    16.58
      273.0,      17.98,    18.72,    18.84,    17.83,    16.55
      274.0,      17.96,    18.70,    18.82,    17.81,    16.53
      275.0,      17.94,    18.68,    18.79,    17.79,    16.50
      276.0,      17.92,    18.66,    18.77,    17.77,    16.48
      277.0,      17.90,    18.64,    18.74,    17.75,    16.45
      278.0,      17.87,    18.62,    18.72,    17.73,    16.43
      279.0,      17.85,    18.60,    18.70,    17.71,    16.40
      280.0,      17.83,    18.58,    18.67,    17.69,    16.38
      281.0,      17.81,    18.56,    18.65,    17.67,    16.35
      282.0,      17.78,    18.54,    18.63,    17.65,    16.33
      283.0,      17.76,    18.52,    18.60,    17.63,    16.30
      284.0,      17.74,    18.50,    18.58,    17.61,    16.28
      285.0,      17.72,    18.48,    18.56,    17.59,    16.25
      286.0,      17.70,    18.46,    18.53,    17.57,    16.23
      287.0,      17.68,    18.44,    18.51,    17.55,    16.20
      288.0,      17.65,    18.42,    18.49,    17.53,    16.18
      289.0,      17.63,    18.40,    18.46,    17.51,    16.15
      290.0,      17.61,    18.38,    18.44,    17.50,    16.13
      291.0,      17.59,    18.36,    18.42,    17.48,    16.11
      292.0,      17.57,    18.34,    18.39,    17.46,    16.08
      293.0,      17.55,    18.33,    18.37,    17.44,    16.06
      294.0,      17.53,    18.31,    18.35,    17.42,    16.03
      295.0,      17.51,    18.29,    18.32,    17.40,    16.01
      296.0,      17.48,    18.27,    18.30,    17.38,    15.99
      297.0,      17.46,    18.25,    18.28,    17.37,    15.96
      298.0,      17.44,    18.23,    18.26,    17.35,    15.94
      299.0,      17.42,    18.21,    18.23,    17.33,    15.91
      300.0,      17.40,    18.19,    18.21,    17.31,    15.89
      301.0,      17.38,    18.17,    18.19,    17.29,    15.87
      302.0,      17.36,    18.16,    18.17,    17.27,    15.84
      303.0,      17.34,    18.14,    18.14,    17.26,    15.82
      304.0,      17.32,    18.12,    18.12,    17.24,    15.80
      305.0,      17.30,    18.10,    18.10,    17.22,    15.77
      306.0,      17.28,    18.08,    18.08,    17.20,    15.75
      307.0,      17.26,    18.06,    18.05,    17.18,    15.73
      308.0,      17.24,    18.04,    18.03,    17.17,    15.70
      309.0,      17.22,    18.03,    18.01,    17.15,    15.68
      310.0,      17.20,    18.01,    17.99,    17.13,    15.66
