Radius (km), Mean (m/s), NE (m/s), SE (m/s), SW (m/s), NW (m/s)
        0.0,       0.00,     0.00,     0.00,     0.00,     0.00
        1.0,       1.89,     1.77,     1.77,     2.09,     1.94
        2.0,       3.20,     3.11,     3.11,     3.33,     3.26
        3.0,       4.36,     4.33,     4.33,     4.36,     4.41
        4.0,       5.43,     5.47,     5.47,     5.28,     5.48
        5.0,       6.43,     6.57,     6.57,     6.13,     6.47
        6.0,       7.39,     7.62,     7.62,     6.92,     7.42
        7.0,       8.32,     8.64,     8.64,     7.67,     8.33
        8.0,       9.21,     9.63,     9.63,     8.39,     9.21
        9.0,      10.08,    10.60,    10.60,     9.07,    10.06
       10.0,      10.93,    11.55,    11.55,     9.73,    10.89
       11.0,      11.76,    12.48,    12.48,    10.37,    11.70
       12.0,      12.57,    13.40,    13.40,    10.99,    12.49
       13.0,      13.37,    14.30,    14.30,    11.59,    13.26
       14.0,      14.15,    15.19,    15.19,    12.18,    14.02
       15.0,      14.92,    16.07,    16.07,    12.76,    14.76
       16.0,      15.67,    16.94,    16.94,    13.32,    15.49
       17.0,      16.42,    17.80,    17.80,    13.87,    16.22
       18.0,      17.16,    18.65,    18.65,    14.41,    16.93
       19.0,      17.88,    19.49,    19.49,    14.93,    17.63
       20.0,      18.60,    20.32,    20.32,    15.45,    18.32
       21.0,      19.32,    21.15,    21.14,    15.97,    19.00
       22.0,      20.03,    21.98,    21.97,    16.47,    19.68
       23.0,      20.75,    22.86,    22.82,    16.97,    20.35
       24.0,      21.50,    23.80,    23.72,    17.46,    21.02
       25.0,      22.31,    24.83,    24.69,    17.97,    21.73
       26.0,      23.17,    25.95,    25.75,    18.51,    22.47
       27.0,      24.09,    27.14,    26.89,    19.09,    23.26
       28.0,      25.06,    28.37,    28.06,    19.70,    24.09
       29.0,      26.03,    29.59,    29.24,    20.35,    24.96
       30.0,      26.98,    30.72,    30.37,    21.00,    25.82
       31.0,      27.84,    31.72,    31.38,    21.62,    26.64
       32.0,      28.59,    32.53,    32.24,    22.19,    27.38
       33.0,      29.18,    33.14,    32.90,    22.66,    28.01
       34.0,      29.60,    33.53,    33.34,    23.02,    28.50
       35.0,      29.84,    33.71,    33.59,    23.25,    28.84
       36.0,      29.93,    33.71,    33.66,    23.34,    29.03
       37.0,      29.89,    33.58,    33.58,    23.32,    29.09
       38.0,      29.76,    33.37,    33.41,    23.20,    29.05
       39.0,      29.56,    33.11,    33.18,    23.01,    28.93
       40.0,      29.33,    32.83,    32.92,    22.79,    28.78
       41.0,      29.10,    32.56,    32.67,    22.55,    28.61
       42.0,      28.88,    32.30,    32.43,    22.32,    28.45
       43.0,      28.66,    32.05,    32.20,    22.10,    28.30
       44.0,      28.46,    31.80,    31.98,    21.90,    28.17
       45.0,      28.27,    31.56,    31.76,    21.71,    28.03
       46.0,      28.07,    31.32,    31.54,    21.53,    27.90
       47.0,      27.88,    31.08,    31.32,    21.36,    27.77
       48.0,      27.70,    30.85,    31.11,    21.18,    27.65
       49.0,      27.51,    30.62,    30.90,    21.01,    27.52
       50.0,      27.33,    30.39,    30.68,    20.85,    27.39
       51.0,      27.15,    30.17,    30.48,    20.69,    27.26
       52.0,      26.97,    29.95,    30.27,    20.53,    27.14
       53.0,      26.80,    29.73,    30.06,    20.37,    27.01
       54.0,      26.62,    29.52,    29.86,    20.22,    26.89
       55.0,      26.45,    29.30,    29.66,    20.07,    26.76
       56.0,      26.28,    29.09,    29.46,    19.93,    26.64
       57.0,      26.11,    28.89,    29.27,    19.78,    26.52
       58.0,      25.95,    28.68,    29.07,    19.64,    26.39
       59.0,      25.78,    28.48,    28.88,    19.50,    26.27
       60.0,      25.62,    28.28,    28.69,    19.37,    26.15
       61.0,      25.46,    28.09,    28.50,    19.24,    26.03
       62.0,      25.30,    27.89,    28.31,    19.11,    25.91
       63.0,      25.15,    27.70,    28.12,    18.98,    25.79
       64.0,      24.99,    27.51,    27.94,    18.85,    25.67
       65.0,      24.84,    27.32,    27.75,    18.73,    25.55
       66.0,      24.69,    27.14,    27.57,    18.61,    25.43
       67.0,      24.54,    26.96,    27.39,    18.49,    25.31
       68.0,      24.39,    26.78,    27.22,    18.37,    25.20
       69.0,      24.24,    26.60,    27.04,    18.25,    25.08
       70.0,      24.10,    26.43,    26.87,    18.14,    24.96
       71.0,      23.96,    26.25,    26.69,    18.03,    24.85
       72.0,      23.81,    26.08,    26.52,    17.92,    24.73
       73.0,      23.67,    25.91,    26.35,    17.81,    24.62
       74.0,      23.53,    25.75,    26.19,    17.70,    24.50
       75.0,      23.40,    25.58,    26.02,    17.60,    24.39
       76.0,      23.26,    25.42,    25.86,    17.49,    24.28
       77.0,      23.13,    25.26,    25.69,    17.39,    24.17
       78.0,      22.99,    25.10,    25.53,    17.29,    24.05
       79.0,      22.86,    24.95,    25.37,    17.19,    23.94
       80.0,      22.73,    24.79,    25.21,    17.09,    23.83
       81.0,      22.60,    24.64,    25.06,    16.99,    23.72
       82.0,      22.47,    24.49,    24.90,    16.89,    23.61
       83.0,      22.35,    24.34,    24.75,    16.80,    23.50
       84.0,      22.22,    24.19,    24.59,    16.71,    23.39
       85.0,      22.10,    24.05,    24.44,    16.61,    23.28
       86.0,      21.97,    23.91,    24.29,    16.52,    23.18
       87.0,      21.85,    23.76,    24.14,    16.43,    23.07
       88.0,      21.73,    23.63,    24.00,    16.34,    22.96
       89.0,      21.61,    23.49,    23.85,    16.25,    22.86
       90.0,      21.49,    23.35,    23.71,    16.17,    22.75
       91.0,      21.38,    23.22,    23.56,    16.08,    22.65
       92.0,      21.26,    23.08,    23.42,    15.99,    22.54
       93.0,      21.15,    22.95,    23.28,    15.91,    22.44
       94.0,      21.03,    22.82,    23.14,    15.82,    22.33
       95.0,      20.92,    22.70,    23.01,    15.74,    22.23
       96.0,      20.81,    22.57,    22.87,    15.66,    22.13
       97.0,      20.70,    22.45,    22.73,    15.58,    22.02
       98.0,      20.59,    22.32,    22.60,    15.50,    21.92
       99.0,      20.48,    22.20,    22.47,    15.42,    21.82
      100.0,      20.37,    22.08,    22.34,    15.34,    21.72
      101.0,      20.26,    21.96,    22.21,    15.26,    21.62
      102.0,      20.16,    21.85,    22.08,    15.18,    21.52
      103.0,      20.05,    21.73,    21.95,    15.11,    21.42
      104.0,      19.95,    21.62,    21.82,    15.03,    21.32
      105.0,      19.84,    21.50,    21.70,    14.95,    21.22
      106.0,      19.74,    21.39,    21.57,    14.88,    21.12
      107.0,      19.64,    21.28,    21.45,    14.80,    21.03
      108.0,      19.54,    21.17,    21.33,    14.73,    20.93
      109.0,      19.44,    21.06,    21.21,    14.66,    20.83
      110.0,      19.34,    20.96,    21.09,    14.59,    20.73
      111.0,      19.24,    20.85,    20.97,    14.51,    20.64
      112.0,      19.15,    20.75,    20.85,    14.44,    20.54
      113.0,      19.05,    20.65,    20.73,    14.37,    20.45
      114.0,      18.95,    20.55,    20.62,    14.30,    20.35
      115.0,      18.86,    20.45,    20.50,    14.23,    20.26
      116.0,      18.77,    20.35,    20.39,    14.16,    20.17
      117.0,      18.67,    20.25,    20.28,    14.09,    20.07
      118.0,      18.58,    20.15,    20.17,    14.03,    19.98
      119.0,      18.49,    20.06,    20.06,    13.96,    19.89
      120.0,      18.40,    19.96,    19.95,    13.89,    19.79
      121.0,      18.31,    19.87,    19.84,    13.82,    19.70
      122.0,      18.22,    19.78,    19.73,    13.76,    19.61
      123.0,      18.13,    19.69,    19.62,    13.69,    19.52
      124.0,      18.04,    19.60,    19.52,    13.63,    19.43
      125.0,      17.96,    19.51,    19.41,    13.56,    19.34
      126.0,      17.87,    19.42,    19.31,    13.50,    19.25
      127.0,      17.78,    19.34,    19.21,    13.43,    19.16
      128.0,      17.70,    19.25,    19.11,    13.37,    19.07
      129.0,      17.62,    19.17,    19.01,    13.31,    18.99
      130.0,      17.53,    19.08,    18.91,    13.24,    18.90
      131.0,      17.45,    19.00,    18.81,    13.18,    18.81
      132.0,      17.37,    18.92,    18.71,    13.12,    18.72
      133.0,      17.29,    18.84,    18.61,    13.06,    18.64
      134.0,      17.20,    18.76,    18.52,    13.00,    18.55
      135.0,      17.12,    18.68,    18.42,    12.94,    18.46
      136.0,      17.04,    18.60,    18.33,    12.87,    18.38
      137.0,      16.97,    18.52,    18.23,    12.81,    18.29
      138.0,      16.89,    18.45,    18.14,    12.75,    18.21
      139.0,      16.81,    18.37,    18.05,    12.69,    18.12
      140.0,      16.73,    18.30,    17.96,    12.64,    18.04
      141.0,      16.66,    18.22,    17.87,    12.58,    17.96
      142.0,      16.58,    18.15,    17.78,    12.52,    17.87
      143.0,      16.50,    18.08,    17.69,    12.46,    17.79
      144.0,      16.43,    18.01,    17.60,    12.40,    17.71
      145.0,      16.36,    17.94,    17.51,    12.35,    17.63
      146.0,      16.28,    17.87,    17.43,    12.29,    17.55
      147.0,      16.21,    17.80,    17.34,    12.23,    17.46
      148.0,      16.14,    17.73,    17.26,    12.17,    17.38
      149.0,      16.06,    17.66,    17.17,    12.12,    17.30
      150.0,      15.99,    17.60,    17.09,    12.06,    17.22
      151.0,      15.92,    17.53,    17.01,    12.01,    17.14
      152.0,      15.85,    17.47,    16.93,    11.95,    17.06
      153.0,      15.78,    17.40,    16.84,    11.90,    16.98
      154.0,      15.71,    17.34,    16.76,    11.84,    16.91
      155.0,      15.64,    17.27,    16.68,    11.79,    16.83
      156.0,      15.58,    17.21,    16.61,    11.73,    16.75
      157.0,      15.51,    17.15,    16.53,    11.68,    16.67
      158.0,      15.44,    17.09,    16.45,    11.63,    16.60
      159.0,      15.37,    17.03,    16.37,    11.57,    16.52
      160.0,      15.31,    16.97,    16.30,    11.52,    16.44
      161.0,      15.24,    16.91,    16.22,    11.47,    16.37
      162.0,      15.18,    16.85,    16.15,    11.41,    16.29
      163.0,      15.11,    16.80,    16.07,    11.36,    16.22
      164.0,      15.05,    16.74,    16.00,    11.31,    16.14
      165.0,      14.98,    16.68,    15.93,    11.26,    16.07
      166.0,      14.92,    16.63,    15.85,    11.21,    15.99
      167.0,      14.86,    16.57,    15.78,    11.16,    15.92
      168.0,      14.79,    16.52,    15.71,    11.10,    15.84
      169.0,      14.73,    16.46,    15.64,    11.05,    15.77
      170.0,      14.67,    16.41,    15.57,    11.00,    15.70
      171.0,      14.61,    16.36,    15.50,    10.95,    15.62
      172.0,      14.55,    16.30,    15.43,    10.90,    15.55
      173.0,      14.49,    16.25,    15.37,    10.85,    15.48
      174.0,      14.43,    16.20,    15.30,    10.80,    15.41
      175.0,      14.37,    16.15,    15.23,    10.76,    15.34
      176.0,      14.31,    16.10,    15.17,    10.71,    15.27
      177.0,      14.25,    16.05,    15.10,    10.66,    15.20
      178.0,      14.19,    16.00,    15.03,    10.61,    15.13
      179.0,      14.13,    15.95,    14.97,    10.56,    15.06
      180.0,      14.08,    15.91,    14.91,    10.51,    14.99
      181.0,      14.02,    15.86,    14.84,    10.47,    14.92
      182.0,      13.96,    15.81,    14.78,    10.42,    14.85
      183.0,      13.91,    15.76,    14.72,    10.37,    14.78
      184.0,      13.85,    15.72,    14.66,    10.32,    14.71
      185.0,      13.80,    15.67,    14.59,    10.28,    14.64
      186.0,      13.74,    15.63,    14.53,    10.23,    14.57
      187.0,      13.69,    15.58,    14.47,    10.18,    14.51
      188.0,      13.63,    15.54,    14.41,    10.14,    14.44
      189.0,      13.58,    15.49,    14.35,    10.09,    14.37
      190.0,      13.52,    15.45,    14.30,    10.05,    14.31
      191.0,      13.47,    15.41,    14.24,    10.00,    14.24
      192.0,      13.42,    15.36,    14.18,     9.95,    14.17
      193.0,      13.37,    15.32,    14.12,     9.91,    14.11
      194.0,      13.31,    15.28,    14.07,     9.86,    14.04
      195.0,      13.26,    15.24,    14.01,     9.82,    13.98
      196.0,      13.21,    15.20,    13.95,     9.78,    13.91
      197.0,      13.16,    15.16,    13.90,     9.73,    13.85
      198.0,      13.11,    15.12,    13.84,     9.69,    13.79
      199.0,      13.06,    15.08,    13.79,     9.64,    13.72
      200.0,      13.01,    15.04,    13.74,     9.60,    13.66
      201.0,      12.96,    15.00,    13.68,     9.56,    13.59
      202.0,      12.91,    14.96,    13.63,     9.51,    13.53
      203.0,      12.86,    14.92,    13.58,     9.47,    13.47
      204.0,      12.81,    14.88,    13.53,     9.43,    13.41
      205.0,      12.76,    14.85,    13.47,     9.38,    13.34
      206.0,      12.71,    14.81,    13.42,     9.34,    13.28
      207.0,      12.67,    14.77,    13.37,     9.30,    13.22
      208.0,      12.62,    14.74,    13.32,     9.26,    13.16
      209.0,      12.57,    14.70,    13.27,     9.22,    13.10
      210.0,      12.52,    14.66,    13.22,     9.17,    13.04
      211.0,      12.48,    14.63,    13.17,     9.13,    12.98
      212.0,      12.43,    14.59,    13.12,     9.09,    12.92
      213.0,      12.39,    14.56,    13.08,     9.05,    12.86
      214.0,      12.34,    14.52,    13.03,     9.01,    12.80
      215.0,      12.29,    14.49,    12.98,     8.97,    12.74
      216.0,      12.25,    14.45,    12.93,     8.93,    12.68
      217.0,      12.20,    14.42,    12.89,     8.89,    12.62
      218.0,      12.16,    14.39,    12.84,     8.85,    12.56
      219.0,      12.12,    14.35,    12.79,     8.81,    12.51
      220.0,      12.07,    14.32,    12.75,     8.77,    12.45
      221.0,      12.03,    14.29,    12.70,     8.73,    12.39
      222.0,      11.98,    14.26,    12.66,     8.69,    12.33
      223.0,      11.94,    14.23,    12.61,     8.65,    12.28
      224.0,      11.90,    14.19,    12.57,     8.61,    12.22
      225.0,      11.86,    14.16,    12.53,     8.57,    12.16
      226.0,      11.81,    14.13,    12.48,     8.53,    12.11
      227.0,      11.77,    14.10,    12.44,     8.49,    12.05
      228.0,      11.73,    14.07,    12.40,     8.46,    11.99
      229.0,      11.69,    14.04,    12.35,     8.42,    11.94
      230.0,      11.65,    14.01,    12.31,     8.38,    11.88
      231.0,      11.61,    13.98,    12.27,     8.34,    11.83
      232.0,      11.56,    13.95,    12.23,     8.30,    11.77
      233.0,      11.52,    13.92,    12.19,     8.27,    11.72
      234.0,      11.48,    13.89,    12.15,     8.23,    11.67
      235.0,      11.44,    13.86,    12.11,     8.19,    11.61
      236.0,      11.40,    13.83,    12.07,     8.16,    11.56
      237.0,      11.36,    13.81,    12.03,     8.12,    11.50
      238.0,      11.32,    13.78,    11.99,     8.08,    11.45
      239.0,      11.29,    13.75,    11.95,     8.05,    11.40
      240.0,      11.25,    13.72,    11.91,     8.01,    11.35
      241.0,      11.21,    13.69,    11.87,     7.97,    11.29
      242.0,      11.17,    13.67,    11.83,     7.94,    11.24
      243.0,      11.13,    13.64,    11.79,     7.90,    11.19
      244.0,      11.09,    13.61,    11.76,     7.87,    11.14
      245.0,      11.06,    13.59,    11.72,     7.83,    11.08
      246.0,      11.02,    13.56,    11.68,     7.80,    11.03
      247.0,      10.98,    13.53,    11.65,     7.76,    10.98
      248.0,      10.94,    13.51,    11.61,     7.73,    10.93
      249.0,      10.91,    13.48,    11.57,     7.69,    10.88
      250.0,      10.87,    13.46,    11.54,     7.66,    10.83
      251.0,      10.83,    13.43,    11.50,     7.62,    10.78
      252.0,      10.80,    13.41,    11.47,     7.59,    10.73
      253.0,      10.76,    13.38,    11.43,     7.55,    10.68
      254.0,      10.73,    13.36,    11.40,     7.52,    10.63
      255.0,      10.69,    13.33,    11.36,     7.48,    10.58
      256.0,      10.65,    13.31,    11.33,     7.45,    10.53
      257.0,      10.62,    13.28,    11.29,     7.42,    10.48
      258.0,      10.58,    13.26,    11.26,     7.38,    10.44
      259.0,      10.55,    13.23,    11.23,     7.35,    10.39
      260.0,      10.52,    13.21,    11.19,     7.32,    10.34
      261.0,      10.48,    13.19,    11.16,     7.28,    10.29
      262.0,      10.45,    13.16,    11.13,     7.25,    10.24
      263.0,      10.41,    13.14,    11.10,     7.22,    10.20
      264.0,      10.38,    13.12,    11.06,     7.19,    10.15
      265.0,      10.35,    13.09,    11.03,     7.15,    10.10
      266.0,      10.31,    13.07,    11.00,     7.12,    10.06
      267.0,      10.28,    13.05,    10.97,     7.09,    10.01
      268.0,      10.25,    13.03,    10.94,     7.06,     9.96
      269.0,      10.21,    13.00,    10.91,     7.03,     9.92
      270.0,      10.18,    12.98,    10.87,     6.99,     9.87
      271.0,      10.15,    12.96,    10.84,     6.96,     9.83
      272.0,      10.12,    12.94,    10.81,     6.93,     9.78
      273.0,      10.08,    12.92,    10.78,     6.90,     9.74
      274.0,      10.05,    12.89,    10.75,     6.87,     9.69
      275.0,      10.02,    12.87,    10.72,     6.84,     9.65
      276.0,       9.99,    12.85,    10.69,     6.81,     9.60
      277.0,       9.96,    12.83,    10.67,     6.78,     9.56
      278.0,       9.93,    12.81,    10.64,     6.75,     9.51
      279.0,       9.89,    12.79,    10.61,     6.72,     9.47
      280.0,       9.86,    12.77,    10.58,     6.69,     9.42
      281.0,       9.83,    12.75,    10.55,     6.65,     9.38
      282.0,       9.80,    12.73,    10.52,     6.62,     9.34
      283.0,       9.77,    12.71,    10.49,     6.60,     9.29
      284.0,       9.74,    12.68,    10.47,     6.57,     9.25
      285.0,       9.71,    12.66,    10.44,     6.54,     9.21
      286.0,       9.68,    12.64,    10.41,     6.51,     9.17
      287.0,       9.65,    12.62,    10.38,     6.48,     9.12
      288.0,       9.62,    12.60,    10.36,     6.45,     9.08
      289.0,       9.59,    12.59,    10.33,     6.42,     9.04
      290.0,       9.56,    12.57,    10.30,     6.39,     9.00
      291.0,       9.54,    12.55,    10.28,     6.36,     8.96
      292.0,       9.51,    12.53,    10.25,     6.33,     8.91
      293.0,       9.48,    12.51,    10.23,     6.30,     8.87
      294.0,       9.45,    12.49,    10.20,     6.28,     8.83
      295.0,       9.42,    12.47,    10.17,     6.25,     8.79
      296.0,       9.39,    12.45,    10.15,     6.22,     8.75
      297.0,       9.36,    12.43,    10.12,     6.19,     8.71
      298.0,       9.34,    12.41,    10.10,     6.16,     8.67
      299.0,       9.31,    12.39,    10.07,     6.14,     8.63
      300.0,       9.28,    12.38,    10.05,     6.11,     8.59
      301.0,       9.25,    12.36,    10.02,     6.08,     8.55
      302.0,       9.23,    12.34,    10.00,     6.05,     8.51
      303.0,       9.20,    12.32,     9.97,     6.03,     8.47
      304.0,       9.17,    12.30,     9.95,     6.00,     8.43
      305.0,       9.14,    12.29,     9.93,     5.97,     8.39
      306.0,       9.12,    12.27,     9.90,     5.94,     8.35
      307.0,       9.09,    12.25,     9.88,     5.92,     8.31
      308.0,       9.06,    12.23,     9.86,     5.89,     8.28
      309.0,       9.04,    12.21,     9.83,     5.86,     8.24
      310.0,       9.01,    12.20,     9.81,     5.84,     8.20
