Radius (km), Mean (m/s), NE (m/s), SE (m/s), SW (m/s), NW (m/s)
        0.0,       0.00,     0.00,     0.00,     0.00,     0.00
        1.0,       2.22,     2.21,     2.23,     2.23,     2.21
        2.0,       3.93,     3.92,     3.94,     3.94,     3.92
        3.0,       5.48,     5.48,     5.49,     5.49,     5.48
        4.0,       6.94,     6.95,     6.94,     6.94,     6.95
        5.0,       8.34,     8.35,     8.33,     8.33,     8.35
        6.0,       9.69,     9.71,     9.67,     9.67,     9.71
        7.0,      11.00,    11.03,    10.97,    10.97,    11.03
        8.0,      12.28,    12.32,    12.23,    12.23,    12.32
        9.0,      13.52,    13.58,    13.47,    13.47,    13.58
       10.0,      14.75,    14.81,    14.68,    14.68,    14.81
       11.0,      15.95,    16.03,    15.87,    15.87,    16.03
       12.0,      17.14,    17.24,    17.04,    17.04,    17.24
       13.0,      18.35,    18.50,    18.21,    18.21,    18.48
       14.0,      19.61,    19.84,    19.41,    19.40,    19.78
       15.0,      20.96,    21.32,    20.67,    20.65,    21.19
       16.0,      22.42,    22.95,    22.03,    21.99,    22.71
       17.0,      23.99,    24.72,    23.50,    23.42,    24.34
       18.0,      25.65,    26.58,    25.07,    24.93,    26.03
       19.0,      27.34,    28.44,    26.68,    26.49,    27.74
       20.0,      28.97,    30.21,    28.28,    28.03,    29.37
       21.0,      30.48,    31.80,    29.79,    29.49,    30.86
       22.0,      31.79,    33.11,    31.13,    30.80,    32.13
       23.0,      32.85,    34.09,    32.24,    31.90,    33.15
       24.0,      33.61,    34.73,    33.08,    32.76,    33.88
       25.0,      34.09,    35.02,    33.63,    33.36,    34.34
       26.0,      34.30,    35.01,    33.91,    33.71,    34.55
       27.0,      34.28,    34.77,    33.95,    33.86,    34.56
       28.0,      34.11,    34.37,    33.81,    33.83,    34.43
       29.0,      33.83,    33.88,    33.54,    33.70,    34.22
       30.0,      33.51,    33.35,    33.22,    33.51,    33.96
       31.0,      33.18,    32.83,    32.88,    33.30,    33.70
       32.0,      32.86,    32.34,    32.55,    33.09,    33.45
       33.0,      32.56,    31.88,    32.24,    32.90,    33.22
       34.0,      32.27,    31.43,    31.95,    32.72,    32.99
       35.0,      32.00,    31.01,    31.67,    32.55,    32.76
       36.0,      31.73,    30.60,    31.40,    32.39,    32.53
       37.0,      31.47,    30.21,    31.14,    32.22,    32.31
       38.0,      31.22,    29.82,    30.89,    32.06,    32.09
       39.0,      30.97,    29.46,    30.64,    31.90,    31.87
       40.0,      30.73,    29.11,    30.40,    31.74,    31.66
       41.0,      30.49,    28.76,    30.17,    31.59,    31.45
       42.0,      30.26,    28.44,    29.94,    31.44,    31.24
       43.0,      30.04,    28.12,    29.72,    31.29,    31.03
       44.0,      29.82,    27.81,    29.51,    31.14,    30.83
       45.0,      29.61,    27.52,    29.30,    30.99,    30.63
       46.0,      29.40,    27.24,    29.09,    30.85,    30.43
       47.0,      29.20,    26.96,    28.89,    30.71,    30.24
       48.0,      29.00,    26.70,    28.70,    30.57,    30.04
       49.0,      28.81,    26.44,    28.51,    30.43,    29.85
       50.0,      28.62,    26.20,    28.32,    30.29,    29.66
       51.0,      28.43,    25.96,    28.14,    30.16,    29.47
       52.0,      28.25,    25.73,    27.97,    30.02,    29.29
       53.0,      28.07,    25.51,    27.79,    29.89,    29.11
       54.0,      27.90,    25.29,    27.62,    29.76,    28.93
       55.0,      27.73,    25.09,    27.46,    29.63,    28.75
       56.0,      27.57,    24.89,    27.30,    29.51,    28.57
       57.0,      27.40,    24.69,    27.14,    29.38,    28.40
       58.0,      27.24,    24.51,    26.98,    29.26,    28.23
       59.0,      27.09,    24.33,    26.83,    29.13,    28.06
       60.0,      26.93,    24.15,    26.68,    29.01,    27.89
       61.0,      26.78,    23.98,    26.54,    28.89,    27.73
       62.0,      26.64,    23.82,    26.40,    28.77,    27.56
       63.0,      26.49,    23.66,    26.26,    28.65,    27.40
       64.0,      26.35,    23.51,    26.12,    28.53,    27.24
       65.0,      26.21,    23.36,    25.98,    28.42,    27.09
       66.0,      26.08,    23.22,    25.85,    28.30,    26.93
       67.0,      25.94,    23.08,    25.72,    28.19,    26.78
       68.0,      25.81,    22.95,    25.59,    28.08,    26.62
       69.0,      25.68,    22.82,    25.47,    27.97,    26.47
       70.0,      25.55,    22.69,    25.35,    27.85,    26.33
       71.0,      25.43,    22.57,    25.22,    27.74,    26.18
       72.0,      25.31,    22.45,    25.11,    27.64,    26.04
       73.0,      25.19,    22.33,    24.99,    27.53,    25.89
       74.0,      25.07,    22.22,    24.87,    27.42,    25.75
       75.0,      24.95,    22.11,    24.76,    27.31,    25.61
       76.0,      24.83,    22.01,    24.65,    27.21,    25.47
       77.0,      24.72,    21.91,    24.54,    27.10,    25.34
       78.0,      24.61,    21.81,    24.43,    27.00,    25.20
       79.0,      24.50,    21.71,    24.32,    26.90,    25.07
       80.0,      24.39,    21.62,    24.22,    26.79,    24.94
       81.0,      24.28,    21.53,    24.11,    26.69,    24.81
       82.0,      24.18,    21.44,    24.01,    26.59,    24.68
       83.0,      24.08,    21.35,    23.91,    26.49,    24.55
       84.0,      23.97,    21.27,    23.81,    26.39,    24.42
       85.0,      23.87,    21.19,    23.71,    26.29,    24.30
       86.0,      23.77,    21.11,    23.62,    26.19,    24.18
       87.0,      23.67,    21.03,    23.52,    26.09,    24.06
       88.0,      23.58,    20.95,    23.42,    26.00,    23.94
       89.0,      23.48,    20.88,    23.33,    25.90,    23.82
       90.0,      23.39,    20.81,    23.24,    25.80,    23.70
       91.0,      23.29,    20.74,    23.15,    25.71,    23.58
       92.0,      23.20,    20.67,    23.06,    25.61,    23.47
       93.0,      23.11,    20.60,    22.97,    25.52,    23.36
       94.0,      23.02,    20.54,    22.88,    25.43,    23.24
       95.0,      22.93,    20.48,    22.79,    25.33,    23.13
       96.0,      22.84,    20.41,    22.70,    25.24,    23.02
       97.0,      22.76,    20.35,    22.62,    25.15,    22.92
       98.0,      22.67,    20.29,    22.53,    25.06,    22.81
       99.0,      22.59,    20.24,    22.45,    24.96,    22.70
      100.0,      22.50,    20.18,    22.36,    24.87,    22.60
      101.0,      22.42,    20.12,    22.28,    24.78,    22.50
      102.0,      22.34,    20.07,    22.20,    24.69,    22.39
      103.0,      22.26,    20.01,    22.12,    24.60,    22.29
      104.0,      22.18,    19.96,    22.04,    24.51,    22.19
      105.0,      22.10,    19.91,    21.96,    24.43,    22.09
      106.0,      22.02,    19.86,    21.88,    24.34,    22.00
      107.0,      21.94,    19.81,    21.80,    24.25,    21.90
      108.0,      21.86,    19.76,    21.72,    24.16,    21.80
      109.0,      21.79,    19.71,    21.64,    24.08,    21.71
      110.0,      21.71,    19.67,    21.57,    23.99,    21.61
      111.0,      21.64,    19.62,    21.49,    23.90,    21.52
      112.0,      21.56,    19.58,    21.42,    23.82,    21.43
      113.0,      21.49,    19.53,    21.34,    23.73,    21.34
      114.0,      21.41,    19.49,    21.27,    23.65,    21.25
      115.0,      21.34,    19.45,    21.19,    23.57,    21.16
      116.0,      21.27,    19.40,    21.12,    23.48,    21.07
      117.0,      21.20,    19.36,    21.05,    23.40,    20.99
      118.0,      21.13,    19.32,    20.97,    23.31,    20.90
      119.0,      21.06,    19.28,    20.90,    23.23,    20.82
      120.0,      20.99,    19.24,    20.83,    23.15,    20.73
      121.0,      20.92,    19.20,    20.76,    23.07,    20.65
      122.0,      20.85,    19.16,    20.69,    22.99,    20.57
      123.0,      20.78,    19.12,    20.62,    22.90,    20.49
      124.0,      20.72,    19.09,    20.55,    22.82,    20.41
      125.0,      20.65,    19.05,    20.48,    22.74,    20.33
      126.0,      20.58,    19.01,    20.41,    22.66,    20.25
      127.0,      20.52,    18.97,    20.34,    22.58,    20.17
      128.0,      20.45,    18.94,    20.27,    22.50,    20.09
      129.0,      20.39,    18.90,    20.21,    22.42,    20.02
      130.0,      20.32,    18.87,    20.14,    22.34,    19.94
      131.0,      20.26,    18.83,    20.07,    22.27,    19.87
      132.0,      20.20,    18.80,    20.01,    22.19,    19.79
      133.0,      20.13,    18.76,    19.94,    22.11,    19.72
      134.0,      20.07,    18.73,    19.87,    22.03,    19.65
      135.0,      20.01,    18.70,    19.81,    21.95,    19.58
      136.0,      19.95,    18.66,    19.74,    21.88,    19.51
      137.0,      19.89,    18.63,    19.68,    21.80,    19.44
      138.0,      19.83,    18.60,    19.61,    21.72,    19.37
      139.0,      19.76,    18.57,    19.55,    21.65,    19.30
      140.0,      19.70,    18.53,    19.48,    21.57,    19.23
      141.0,      19.65,    18.50,    19.42,    21.50,    19.16
      142.0,      19.59,    18.47,    19.36,    21.42,    19.10
      143.0,      19.53,    18.44,    19.29,    21.35,    19.03
      144.0,      19.47,    18.41,    19.23,    21.27,    18.96
      145.0,      19.41,    18.38,    19.17,    21.20,    18.90
      146.0,      19.35,    18.35,    19.11,    21.12,    18.84
      147.0,      19.30,    18.32,    19.05,    21.05,    18.77
      148.0,      19.24,    18.29,    18.98,    20.97,    18.71
      149.0,      19.18,    18.26,    18.92,    20.90,    18.65
      150.0,      19.13,    18.23,    18.86,    20.83,    18.59
      151.0,      19.07,    18.20,    18.80,    20.76,    18.53
      152.0,      19.01,    18.17,    18.74,    20.68,    18.47
      153.0,      18.96,    18.14,    18.68,    20.61,    18.41
      154.0,      18.90,    18.11,    18.62,    20.54,    18.35
      155.0,      18.85,    18.08,    18.56,    20.47,    18.29
      156.0,      18.79,    18.05,    18.50,    20.40,    18.23
      157.0,      18.74,    18.03,    18.44,    20.32,    18.17
      158.0,      18.69,    18.00,    18.38,    20.25,    18.12
      159.0,      18.63,    17.97,    18.32,    20.18,    18.06
      160.0,      18.58,    17.94,    18.26,    20.11,    18.00
      161.0,      18.53,    17.91,    18.20,    20.04,    17.95
      162.0,      18.47,    17.89,    18.15,    19.97,    17.89
      163.0,      18.42,    17.86,    18.09,    19.90,    17.84
      164.0,      18.37,    17.83,    18.03,    19.83,    17.79
      165.0,      18.32,    17.80,    17.97,    19.76,    17.73
      166.0,      18.27,    17.78,    17.92,    19.70,    17.68
      167.0,      18.22,    17.75,    17.86,    19.63,    17.63
      168.0,      18.16,    17.72,    17.80,    19.56,    17.58
      169.0,      18.11,    17.69,    17.74,    19.49,    17.52
      170.0,      18.06,    17.67,    17.69,    19.42,    17.47
      171.0,      18.01,    17.64,    17.63,    19.36,    17.42
      172.0,      17.96,    17.61,    17.58,    19.29,    17.37
      173.0,      17.91,    17.59,    17.52,    19.22,    17.32
      174.0,      17.86,    17.56,    17.46,    19.15,    17.27
      175.0,      17.81,    17.54,    17.41,    19.09,    17.23
      176.0,      17.77,    17.51,    17.35,    19.02,    17.18
      177.0,      17.72,    17.48,    17.30,    18.95,    17.13
      178.0,      17.67,    17.46,    17.24,    18.89,    17.08
      179.0,      17.62,    17.43,    17.19,    18.82,    17.04
      180.0,      17.57,    17.41,    17.13,    18.76,    16.99
      181.0,      17.52,    17.38,    17.08,    18.69,    16.94
      182.0,      17.48,    17.35,    17.03,    18.63,    16.90
      183.0,      17.43,    17.33,    16.97,    18.56,    16.85
      184.0,      17.38,    17.30,    16.92,    18.50,    16.81
      185.0,      17.33,    17.28,    16.86,    18.43,    16.76
      186.0,      17.29,    17.25,    16.81,    18.37,    16.72
      187.0,      17.24,    17.23,    16.76,    18.31,    16.67
      188.0,      17.20,    17.20,    16.70,    18.24,    16.63
      189.0,      17.15,    17.18,    16.65,    18.18,    16.59
      190.0,      17.10,    17.15,    16.60,    18.12,    16.55
      191.0,      17.06,    17.13,    16.55,    18.05,    16.50
      192.0,      17.01,    17.10,    16.49,    17.99,    16.46
      193.0,      16.97,    17.08,    16.44,    17.93,    16.42
      194.0,      16.92,    17.05,    16.39,    17.87,    16.38
      195.0,      16.88,    17.03,    16.34,    17.80,    16.34
      196.0,      16.83,    17.00,    16.29,    17.74,    16.30
      197.0,      16.79,    16.98,    16.24,    17.68,    16.26
      198.0,      16.74,    16.95,    16.18,    17.62,    16.22
      199.0,      16.70,    16.93,    16.13,    17.56,    16.18
      200.0,      16.66,    16.90,    16.08,    17.50,    16.14
      201.0,      16.61,    16.88,    16.03,    17.44,    16.10
      202.0,      16.57,    16.86,    15.98,    17.38,    16.06
      203.0,      16.52,    16.83,    15.93,    17.32,    16.02
      204.0,      16.48,    16.81,    15.88,    17.26,    15.98
      205.0,      16.44,    16.78,    15.83,    17.20,    15.95
      206.0,      16.40,    16.76,    15.78,    17.14,    15.91
      207.0,      16.35,    16.73,    15.73,    17.08,    15.87
      208.0,      16.31,    16.71,    15.68,    17.02,    15.83
      209.0,      16.27,    16.69,    15.63,    16.96,    15.80
      210.0,      16.23,    16.66,    15.58,    16.90,    15.76
      211.0,      16.18,    16.64,    15.53,    16.84,    15.73
      212.0,      16.14,    16.62,    15.48,    16.78,    15.69
      213.0,      16.10,    16.59,    15.44,    16.72,    15.65
      214.0,      16.06,    16.57,    15.39,    16.67,    15.62
      215.0,      16.02,    16.54,    15.34,    16.61,    15.58
      216.0,      15.98,    16.52,    15.29,    16.55,    15.55
      217.0,      15.94,    16.50,    15.24,    16.49,    15.52
      218.0,      15.90,    16.47,    15.19,    16.44,    15.48
      219.0,      15.86,    16.45,    15.15,    16.38,    15.45
      220.0,      15.81,    16.43,    15.10,    16.32,    15.41
      221.0,      15.77,    16.40,    15.05,    16.27,    15.38
      222.0,      15.73,    16.38,    15.00,    16.21,    15.35
      223.0,      15.69,    16.36,    14.96,    16.15,    15.31
      224.0,      15.65,    16.33,    14.91,    16.10,    15.28
      225.0,      15.62,    16.31,    14.86,    16.04,    15.25
      226.0,      15.58,    16.29,    14.82,    15.98,    15.22
      227.0,      15.54,    16.26,    14.77,    15.93,    15.18
      228.0,      15.50,    16.24,    14.72,    15.87,    15.15
      229.0,      15.46,    16.22,    14.68,    15.82,    15.12
      230.0,      15.42,    16.19,    14.63,    15.76,    15.09
      231.0,      15.38,    16.17,    14.58,    15.71,    15.06
      232.0,      15.34,    16.15,    14.54,    15.66,    15.03
      233.0,      15.30,    16.12,    14.49,    15.60,    15.00
      234.0,      15.27,    16.10,    14.45,    15.55,    14.97
      235.0,      15.23,    16.08,    14.40,    15.49,    14.94
      236.0,      15.19,    16.06,    14.36,    15.44,    14.91
      237.0,      15.15,    16.03,    14.31,    15.39,    14.88
      238.0,      15.11,    16.01,    14.27,    15.33,    14.85
      239.0,      15.08,    15.99,    14.22,    15.28,    14.82
      240.0,      15.04,    15.96,    14.18,    15.23,    14.79
      241.0,      15.00,    15.94,    14.13,    15.17,    14.76
      242.0,      14.96,    15.92,    14.09,    15.12,    14.73
      243.0,      14.93,    15.90,    14.04,    15.07,    14.70
      244.0,      14.89,    15.87,    14.00,    15.02,    14.67
      245.0,      14.85,    15.85,    13.96,    14.96,    14.64
      246.0,      14.82,    15.83,    13.91,    14.91,    14.61
      247.0,      14.78,    15.81,    13.87,    14.86,    14.59
      248.0,      14.74,    15.78,    13.82,    14.81,    14.56
      249.0,      14.71,    15.76,    13.78,    14.76,    14.53
      250.0,      14.67,    15.74,    13.74,    14.71,    14.50
      251.0,      14.64,    15.72,    13.69,    14.66,    14.48
      252.0,      14.60,    15.69,    13.65,    14.60,    14.45
      253.0,      14.56,    15.67,    13.61,    14.55,    14.42
      254.0,      14.53,    15.65,    13.57,    14.50,    14.39
      255.0,      14.49,    15.63,    13.52,    14.45,    14.37
      256.0,      14.46,    15.61,    13.48,    14.40,    14.34
      257.0,      14.42,    15.58,    13.44,    14.35,    14.31
      258.0,      14.39,    15.56,    13.40,    14.30,    14.29
      259.0,      14.35,    15.54,    13.35,    14.25,    14.26
      260.0,      14.32,    15.52,    13.31,    14.20,    14.24
      261.0,      14.28,    15.50,    13.27,    14.15,    14.21
      262.0,      14.25,    15.47,    13.23,    14.11,    14.18
      263.0,      14.21,    15.45,    13.19,    14.06,    14.16
      264.0,      14.18,    15.43,    13.14,    14.01,    14.13
      265.0,      14.14,    15.41,    13.10,    13.96,    14.11
      266.0,      14.11,    15.39,    13.06,    13.91,    14.08
      267.0,      14.08,    15.36,    13.02,    13.86,    14.06
      268.0,      14.04,    15.34,    12.98,    13.81,    14.03
      269.0,      14.01,    15.32,    12.94,    13.77,    14.01
      270.0,      13.98,    15.30,    12.90,    13.72,    13.98
      271.0,      13.94,    15.28,    12.86,    13.67,    13.96
      272.0,      13.91,    15.26,    12.82,    13.62,    13.94
      273.0,      13.87,    15.23,    12.78,    13.58,    13.91
      274.0,      13.84,    15.21,    12.74,    13.53,    13.89
      275.0,      13.81,    15.19,    12.70,    13.48,    13.86
      276.0,      13.78,    15.17,    12.66,    13.44,    13.84
      277.0,      13.74,    15.15,    12.62,    13.39,    13.82
      278.0,      13.71,    15.13,    12.58,    13.34,    13.79
      279.0,      13.68,    15.11,    12.54,    13.30,    13.77
      280.0,      13.64,    15.08,    12.50,    13.25,    13.75
      281.0,      13.61,    15.06,    12.46,    13.20,    13.72
      282.0,      13.58,    15.04,    12.42,    13.16,    13.70
      283.0,      13.55,    15.02,    12.38,    13.11,    13.68
      284.0,      13.52,    15.00,    12.34,    13.07,    13.65
      285.0,      13.48,    14.98,    12.30,    13.02,    13.63
      286.0,      13.45,    14.96,    12.27,    12.98,    13.61
      287.0,      13.42,    14.93,    12.23,    12.93,    13.58
      288.0,      13.39,    14.91,    12.19,    12.89,    13.56
      289.0,      13.36,    14.89,    12.15,    12.84,    13.54
      290.0,      13.33,    14.87,    12.11,    12.80,    13.52
      291.0,      13.29,    14.85,    12.07,    12.75,    13.50
      292.0,      13.26,    14.83,    12.04,    12.71,    13.47
      293.0,      13.23,    14.81,    12.00,    12.67,    13.45
      294.0,      13.20,    14.79,    11.96,    12.62,    13.43
      295.0,      13.17,    14.77,    11.92,    12.58,    13.41
      296.0,      13.14,    14.75,    11.89,    12.53,    13.39
      297.0,      13.11,    14.72,    11.85,    12.49,    13.37
      298.0,      13.08,    14.70,    11.81,    12.45,    13.34
      299.0,      13.05,    14.68,    11.77,    12.40,    13.32
      300.0,      13.02,    14.66,    11.74,    12.36,    13.30
      301.0,      12.99,    14.64,    11.70,    12.32,    13.28
      302.0,      12.95,    14.62,    11.66,    12.28,    13.26
      303.0,      12.92,    14.60,    11.63,    12.23,    13.24
      304.0,      12.89,    14.58,    11.59,    12.19,    13.22
      305.0,      12.86,    14.56,    11.55,    12.15,    13.20
      306.0,      12.83,    14.54,    11.52,    12.11,    13.18
      307.0,      12.80,    14.52,    11.48,    12.06,    13.16
      308.0,      12.78,    14.50,    11.45,    12.02,    13.13
      309.0,      12.75,    14.48,    11.41,    11.98,    13.11
      310.0,      12.72,    14.46,    11.37,    11.94,    13.09
