Radius (km), Mean (m/s), NE (m/s), SE (m/s), SW (m/s), NW (m/s)
        0.0,       0.00,     0.00,     0.00,     0.00,     0.00
        1.0,       1.89,     1.62,     1.99,     2.32,     1.62
        2.0,       3.52,     3.25,     3.67,     3.91,     3.25
        3.0,       5.09,     4.90,     5.25,     5.32,     4.90
        4.0,       6.61,     6.54,     6.76,     6.61,     6.54
        5.0,       8.11,     8.19,     8.23,     7.83,     8.19
        6.0,       9.58,     9.84,     9.67,     8.98,     9.84
        7.0,      11.04,    11.49,    11.07,    10.09,    11.49
        8.0,      12.48,    13.14,    12.45,    11.17,    13.14
        9.0,      13.90,    14.80,    13.82,    12.21,    14.80
       10.0,      15.32,    16.45,    15.16,    13.22,    16.45
       11.0,      16.73,    18.11,    16.49,    14.21,    18.11
       12.0,      18.14,    19.78,    17.80,    15.18,    19.78
       13.0,      19.57,    21.49,    19.13,    16.14,    21.51
       14.0,      21.08,    23.32,    20.51,    17.13,    23.37
       15.0,      22.73,    25.32,    21.98,    18.17,    25.43
       16.0,      24.54,    27.56,    23.59,    19.27,    27.75
       17.0,      26.53,    30.04,    25.34,    20.44,    30.31
       18.0,      28.65,    32.69,    27.20,    21.67,    33.05
       19.0,      30.84,    35.44,    29.12,    22.92,    35.88
       20.0,      32.98,    38.13,    31.02,    24.14,    38.63
       21.0,      34.96,    40.63,    32.79,    25.28,    41.15
       22.0,      36.69,    42.79,    34.36,    26.29,    43.31
       23.0,      38.06,    44.51,    35.63,    27.13,    44.99
       24.0,      39.05,    45.72,    36.58,    27.78,    46.12
       25.0,      39.63,    46.40,    37.17,    28.23,    46.71
       26.0,      39.84,    46.60,    37.45,    28.50,    46.81
       27.0,      39.74,    46.40,    37.44,    28.62,    46.49
       28.0,      39.41,    45.90,    37.23,    28.62,    45.88
       29.0,      38.93,    45.22,    36.89,    28.54,    45.09
       30.0,      38.39,    44.46,    36.47,    28.42,    44.23
       31.0,      37.85,    43.68,    36.04,    28.29,    43.36
       32.0,      37.32,    42.94,    35.63,    28.17,    42.54
       33.0,      36.83,    42.25,    35.25,    28.05,    41.76
       34.0,      36.37,    41.60,    34.88,    27.94,    41.03
       35.0,      35.92,    40.98,    34.54,    27.84,    40.33
       36.0,      35.49,    40.37,    34.21,    27.73,    39.66
       37.0,      35.08,    39.79,    33.88,    27.62,    39.01
       38.0,      34.67,    39.23,    33.57,    27.52,    38.38
       39.0,      34.29,    38.69,    33.26,    27.41,    37.78
       40.0,      33.91,    38.17,    32.97,    27.31,    37.20
       41.0,      33.55,    37.67,    32.68,    27.20,    36.64
       42.0,      33.19,    37.18,    32.40,    27.10,    36.10
       43.0,      32.85,    36.71,    32.13,    27.00,    35.58
       44.0,      32.52,    36.26,    31.87,    26.90,    35.07
       45.0,      32.20,    35.82,    31.61,    26.79,    34.59
       46.0,      31.89,    35.40,    31.36,    26.69,    34.12
       47.0,      31.59,    34.99,    31.12,    26.59,    33.67
       48.0,      31.30,    34.59,    30.88,    26.49,    33.24
       49.0,      31.02,    34.21,    30.66,    26.39,    32.82
       50.0,      30.75,    33.84,    30.43,    26.29,    32.42
       51.0,      30.48,    33.49,    30.22,    26.20,    32.03
       52.0,      30.22,    33.14,    30.01,    26.10,    31.65
       53.0,      29.97,    32.81,    29.80,    26.00,    31.28
       54.0,      29.73,    32.48,    29.60,    25.90,    30.93
       55.0,      29.49,    32.17,    29.41,    25.81,    30.60
       56.0,      29.27,    31.87,    29.21,    25.71,    30.27
       57.0,      29.04,    31.57,    29.03,    25.62,    29.95
       58.0,      28.83,    31.29,    28.85,    25.52,    29.65
       59.0,      28.62,    31.02,    28.67,    25.43,    29.35
       60.0,      28.41,    30.75,    28.50,    25.33,    29.07
       61.0,      28.21,    30.49,    28.33,    25.24,    28.79
       62.0,      28.02,    30.24,    28.17,    25.15,    28.52
       63.0,      27.83,    30.00,    28.00,    25.05,    28.27
       64.0,      27.65,    29.76,    27.85,    24.96,    28.02
       65.0,      27.47,    29.53,    27.69,    24.87,    27.77
       66.0,      27.29,    29.31,    27.54,    24.78,    27.54
       67.0,      27.12,    29.10,    27.39,    24.69,    27.32
       68.0,      26.96,    28.89,    27.25,    24.60,    27.10
       69.0,      26.80,    28.68,    27.11,    24.51,    26.88
       70.0,      26.64,    28.49,    26.97,    24.42,    26.68
       71.0,      26.49,    28.30,    26.83,    24.33,    26.48
       72.0,      26.34,    28.11,    26.70,    24.24,    26.29
       73.0,      26.19,    27.93,    26.57,    24.15,    26.10
       74.0,      26.05,    27.75,    26.44,    24.07,    25.92
       75.0,      25.91,    27.58,    26.32,    23.98,    25.74
       76.0,      25.77,    27.41,    26.19,    23.89,    25.57
       77.0,      25.63,    27.25,    26.07,    23.81,    25.41
       78.0,      25.50,    27.09,    25.95,    23.72,    25.25
       79.0,      25.38,    26.94,    25.84,    23.64,    25.09
       80.0,      25.25,    26.79,    25.72,    23.55,    24.94
       81.0,      25.13,    26.64,    25.61,    23.47,    24.79
       82.0,      25.01,    26.50,    25.50,    23.38,    24.65
       83.0,      24.89,    26.36,    25.39,    23.30,    24.51
       84.0,      24.77,    26.22,    25.28,    23.22,    24.38
       85.0,      24.66,    26.09,    25.17,    23.14,    24.25
       86.0,      24.55,    25.96,    25.07,    23.05,    24.12
       87.0,      24.44,    25.83,    24.97,    22.97,    23.99
       88.0,      24.33,    25.71,    24.86,    22.89,    23.87
       89.0,      24.23,    25.59,    24.76,    22.81,    23.76
       90.0,      24.13,    25.47,    24.67,    22.73,    23.64
       91.0,      24.02,    25.35,    24.57,    22.65,    23.53
       92.0,      23.92,    25.24,    24.47,    22.57,    23.42
       93.0,      23.83,    25.13,    24.38,    22.49,    23.31
       94.0,      23.73,    25.02,    24.28,    22.41,    23.21
       95.0,      23.64,    24.91,    24.19,    22.33,    23.11
       96.0,      23.54,    24.81,    24.10,    22.26,    23.01
       97.0,      23.45,    24.70,    24.01,    22.18,    22.91
       98.0,      23.36,    24.60,    23.92,    22.10,    22.82
       99.0,      23.27,    24.50,    23.83,    22.02,    22.73
      100.0,      23.18,    24.41,    23.75,    21.95,    22.64
      101.0,      23.10,    24.31,    23.66,    21.87,    22.55
      102.0,      23.01,    24.22,    23.58,    21.79,    22.46
      103.0,      22.93,    24.13,    23.49,    21.72,    22.38
      104.0,      22.85,    24.04,    23.41,    21.64,    22.29
      105.0,      22.76,    23.95,    23.33,    21.57,    22.21
      106.0,      22.68,    23.86,    23.24,    21.50,    22.13
      107.0,      22.60,    23.78,    23.16,    21.42,    22.06
      108.0,      22.53,    23.69,    23.08,    21.35,    21.98
      109.0,      22.45,    23.61,    23.00,    21.27,    21.90
      110.0,      22.37,    23.53,    22.92,    21.20,    21.83
      111.0,      22.30,    23.45,    22.85,    21.13,    21.76
      112.0,      22.22,    23.37,    22.77,    21.06,    21.69
      113.0,      22.15,    23.29,    22.69,    20.99,    21.62
      114.0,      22.07,    23.21,    22.62,    20.91,    21.55
      115.0,      22.00,    23.13,    22.54,    20.84,    21.48
      116.0,      21.93,    23.06,    22.47,    20.77,    21.42
      117.0,      21.86,    22.98,    22.39,    20.70,    21.35
      118.0,      21.79,    22.91,    22.32,    20.63,    21.29
      119.0,      21.72,    22.84,    22.25,    20.56,    21.23
      120.0,      21.65,    22.77,    22.17,    20.49,    21.16
      121.0,      21.58,    22.70,    22.10,    20.42,    21.10
      122.0,      21.51,    22.63,    22.03,    20.35,    21.04
      123.0,      21.45,    22.56,    21.96,    20.29,    20.98
      124.0,      21.38,    22.49,    21.89,    20.22,    20.93
      125.0,      21.32,    22.42,    21.82,    20.15,    20.87
      126.0,      21.25,    22.36,    21.75,    20.08,    20.81
      127.0,      21.19,    22.29,    21.68,    20.02,    20.76
      128.0,      21.12,    22.22,    21.61,    19.95,    20.70
      129.0,      21.06,    22.16,    21.54,    19.88,    20.65
      130.0,      21.00,    22.10,    21.48,    19.82,    20.59
      131.0,      20.93,    22.03,    21.41,    19.75,    20.54
      132.0,      20.87,    21.97,    21.34,    19.69,    20.49
      133.0,      20.81,    21.91,    21.28,    19.62,    20.43
      134.0,      20.75,    21.85,    21.21,    19.56,    20.38
      135.0,      20.69,    21.78,    21.14,    19.49,    20.33
      136.0,      20.63,    21.72,    21.08,    19.43,    20.28
      137.0,      20.57,    21.66,    21.01,    19.36,    20.23
      138.0,      20.51,    21.60,    20.95,    19.30,    20.18
      139.0,      20.45,    21.55,    20.88,    19.24,    20.13
      140.0,      20.39,    21.49,    20.82,    19.17,    20.08
      141.0,      20.33,    21.43,    20.76,    19.11,    20.04
      142.0,      20.27,    21.37,    20.69,    19.05,    19.99
      143.0,      20.22,    21.31,    20.63,    18.99,    19.94
      144.0,      20.16,    21.26,    20.57,    18.92,    19.90
      145.0,      20.10,    21.20,    20.50,    18.86,    19.85
      146.0,      20.05,    21.14,    20.44,    18.80,    19.80
      147.0,      19.99,    21.09,    20.38,    18.74,    19.76
      148.0,      19.94,    21.03,    20.32,    18.68,    19.71
      149.0,      19.88,    20.98,    20.26,    18.62,    19.67
      150.0,      19.82,    20.92,    20.20,    18.56,    19.62
      151.0,      19.77,    20.87,    20.14,    18.50,    19.58
      152.0,      19.72,    20.81,    20.08,    18.44,    19.54
      153.0,      19.66,    20.76,    20.02,    18.38,    19.49
      154.0,      19.61,    20.71,    19.96,    18.32,    19.45
      155.0,      19.55,    20.65,    19.90,    18.26,    19.41
      156.0,      19.50,    20.60,    19.84,    18.20,    19.36
      157.0,      19.45,    20.55,    19.78,    18.14,    19.32
      158.0,      19.39,    20.49,    19.72,    18.09,    19.28
      159.0,      19.34,    20.44,    19.66,    18.03,    19.24
      160.0,      19.29,    20.39,    19.60,    17.97,    19.20
      161.0,      19.24,    20.34,    19.54,    17.91,    19.15
      162.0,      19.19,    20.29,    19.48,    17.86,    19.11
      163.0,      19.13,    20.24,    19.43,    17.80,    19.07
      164.0,      19.08,    20.19,    19.37,    17.74,    19.03
      165.0,      19.03,    20.14,    19.31,    17.69,    18.99
      166.0,      18.98,    20.09,    19.25,    17.63,    18.95
      167.0,      18.93,    20.04,    19.20,    17.58,    18.91
      168.0,      18.88,    19.99,    19.14,    17.52,    18.87
      169.0,      18.83,    19.94,    19.08,    17.46,    18.83
      170.0,      18.78,    19.89,    19.03,    17.41,    18.79
      171.0,      18.73,    19.84,    18.97,    17.36,    18.75
      172.0,      18.68,    19.79,    18.92,    17.30,    18.72
      173.0,      18.63,    19.74,    18.86,    17.25,    18.68
      174.0,      18.58,    19.69,    18.81,    17.19,    18.64
      175.0,      18.53,    19.64,    18.75,    17.14,    18.60
      176.0,      18.48,    19.59,    18.69,    17.09,    18.56
      177.0,      18.44,    19.55,    18.64,    17.03,    18.52
      178.0,      18.39,    19.50,    18.59,    16.98,    18.48
      179.0,      18.34,    19.45,    18.53,    16.93,    18.45
      180.0,      18.29,    19.40,    18.48,    16.87,    18.41
      181.0,      18.24,    19.36,    18.42,    16.82,    18.37
      182.0,      18.20,    19.31,    18.37,    16.77,    18.33
      183.0,      18.15,    19.26,    18.31,    16.72,    18.30
      184.0,      18.10,    19.22,    18.26,    16.67,    18.26
      185.0,      18.05,    19.17,    18.21,    16.61,    18.22
      186.0,      18.01,    19.12,    18.15,    16.56,    18.19
      187.0,      17.96,    19.08,    18.10,    16.51,    18.15
      188.0,      17.91,    19.03,    18.05,    16.46,    18.11
      189.0,      17.87,    18.98,    18.00,    16.41,    18.08
      190.0,      17.82,    18.94,    17.94,    16.36,    18.04
      191.0,      17.77,    18.89,    17.89,    16.31,    18.00
      192.0,      17.73,    18.85,    17.84,    16.26,    17.97
      193.0,      17.68,    18.80,    17.79,    16.21,    17.93
      194.0,      17.64,    18.76,    17.73,    16.16,    17.90
      195.0,      17.59,    18.71,    17.68,    16.11,    17.86
      196.0,      17.55,    18.67,    17.63,    16.06,    17.82
      197.0,      17.50,    18.62,    17.58,    16.01,    17.79
      198.0,      17.46,    18.58,    17.53,    15.97,    17.75
      199.0,      17.41,    18.53,    17.48,    15.92,    17.72
      200.0,      17.37,    18.49,    17.43,    15.87,    17.68
      201.0,      17.32,    18.44,    17.38,    15.82,    17.65
      202.0,      17.28,    18.40,    17.33,    15.77,    17.61
      203.0,      17.23,    18.35,    17.28,    15.73,    17.58
      204.0,      17.19,    18.31,    17.23,    15.68,    17.54
      205.0,      17.15,    18.27,    17.18,    15.63,    17.51
      206.0,      17.10,    18.22,    17.13,    15.58,    17.47
      207.0,      17.06,    18.18,    17.08,    15.54,    17.44
      208.0,      17.01,    18.14,    17.03,    15.49,    17.41
      209.0,      16.97,    18.09,    16.98,    15.45,    17.37
      210.0,      16.93,    18.05,    16.93,    15.40,    17.34
      211.0,      16.89,    18.01,    16.88,    15.35,    17.30
      212.0,      16.84,    17.96,    16.83,    15.31,    17.27
      213.0,      16.80,    17.92,    16.78,    15.26,    17.23
      214.0,      16.76,    17.88,    16.73,    15.22,    17.20
      215.0,      16.71,    17.84,    16.68,    15.17,    17.17
      216.0,      16.67,    17.79,    16.63,    15.13,    17.13
      217.0,      16.63,    17.75,    16.59,    15.08,    17.10
      218.0,      16.59,    17.71,    16.54,    15.04,    17.07
      219.0,      16.55,    17.67,    16.49,    14.99,    17.03
      220.0,      16.50,    17.62,    16.44,    14.95,    17.00
      221.0,      16.46,    17.58,    16.39,    14.90,    16.97
      222.0,      16.42,    17.54,    16.35,    14.86,    16.93
      223.0,      16.38,    17.50,    16.30,    14.82,    16.90
      224.0,      16.34,    17.46,    16.25,    14.77,    16.87
      225.0,      16.30,    17.42,    16.21,    14.73,    16.83
      226.0,      16.25,    17.37,    16.16,    14.69,    16.80
      227.0,      16.21,    17.33,    16.11,    14.64,    16.77
      228.0,      16.17,    17.29,    16.07,    14.60,    16.73
      229.0,      16.13,    17.25,    16.02,    14.56,    16.70
      230.0,      16.09,    17.21,    15.97,    14.52,    16.67
      231.0,      16.05,    17.17,    15.93,    14.47,    16.64
      232.0,      16.01,    17.13,    15.88,    14.43,    16.60
      233.0,      15.97,    17.09,    15.83,    14.39,    16.57
      234.0,      15.93,    17.05,    15.79,    14.35,    16.54
      235.0,      15.89,    17.01,    15.74,    14.31,    16.51
      236.0,      15.85,    16.97,    15.70,    14.26,    16.47
      237.0,      15.81,    16.93,    15.65,    14.22,    16.44
      238.0,      15.77,    16.89,    15.61,    14.18,    16.41
      239.0,      15.73,    16.85,    15.56,    14.14,    16.38
      240.0,      15.69,    16.81,    15.52,    14.10,    16.35
      241.0,      15.65,    16.77,    15.47,    14.06,    16.31
      242.0,      15.61,    16.73,    15.43,    14.02,    16.28
      243.0,      15.57,    16.69,    15.38,    13.98,    16.25
      244.0,      15.54,    16.65,    15.34,    13.94,    16.22
      245.0,      15.50,    16.61,    15.29,    13.90,    16.19
      246.0,      15.46,    16.57,    15.25,    13.86,    16.16
      247.0,      15.42,    16.53,    15.20,    13.82,    16.12
      248.0,      15.38,    16.49,    15.16,    13.78,    16.09
      249.0,      15.34,    16.45,    15.12,    13.74,    16.06
      250.0,      15.30,    16.41,    15.07,    13.70,    16.03
      251.0,      15.27,    16.37,    15.03,    13.66,    16.00
      252.0,      15.23,    16.34,    14.99,    13.62,    15.97
      253.0,      15.19,    16.30,    14.94,    13.58,    15.94
      254.0,      15.15,    16.26,    14.90,    13.55,    15.91
      255.0,      15.11,    16.22,    14.86,    13.51,    15.87
      256.0,      15.08,    16.18,    14.81,    13.47,    15.84
      257.0,      15.04,    16.14,    14.77,    13.43,    15.81
      258.0,      15.00,    16.11,    14.73,    13.39,    15.78
      259.0,      14.96,    16.07,    14.68,    13.35,    15.75
      260.0,      14.93,    16.03,    14.64,    13.32,    15.72
      261.0,      14.89,    15.99,    14.60,    13.28,    15.69
      262.0,      14.85,    15.95,    14.56,    13.24,    15.66
      263.0,      14.82,    15.92,    14.52,    13.20,    15.63
      264.0,      14.78,    15.88,    14.47,    13.17,    15.60
      265.0,      14.74,    15.84,    14.43,    13.13,    15.57
      266.0,      14.71,    15.80,    14.39,    13.09,    15.54
      267.0,      14.67,    15.77,    14.35,    13.06,    15.51
      268.0,      14.63,    15.73,    14.31,    13.02,    15.48
      269.0,      14.60,    15.69,    14.27,    12.98,    15.45
      270.0,      14.56,    15.65,    14.22,    12.95,    15.42
      271.0,      14.53,    15.62,    14.18,    12.91,    15.39
      272.0,      14.49,    15.58,    14.14,    12.88,    15.36
      273.0,      14.45,    15.54,    14.10,    12.84,    15.33
      274.0,      14.42,    15.51,    14.06,    12.80,    15.30
      275.0,      14.38,    15.47,    14.02,    12.77,    15.27
      276.0,      14.35,    15.43,    13.98,    12.73,    15.24
      277.0,      14.31,    15.40,    13.94,    12.70,    15.21
      278.0,      14.28,    15.36,    13.90,    12.66,    15.18
      279.0,      14.24,    15.32,    13.86,    12.63,    15.15
      280.0,      14.21,    15.29,    13.82,    12.59,    15.12
      281.0,      14.17,    15.25,    13.78,    12.56,    15.09
      282.0,      14.14,    15.22,    13.74,    12.52,    15.06
      283.0,      14.10,    15.18,    13.70,    12.49,    15.03
      284.0,      14.07,    15.14,    13.66,    12.45,    15.00
      285.0,      14.03,    15.11,    13.62,    12.42,    14.97
      286.0,      14.00,    15.07,    13.58,    12.39,    14.95
      287.0,      13.96,    15.04,    13.54,    12.35,    14.92
      288.0,      13.93,    15.00,    13.50,    12.32,    14.89
      289.0,      13.89,    14.97,    13.46,    12.28,    14.86
      290.0,      13.86,    14.93,    13.42,    12.25,    14.83
      291.0,      13.82,    14.90,    13.38,    12.22,    14.80
      292.0,      13.79,    14.86,    13.35,    12.18,    14.77
      293.0,      13.76,    14.83,    13.31,    12.15,    14.74
      294.0,      13.72,    14.79,    13.27,    12.12,    14.72
      295.0,      13.69,    14.76,    13.23,    12.09,    14.69
      296.0,      13.66,    14.72,    13.19,    12.05,    14.66
      297.0,      13.62,    14.69,    13.15,    12.02,    14.63
      298.0,      13.59,    14.65,    13.12,    11.99,    14.60
      299.0,      13.56,    14.62,    13.08,    11.95,    14.57
      300.0,      13.52,    14.58,    13.04,    11.92,    14.54
      301.0,      13.49,    14.55,    13.00,    11.89,    14.52
      302.0,      13.46,    14.51,    12.96,    11.86,    14.49
      303.0,      13.42,    14.48,    12.93,    11.83,    14.46
      304.0,      13.39,    14.45,    12.89,    11.79,    14.43
      305.0,      13.36,    14.41,    12.85,    11.76,    14.40
      306.0,      13.32,    14.38,    12.82,    11.73,    14.38
      307.0,      13.29,    14.34,    12.78,    11.70,    14.35
      308.0,      13.26,    14.31,    12.74,    11.67,    14.32
      309.0,      13.23,    14.28,    12.70,    11.64,    14.29
      310.0,      13.19,    14.24,    12.67,    11.60,    14.26
