Radius (km), Mean (m/s), NE (m/s), SE (m/s), SW (m/s), NW (m/s)
        0.0,       0.00,     0.00,     0.00,     0.00,     0.00
        1.0,       2.41,     2.43,     2.39,     2.39,     2.43
        2.0,       4.09,     4.10,     4.08,     4.08,     4.10
        3.0,       5.58,     5.57,     5.58,     5.58,     5.57
        4.0,       6.95,     6.93,     6.97,     6.97,     6.93
        5.0,       8.24,     8.20,     8.28,     8.28,     8.20
        6.0,       9.48,     9.42,     9.53,     9.53,     9.42
        7.0,      10.66,    10.58,    10.74,    10.74,    10.58
        8.0,      11.81,    11.71,    11.91,    11.91,    11.71
        9.0,      12.92,    12.80,    13.04,    13.04,    12.80
       10.0,      14.01,    13.86,    14.15,    14.15,    13.86
       11.0,      15.07,    14.90,    15.23,    15.23,    14.90
       12.0,      16.11,    15.93,    16.30,    16.30,    15.91
       13.0,      17.16,    16.99,    17.38,    17.35,    16.93
       14.0,      18.24,    18.10,    18.49,    18.42,    17.96
       15.0,      19.39,    19.28,    19.68,    19.54,    19.05
       16.0,      20.61,    20.55,    20.95,    20.73,    20.21
       17.0,      21.90,    21.88,    22.29,    22.00,    21.44
       18.0,      23.25,    23.26,    23.69,    23.33,    22.72
       19.0,      24.61,    24.61,    25.10,    24.68,    24.03
       20.0,      25.92,    25.90,    26.46,    26.02,    25.30
       21.0,      27.14,    27.06,    27.72,    27.28,    26.49
       22.0,      28.20,    28.05,    28.81,    28.41,    27.54
       23.0,      29.08,    28.83,    29.71,    29.36,    28.42
       24.0,      29.75,    29.41,    30.38,    30.11,    29.10
       25.0,      30.21,    29.78,    30.84,    30.65,    29.58
       26.0,      30.48,    29.98,    31.10,    30.99,    29.87
       27.0,      30.60,    30.04,    31.19,    31.15,    30.00
       28.0,      30.59,    30.01,    31.17,    31.18,    30.01
       29.0,      30.51,    29.92,    31.07,    31.12,    29.95
       30.0,      30.40,    29.81,    30.94,    31.01,    29.84
       31.0,      30.28,    29.69,    30.80,    30.89,    29.72
       32.0,      30.16,    29.59,    30.67,    30.77,    29.61
       33.0,      30.04,    29.48,    30.54,    30.66,    29.50
       34.0,      29.94,    29.38,    30.42,    30.55,    29.40
       35.0,      29.83,    29.28,    30.30,    30.45,    29.30
       36.0,      29.73,    29.18,    30.18,    30.35,    29.20
       37.0,      29.63,    29.08,    30.06,    30.25,    29.11
       38.0,      29.52,    28.98,    29.95,    30.15,    29.01
       39.0,      29.42,    28.88,    29.83,    30.05,    28.91
       40.0,      29.32,    28.79,    29.71,    29.96,    28.82
       41.0,      29.22,    28.69,    29.60,    29.86,    28.72
       42.0,      29.12,    28.59,    29.48,    29.76,    28.63
       43.0,      29.01,    28.50,    29.37,    29.66,    28.53
       44.0,      28.91,    28.40,    29.25,    29.57,    28.44
       45.0,      28.81,    28.31,    29.14,    29.47,    28.34
       46.0,      28.72,    28.21,    29.03,    29.37,    28.25
       47.0,      28.62,    28.12,    28.91,    29.28,    28.16
       48.0,      28.52,    28.03,    28.80,    29.18,    28.07
       49.0,      28.42,    27.94,    28.69,    29.08,    27.97
       50.0,      28.32,    27.84,    28.58,    28.99,    27.88
       51.0,      28.23,    27.75,    28.47,    28.89,    27.79
       52.0,      28.13,    27.66,    28.36,    28.80,    27.70
       53.0,      28.03,    27.57,    28.25,    28.71,    27.61
       54.0,      27.94,    27.48,    28.15,    28.61,    27.52
       55.0,      27.84,    27.39,    28.04,    28.52,    27.43
       56.0,      27.75,    27.30,    27.93,    28.42,    27.34
       57.0,      27.66,    27.22,    27.83,    28.33,    27.25
       58.0,      27.56,    27.13,    27.72,    28.24,    27.16
       59.0,      27.47,    27.04,    27.62,    28.15,    27.07
       60.0,      27.38,    26.96,    27.51,    28.05,    26.99
       61.0,      27.28,    26.87,    27.41,    27.96,    26.90
       62.0,      27.19,    26.78,    27.30,    27.87,    26.81
       63.0,      27.10,    26.70,    27.20,    27.78,    26.72
       64.0,      27.01,    26.62,    27.10,    27.69,    26.64
       65.0,      26.92,    26.53,    27.00,    27.60,    26.55
       66.0,      26.83,    26.45,    26.90,    27.51,    26.47
       67.0,      26.74,    26.37,    26.80,    27.42,    26.38
       68.0,      26.65,    26.28,    26.70,    27.33,    26.30
       69.0,      26.56,    26.20,    26.60,    27.24,    26.21
       70.0,      26.47,    26.12,    26.50,    27.15,    26.13
       71.0,      26.39,    26.04,    26.40,    27.06,    26.04
       72.0,      26.30,    25.96,    26.30,    26.97,    25.96
       73.0,      26.21,    25.88,    26.21,    26.88,    25.88
       74.0,      26.12,    25.80,    26.11,    26.80,    25.80
       75.0,      26.04,    25.72,    26.01,    26.71,    25.71
       76.0,      25.95,    25.64,    25.92,    26.62,    25.63
       77.0,      25.87,    25.56,    25.82,    26.53,    25.55
       78.0,      25.78,    25.48,    25.73,    26.45,    25.47
       79.0,      25.70,    25.41,    25.63,    26.36,    25.39
       80.0,      25.61,    25.33,    25.54,    26.28,    25.31
       81.0,      25.53,    25.25,    25.45,    26.19,    25.23
       82.0,      25.45,    25.18,    25.35,    26.10,    25.15
       83.0,      25.36,    25.10,    25.26,    26.02,    25.07
       84.0,      25.28,    25.03,    25.17,    25.93,    24.99
       85.0,      25.20,    24.95,    25.08,    25.85,    24.91
       86.0,      25.12,    24.88,    24.99,    25.76,    24.83
       87.0,      25.03,    24.81,    24.90,    25.68,    24.75
       88.0,      24.95,    24.73,    24.81,    25.60,    24.67
       89.0,      24.87,    24.66,    24.72,    25.51,    24.60
       90.0,      24.79,    24.59,    24.63,    25.43,    24.52
       91.0,      24.71,    24.51,    24.54,    25.35,    24.44
       92.0,      24.63,    24.44,    24.46,    25.26,    24.37
       93.0,      24.55,    24.37,    24.37,    25.18,    24.29
       94.0,      24.47,    24.30,    24.28,    25.10,    24.21
       95.0,      24.39,    24.23,    24.19,    25.02,    24.14
       96.0,      24.32,    24.16,    24.11,    24.93,    24.06
       97.0,      24.24,    24.09,    24.02,    24.85,    23.99
       98.0,      24.16,    24.02,    23.94,    24.77,    23.91
       99.0,      24.08,    23.95,    23.85,    24.69,    23.84
      100.0,      24.01,    23.88,    23.77,    24.61,    23.76
      101.0,      23.93,    23.82,    23.69,    24.53,    23.69
      102.0,      23.85,    23.75,    23.60,    24.45,    23.62
      103.0,      23.78,    23.68,    23.52,    24.37,    23.54
      104.0,      23.70,    23.61,    23.44,    24.29,    23.47
      105.0,      23.63,    23.55,    23.36,    24.21,    23.40
      106.0,      23.55,    23.48,    23.27,    24.13,    23.33
      107.0,      23.48,    23.41,    23.19,    24.05,    23.25
      108.0,      23.41,    23.35,    23.11,    23.98,    23.18
      109.0,      23.33,    23.28,    23.03,    23.90,    23.11
      110.0,      23.26,    23.22,    22.95,    23.82,    23.04
      111.0,      23.18,    23.16,    22.87,    23.74,    22.97
      112.0,      23.11,    23.09,    22.79,    23.66,    22.90
      113.0,      23.04,    23.03,    22.72,    23.59,    22.83
      114.0,      22.97,    22.96,    22.64,    23.51,    22.76
      115.0,      22.90,    22.90,    22.56,    23.43,    22.69
      116.0,      22.82,    22.84,    22.48,    23.36,    22.62
      117.0,      22.75,    22.78,    22.41,    23.28,    22.55
      118.0,      22.68,    22.71,    22.33,    23.20,    22.48
      119.0,      22.61,    22.65,    22.25,    23.13,    22.41
      120.0,      22.54,    22.59,    22.18,    23.05,    22.34
      121.0,      22.47,    22.53,    22.10,    22.98,    22.28
      122.0,      22.40,    22.47,    22.03,    22.90,    22.21
      123.0,      22.33,    22.41,    21.95,    22.83,    22.14
      124.0,      22.26,    22.35,    21.88,    22.75,    22.07
      125.0,      22.20,    22.29,    21.81,    22.68,    22.01
      126.0,      22.13,    22.23,    21.73,    22.61,    21.94
      127.0,      22.06,    22.17,    21.66,    22.53,    21.87
      128.0,      21.99,    22.11,    21.59,    22.46,    21.81
      129.0,      21.92,    22.06,    21.51,    22.39,    21.74
      130.0,      21.86,    22.00,    21.44,    22.31,    21.68
      131.0,      21.79,    21.94,    21.37,    22.24,    21.61
      132.0,      21.72,    21.88,    21.30,    22.17,    21.55
      133.0,      21.66,    21.83,    21.23,    22.09,    21.48
      134.0,      21.59,    21.77,    21.16,    22.02,    21.42
      135.0,      21.53,    21.71,    21.09,    21.95,    21.35
      136.0,      21.46,    21.66,    21.02,    21.88,    21.29
      137.0,      21.40,    21.60,    20.95,    21.81,    21.22
      138.0,      21.33,    21.54,    20.88,    21.74,    21.16
      139.0,      21.27,    21.49,    20.81,    21.67,    21.10
      140.0,      21.20,    21.43,    20.75,    21.60,    21.03
      141.0,      21.14,    21.38,    20.68,    21.53,    20.97
      142.0,      21.07,    21.33,    20.61,    21.46,    20.91
      143.0,      21.01,    21.27,    20.54,    21.39,    20.84
      144.0,      20.95,    21.22,    20.48,    21.32,    20.78
      145.0,      20.88,    21.16,    20.41,    21.25,    20.72
      146.0,      20.82,    21.11,    20.34,    21.18,    20.66
      147.0,      20.76,    21.06,    20.28,    21.11,    20.60
      148.0,      20.70,    21.00,    20.21,    21.04,    20.54
      149.0,      20.64,    20.95,    20.15,    20.97,    20.48
      150.0,      20.57,    20.90,    20.08,    20.90,    20.41
      151.0,      20.51,    20.85,    20.02,    20.83,    20.35
      152.0,      20.45,    20.80,    19.95,    20.77,    20.29
      153.0,      20.39,    20.75,    19.89,    20.70,    20.23
      154.0,      20.33,    20.69,    19.83,    20.63,    20.17
      155.0,      20.27,    20.64,    19.76,    20.56,    20.11
      156.0,      20.21,    20.59,    19.70,    20.50,    20.05
      157.0,      20.15,    20.54,    19.64,    20.43,    20.00
      158.0,      20.09,    20.49,    19.57,    20.36,    19.94
      159.0,      20.03,    20.44,    19.51,    20.30,    19.88
      160.0,      19.97,    20.39,    19.45,    20.23,    19.82
      161.0,      19.92,    20.34,    19.39,    20.17,    19.76
      162.0,      19.86,    20.30,    19.33,    20.10,    19.70
      163.0,      19.80,    20.25,    19.27,    20.03,    19.65
      164.0,      19.74,    20.20,    19.21,    19.97,    19.59
      165.0,      19.68,    20.15,    19.15,    19.90,    19.53
      166.0,      19.63,    20.10,    19.09,    19.84,    19.47
      167.0,      19.57,    20.05,    19.03,    19.78,    19.42
      168.0,      19.51,    20.01,    18.97,    19.71,    19.36
      169.0,      19.45,    19.96,    18.91,    19.65,    19.30
      170.0,      19.40,    19.91,    18.85,    19.58,    19.25
      171.0,      19.34,    19.87,    18.79,    19.52,    19.19
      172.0,      19.29,    19.82,    18.74,    19.46,    19.13
      173.0,      19.23,    19.77,    18.68,    19.39,    19.08
      174.0,      19.17,    19.73,    18.62,    19.33,    19.02
      175.0,      19.12,    19.68,    18.56,    19.27,    18.97
      176.0,      19.06,    19.64,    18.51,    19.20,    18.91
      177.0,      19.01,    19.59,    18.45,    19.14,    18.86
      178.0,      18.96,    19.54,    18.39,    19.08,    18.80
      179.0,      18.90,    19.50,    18.34,    19.02,    18.75
      180.0,      18.85,    19.46,    18.28,    18.95,    18.69
      181.0,      18.79,    19.41,    18.23,    18.89,    18.64
      182.0,      18.74,    19.37,    18.17,    18.83,    18.59
      183.0,      18.69,    19.32,    18.12,    18.77,    18.53
      184.0,      18.63,    19.28,    18.06,    18.71,    18.48
      185.0,      18.58,    19.24,    18.01,    18.65,    18.43
      186.0,      18.53,    19.19,    17.95,    18.59,    18.37
      187.0,      18.47,    19.15,    17.90,    18.53,    18.32
      188.0,      18.42,    19.11,    17.85,    18.47,    18.27
      189.0,      18.37,    19.06,    17.79,    18.41,    18.21
      190.0,      18.32,    19.02,    17.74,    18.35,    18.16
      191.0,      18.27,    18.98,    17.69,    18.29,    18.11
      192.0,      18.21,    18.94,    17.63,    18.23,    18.06
      193.0,      18.16,    18.89,    17.58,    18.17,    18.01
      194.0,      18.11,    18.85,    17.53,    18.11,    17.95
      195.0,      18.06,    18.81,    17.48,    18.05,    17.90
      196.0,      18.01,    18.77,    17.43,    17.99,    17.85
      197.0,      17.96,    18.73,    17.37,    17.93,    17.80
      198.0,      17.91,    18.69,    17.32,    17.88,    17.75
      199.0,      17.86,    18.65,    17.27,    17.82,    17.70
      200.0,      17.81,    18.61,    17.22,    17.76,    17.65
      201.0,      17.76,    18.57,    17.17,    17.70,    17.60
      202.0,      17.71,    18.53,    17.12,    17.64,    17.55
      203.0,      17.66,    18.49,    17.07,    17.59,    17.50
      204.0,      17.61,    18.45,    17.02,    17.53,    17.45
      205.0,      17.56,    18.41,    16.97,    17.47,    17.40
      206.0,      17.51,    18.37,    16.92,    17.42,    17.35
      207.0,      17.47,    18.33,    16.87,    17.36,    17.30
      208.0,      17.42,    18.29,    16.83,    17.30,    17.25
      209.0,      17.37,    18.25,    16.78,    17.25,    17.20
      210.0,      17.32,    18.21,    16.73,    17.19,    17.15
      211.0,      17.27,    18.17,    16.68,    17.14,    17.10
      212.0,      17.23,    18.13,    16.63,    17.08,    17.06
      213.0,      17.18,    18.10,    16.59,    17.02,    17.01
      214.0,      17.13,    18.06,    16.54,    16.97,    16.96
      215.0,      17.08,    18.02,    16.49,    16.91,    16.91
      216.0,      17.04,    17.98,    16.44,    16.86,    16.86
      217.0,      16.99,    17.95,    16.40,    16.80,    16.82
      218.0,      16.94,    17.91,    16.35,    16.75,    16.77
      219.0,      16.90,    17.87,    16.30,    16.70,    16.72
      220.0,      16.85,    17.83,    16.26,    16.64,    16.68
      221.0,      16.81,    17.80,    16.21,    16.59,    16.63
      222.0,      16.76,    17.76,    16.17,    16.53,    16.58
      223.0,      16.72,    17.72,    16.12,    16.48,    16.54
      224.0,      16.67,    17.69,    16.08,    16.43,    16.49
      225.0,      16.62,    17.65,    16.03,    16.37,    16.44
      226.0,      16.58,    17.62,    15.99,    16.32,    16.40
      227.0,      16.54,    17.58,    15.94,    16.27,    16.35
      228.0,      16.49,    17.54,    15.90,    16.21,    16.30
      229.0,      16.45,    17.51,    15.85,    16.16,    16.26
      230.0,      16.40,    17.47,    15.81,    16.11,    16.21
      231.0,      16.36,    17.44,    15.77,    16.06,    16.17
      232.0,      16.31,    17.40,    15.72,    16.00,    16.12
      233.0,      16.27,    17.37,    15.68,    15.95,    16.08
      234.0,      16.23,    17.33,    15.64,    15.90,    16.03
      235.0,      16.18,    17.30,    15.59,    15.85,    15.99
      236.0,      16.14,    17.27,    15.55,    15.80,    15.94
      237.0,      16.10,    17.23,    15.51,    15.75,    15.90
      238.0,      16.05,    17.20,    15.47,    15.70,    15.86
      239.0,      16.01,    17.16,    15.42,    15.64,    15.81
      240.0,      15.97,    17.13,    15.38,    15.59,    15.77
      241.0,      15.93,    17.10,    15.34,    15.54,    15.72
      242.0,      15.88,    17.06,    15.30,    15.49,    15.68
      243.0,      15.84,    17.03,    15.26,    15.44,    15.64
      244.0,      15.80,    17.00,    15.22,    15.39,    15.59
      245.0,      15.76,    16.96,    15.18,    15.34,    15.55
      246.0,      15.72,    16.93,    15.13,    15.29,    15.51
      247.0,      15.67,    16.90,    15.09,    15.24,    15.46
      248.0,      15.63,    16.87,    15.05,    15.19,    15.42
      249.0,      15.59,    16.83,    15.01,    15.14,    15.38
      250.0,      15.55,    16.80,    14.97,    15.09,    15.34
      251.0,      15.51,    16.77,    14.93,    15.05,    15.29
      252.0,      15.47,    16.74,    14.89,    15.00,    15.25
      253.0,      15.43,    16.71,    14.85,    14.95,    15.21
      254.0,      15.39,    16.67,    14.82,    14.90,    15.17
      255.0,      15.35,    16.64,    14.78,    14.85,    15.13
      256.0,      15.31,    16.61,    14.74,    14.80,    15.08
      257.0,      15.27,    16.58,    14.70,    14.76,    15.04
      258.0,      15.23,    16.55,    14.66,    14.71,    15.00
      259.0,      15.19,    16.52,    14.62,    14.66,    14.96
      260.0,      15.15,    16.49,    14.58,    14.61,    14.92
      261.0,      15.11,    16.45,    14.54,    14.57,    14.88
      262.0,      15.07,    16.42,    14.51,    14.52,    14.84
      263.0,      15.03,    16.39,    14.47,    14.47,    14.80
      264.0,      14.99,    16.36,    14.43,    14.42,    14.76
      265.0,      14.96,    16.33,    14.39,    14.38,    14.72
      266.0,      14.92,    16.30,    14.36,    14.33,    14.68
      267.0,      14.88,    16.27,    14.32,    14.28,    14.64
      268.0,      14.84,    16.24,    14.28,    14.24,    14.60
      269.0,      14.80,    16.21,    14.25,    14.19,    14.56
      270.0,      14.76,    16.18,    14.21,    14.15,    14.52
      271.0,      14.73,    16.15,    14.17,    14.10,    14.48
      272.0,      14.69,    16.12,    14.14,    14.05,    14.44
      273.0,      14.65,    16.10,    14.10,    14.01,    14.40
      274.0,      14.61,    16.07,    14.06,    13.96,    14.36
      275.0,      14.58,    16.04,    14.03,    13.92,    14.32
      276.0,      14.54,    16.01,    13.99,    13.87,    14.28
      277.0,      14.50,    15.98,    13.96,    13.83,    14.24
      278.0,      14.46,    15.95,    13.92,    13.78,    14.20
      279.0,      14.43,    15.92,    13.89,    13.74,    14.16
      280.0,      14.39,    15.89,    13.85,    13.69,    14.13
      281.0,      14.35,    15.86,    13.82,    13.65,    14.09
      282.0,      14.32,    15.84,    13.78,    13.61,    14.05
      283.0,      14.28,    15.81,    13.75,    13.56,    14.01
      284.0,      14.25,    15.78,    13.71,    13.52,    13.97
      285.0,      14.21,    15.75,    13.68,    13.47,    13.94
      286.0,      14.17,    15.72,    13.64,    13.43,    13.90
      287.0,      14.14,    15.70,    13.61,    13.39,    13.86
      288.0,      14.10,    15.67,    13.58,    13.34,    13.82
      289.0,      14.07,    15.64,    13.54,    13.30,    13.78
      290.0,      14.03,    15.61,    13.51,    13.26,    13.75
      291.0,      14.00,    15.59,    13.48,    13.21,    13.71
      292.0,      13.96,    15.56,    13.44,    13.17,    13.67
      293.0,      13.93,    15.53,    13.41,    13.13,    13.64
      294.0,      13.89,    15.51,    13.38,    13.09,    13.60
      295.0,      13.86,    15.48,    13.34,    13.04,    13.56
      296.0,      13.82,    15.45,    13.31,    13.00,    13.53
      297.0,      13.79,    15.43,    13.28,    12.96,    13.49
      298.0,      13.75,    15.40,    13.25,    12.92,    13.45
      299.0,      13.72,    15.37,    13.21,    12.88,    13.42
      300.0,      13.69,    15.35,    13.18,    12.83,    13.38
      301.0,      13.65,    15.32,    13.15,    12.79,    13.35
      302.0,      13.62,    15.29,    13.12,    12.75,    13.31
      303.0,      13.58,    15.27,    13.09,    12.71,    13.27
      304.0,      13.55,    15.24,    13.05,    12.67,    13.24
      305.0,      13.52,    15.22,    13.02,    12.63,    13.20
      306.0,      13.48,    15.19,    12.99,    12.59,    13.17
      307.0,      13.45,    15.16,    12.96,    12.55,    13.13
      308.0,      13.42,    15.14,    12.93,    12.51,    13.10
      309.0,      13.38,    15.11,    12.90,    12.47,    13.06
      310.0,      13.35,    15.09,    12.87,    12.42,    13.03
