Radius (km), Mean (m/s), NE (m/s), SE (m/s), SW (m/s), NW (m/s)
        0.0,       0.00,     0.00,     0.00,     0.00,     0.00
        1.0,       1.83,     1.54,     1.96,     2.29,     1.54
        2.0,       3.45,     3.15,     3.63,     3.89,     3.15
        3.0,       5.02,     4.78,     5.21,     5.30,     4.78
        4.0,       6.55,     6.44,     6.73,     6.60,     6.44
        5.0,       8.06,     8.11,     8.21,     7.82,     8.11
        6.0,       9.56,     9.79,     9.66,     8.98,     9.79
        7.0,      11.04,    11.49,    11.08,    10.10,    11.49
        8.0,      12.51,    13.19,    12.48,    11.18,    13.19
        9.0,      13.97,    14.89,    13.87,    12.23,    14.89
       10.0,      15.43,    16.61,    15.23,    13.26,    16.61
       11.0,      16.87,    18.33,    16.58,    14.25,    18.33
       12.0,      18.32,    20.06,    17.92,    15.23,    20.06
       13.0,      19.79,    21.84,    19.28,    16.21,    21.84
       14.0,      21.34,    23.72,    20.70,    17.22,    23.72
       15.0,      23.01,    25.79,    22.21,    18.28,    25.78
       16.0,      24.85,    28.08,    23.85,    19.41,    28.07
       17.0,      26.86,    30.61,    25.62,    20.61,    30.60
       18.0,      29.00,    33.32,    27.49,    21.86,    33.32
       19.0,      31.20,    36.14,    29.41,    23.13,    36.13
       20.0,      33.37,    38.91,    31.29,    24.37,    38.91
       21.0,      35.40,    41.51,    33.06,    25.53,    41.51
       22.0,      37.18,    43.78,    34.61,    26.54,    43.79
       23.0,      38.63,    45.62,    35.89,    27.39,    45.63
       24.0,      39.71,    46.96,    36.86,    28.04,    46.97
       25.0,      40.39,    47.78,    37.50,    28.49,    47.79
       26.0,      40.71,    48.11,    37.85,    28.75,    48.12
       27.0,      40.72,    48.03,    37.94,    28.87,    48.04
       28.0,      40.50,    47.65,    37.83,    28.86,    47.65
       29.0,      40.13,    47.08,    37.61,    28.78,    47.07
       30.0,      39.70,    46.41,    37.32,    28.67,    46.39
       31.0,      39.24,    45.73,    37.01,    28.54,    45.70
       32.0,      38.81,    45.08,    36.71,    28.41,    45.03
       33.0,      38.40,    44.47,    36.43,    28.30,    44.42
       34.0,      38.02,    43.90,    36.17,    28.19,    43.83
       35.0,      37.65,    43.35,    35.91,    28.08,    43.28
       36.0,      37.30,    42.82,    35.65,    27.98,    42.74
       37.0,      36.95,    42.31,    35.40,    27.87,    42.22
       38.0,      36.61,    41.81,    35.15,    27.76,    41.71
       39.0,      36.28,    41.34,    34.90,    27.66,    41.23
       40.0,      35.96,    40.87,    34.66,    27.56,    40.76
       41.0,      35.65,    40.42,    34.42,    27.45,    40.30
       42.0,      35.35,    39.99,    34.19,    27.35,    39.86
       43.0,      35.05,    39.57,    33.96,    27.25,    39.43
       44.0,      34.76,    39.16,    33.73,    27.14,    39.02
       45.0,      34.48,    38.77,    33.50,    27.04,    38.62
       46.0,      34.21,    38.38,    33.28,    26.94,    38.23
       47.0,      33.94,    38.01,    33.06,    26.84,    37.86
       48.0,      33.68,    37.65,    32.85,    26.74,    37.49
       49.0,      33.43,    37.31,    32.63,    26.64,    37.14
       50.0,      33.18,    36.97,    32.42,    26.54,    36.80
       51.0,      32.94,    36.64,    32.21,    26.45,    36.46
       52.0,      32.70,    36.32,    32.01,    26.35,    36.14
       53.0,      32.47,    36.01,    31.81,    26.25,    35.83
       54.0,      32.25,    35.71,    31.61,    26.15,    35.52
       55.0,      32.03,    35.42,    31.41,    26.06,    35.23
       56.0,      31.82,    35.14,    31.22,    25.96,    34.94
       57.0,      31.61,    34.86,    31.03,    25.87,    34.66
       58.0,      31.40,    34.59,    30.84,    25.77,    34.39
       59.0,      31.20,    34.33,    30.65,    25.68,    34.13
       60.0,      31.00,    34.08,    30.47,    25.59,    33.87
       61.0,      30.81,    33.84,    30.29,    25.49,    33.63
       62.0,      30.62,    33.60,    30.11,    25.40,    33.38
       63.0,      30.44,    33.36,    29.93,    25.31,    33.15
       64.0,      30.26,    33.13,    29.76,    25.22,    32.92
       65.0,      30.08,    32.91,    29.59,    25.13,    32.69
       66.0,      29.91,    32.70,    29.42,    25.03,    32.48
       67.0,      29.74,    32.49,    29.25,    24.94,    32.26
       68.0,      29.57,    32.28,    29.08,    24.85,    32.06
       69.0,      29.41,    32.08,    28.92,    24.77,    31.86
       70.0,      29.25,    31.89,    28.76,    24.68,    31.66
       71.0,      29.09,    31.70,    28.60,    24.59,    31.47
       72.0,      28.93,    31.51,    28.44,    24.50,    31.28
       73.0,      28.78,    31.33,    28.29,    24.41,    31.09
       74.0,      28.63,    31.15,    28.13,    24.33,    30.92
       75.0,      28.48,    30.98,    27.98,    24.24,    30.74
       76.0,      28.34,    30.81,    27.83,    24.15,    30.57
       77.0,      28.20,    30.64,    27.69,    24.07,    30.40
       78.0,      28.06,    30.48,    27.54,    23.98,    30.24
       79.0,      27.92,    30.32,    27.40,    23.90,    30.08
       80.0,      27.79,    30.16,    27.25,    23.82,    29.92
       81.0,      27.65,    30.01,    27.11,    23.73,    29.77
       82.0,      27.52,    29.86,    26.97,    23.65,    29.62
       83.0,      27.40,    29.71,    26.84,    23.57,    29.47
       84.0,      27.27,    29.57,    26.70,    23.48,    29.33
       85.0,      27.14,    29.43,    26.57,    23.40,    29.18
       86.0,      27.02,    29.29,    26.43,    23.32,    29.04
       87.0,      26.90,    29.15,    26.30,    23.24,    28.91
       88.0,      26.78,    29.02,    26.17,    23.16,    28.77
       89.0,      26.66,    28.89,    26.05,    23.08,    28.64
       90.0,      26.55,    28.76,    25.92,    23.00,    28.51
       91.0,      26.43,    28.63,    25.79,    22.92,    28.39
       92.0,      26.32,    28.51,    25.67,    22.84,    28.26
       93.0,      26.21,    28.38,    25.55,    22.76,    28.14
       94.0,      26.10,    28.26,    25.43,    22.68,    28.02
       95.0,      25.99,    28.14,    25.31,    22.60,    27.90
       96.0,      25.88,    28.03,    25.19,    22.53,    27.78
       97.0,      25.78,    27.91,    25.08,    22.45,    27.67
       98.0,      25.67,    27.80,    24.96,    22.37,    27.55
       99.0,      25.57,    27.69,    24.85,    22.30,    27.44
      100.0,      25.47,    27.58,    24.73,    22.22,    27.33
      101.0,      25.36,    27.47,    24.62,    22.14,    27.22
      102.0,      25.26,    27.36,    24.51,    22.07,    27.12
      103.0,      25.17,    27.26,    24.40,    21.99,    27.01
      104.0,      25.07,    27.15,    24.29,    21.92,    26.91
      105.0,      24.97,    27.05,    24.19,    21.85,    26.80
      106.0,      24.88,    26.95,    24.08,    21.77,    26.70
      107.0,      24.78,    26.85,    23.98,    21.70,    26.60
      108.0,      24.69,    26.75,    23.87,    21.63,    26.50
      109.0,      24.60,    26.65,    23.77,    21.55,    26.41
      110.0,      24.50,    26.55,    23.67,    21.48,    26.31
      111.0,      24.41,    26.46,    23.57,    21.41,    26.21
      112.0,      24.32,    26.36,    23.47,    21.34,    26.12
      113.0,      24.23,    26.27,    23.37,    21.27,    26.03
      114.0,      24.15,    26.18,    23.28,    21.20,    25.93
      115.0,      24.06,    26.09,    23.18,    21.13,    25.84
      116.0,      23.97,    26.00,    23.08,    21.06,    25.75
      117.0,      23.89,    25.91,    22.99,    20.99,    25.66
      118.0,      23.80,    25.82,    22.90,    20.92,    25.57
      119.0,      23.72,    25.73,    22.80,    20.85,    25.49
      120.0,      23.63,    25.64,    22.71,    20.78,    25.40
      121.0,      23.55,    25.55,    22.62,    20.71,    25.31
      122.0,      23.47,    25.47,    22.53,    20.64,    25.23
      123.0,      23.39,    25.38,    22.44,    20.58,    25.14
      124.0,      23.31,    25.30,    22.36,    20.51,    25.06
      125.0,      23.23,    25.22,    22.27,    20.44,    24.98
      126.0,      23.15,    25.13,    22.18,    20.37,    24.90
      127.0,      23.07,    25.05,    22.10,    20.31,    24.81
      128.0,      22.99,    24.97,    22.01,    20.24,    24.73
      129.0,      22.91,    24.89,    21.93,    20.18,    24.65
      130.0,      22.83,    24.81,    21.85,    20.11,    24.57
      131.0,      22.76,    24.73,    21.76,    20.05,    24.49
      132.0,      22.68,    24.65,    21.68,    19.98,    24.41
      133.0,      22.61,    24.57,    21.60,    19.92,    24.34
      134.0,      22.53,    24.49,    21.52,    19.85,    24.26
      135.0,      22.46,    24.42,    21.44,    19.79,    24.18
      136.0,      22.38,    24.34,    21.36,    19.72,    24.11
      137.0,      22.31,    24.26,    21.28,    19.66,    24.03
      138.0,      22.24,    24.19,    21.21,    19.60,    23.96
      139.0,      22.16,    24.11,    21.13,    19.54,    23.88
      140.0,      22.09,    24.04,    21.05,    19.47,    23.81
      141.0,      22.02,    23.96,    20.98,    19.41,    23.73
      142.0,      21.95,    23.89,    20.90,    19.35,    23.66
      143.0,      21.88,    23.82,    20.83,    19.29,    23.59
      144.0,      21.81,    23.74,    20.76,    19.23,    23.51
      145.0,      21.74,    23.67,    20.68,    19.17,    23.44
      146.0,      21.67,    23.60,    20.61,    19.11,    23.37
      147.0,      21.60,    23.53,    20.54,    19.04,    23.30
      148.0,      21.53,    23.45,    20.47,    18.98,    23.23
      149.0,      21.47,    23.38,    20.40,    18.93,    23.16
      150.0,      21.40,    23.31,    20.33,    18.87,    23.09
      151.0,      21.33,    23.24,    20.26,    18.81,    23.02
      152.0,      21.26,    23.17,    20.19,    18.75,    22.95
      153.0,      21.20,    23.10,    20.12,    18.69,    22.88
      154.0,      21.13,    23.03,    20.06,    18.63,    22.81
      155.0,      21.07,    22.96,    19.99,    18.57,    22.74
      156.0,      21.00,    22.90,    19.92,    18.51,    22.67
      157.0,      20.94,    22.83,    19.86,    18.46,    22.61
      158.0,      20.87,    22.76,    19.79,    18.40,    22.54
      159.0,      20.81,    22.69,    19.72,    18.34,    22.47
      160.0,      20.74,    22.63,    19.66,    18.29,    22.40
      161.0,      20.68,    22.56,    19.60,    18.23,    22.34
      162.0,      20.62,    22.49,    19.53,    18.17,    22.27
      163.0,      20.55,    22.42,    19.47,    18.12,    22.21
      164.0,      20.49,    22.36,    19.41,    18.06,    22.14
      165.0,      20.43,    22.29,    19.34,    18.01,    22.08
      166.0,      20.37,    22.23,    19.28,    17.95,    22.01
      167.0,      20.31,    22.16,    19.22,    17.90,    21.95
      168.0,      20.24,    22.10,    19.16,    17.84,    21.88
      169.0,      20.18,    22.03,    19.10,    17.79,    21.82
      170.0,      20.12,    21.97,    19.04,    17.73,    21.75
      171.0,      20.06,    21.90,    18.98,    17.68,    21.69
      172.0,      20.00,    21.84,    18.92,    17.62,    21.63
      173.0,      19.94,    21.78,    18.86,    17.57,    21.56
      174.0,      19.88,    21.71,    18.80,    17.52,    21.50
      175.0,      19.82,    21.65,    18.75,    17.46,    21.44
      176.0,      19.77,    21.59,    18.69,    17.41,    21.37
      177.0,      19.71,    21.52,    18.63,    17.36,    21.31
      178.0,      19.65,    21.46,    18.57,    17.31,    21.25
      179.0,      19.59,    21.40,    18.52,    17.26,    21.19
      180.0,      19.53,    21.34,    18.46,    17.20,    21.13
      181.0,      19.47,    21.27,    18.41,    17.15,    21.07
      182.0,      19.42,    21.21,    18.35,    17.10,    21.00
      183.0,      19.36,    21.15,    18.30,    17.05,    20.94
      184.0,      19.30,    21.09,    18.24,    17.00,    20.88
      185.0,      19.25,    21.03,    18.19,    16.95,    20.82
      186.0,      19.19,    20.97,    18.13,    16.90,    20.76
      187.0,      19.13,    20.91,    18.08,    16.85,    20.70
      188.0,      19.08,    20.85,    18.03,    16.80,    20.64
      189.0,      19.02,    20.79,    17.97,    16.75,    20.58
      190.0,      18.97,    20.73,    17.92,    16.70,    20.52
      191.0,      18.91,    20.67,    17.87,    16.65,    20.46
      192.0,      18.86,    20.61,    17.82,    16.60,    20.41
      193.0,      18.80,    20.55,    17.76,    16.55,    20.35
      194.0,      18.75,    20.49,    17.71,    16.50,    20.29
      195.0,      18.69,    20.43,    17.66,    16.45,    20.23
      196.0,      18.64,    20.37,    17.61,    16.40,    20.17
      197.0,      18.59,    20.31,    17.56,    16.36,    20.11
      198.0,      18.53,    20.25,    17.51,    16.31,    20.06
      199.0,      18.48,    20.20,    17.46,    16.26,    20.00
      200.0,      18.43,    20.14,    17.41,    16.21,    19.94
      201.0,      18.37,    20.08,    17.36,    16.17,    19.88
      202.0,      18.32,    20.02,    17.31,    16.12,    19.83
      203.0,      18.27,    19.97,    17.26,    16.07,    19.77
      204.0,      18.22,    19.91,    17.21,    16.03,    19.71
      205.0,      18.16,    19.85,    17.17,    15.98,    19.66
      206.0,      18.11,    19.79,    17.12,    15.93,    19.60
      207.0,      18.06,    19.74,    17.07,    15.89,    19.54
      208.0,      18.01,    19.68,    17.02,    15.84,    19.49
      209.0,      17.96,    19.63,    16.97,    15.80,    19.43
      210.0,      17.91,    19.57,    16.93,    15.75,    19.38
      211.0,      17.86,    19.51,    16.88,    15.70,    19.32
      212.0,      17.80,    19.46,    16.83,    15.66,    19.27
      213.0,      17.75,    19.40,    16.79,    15.61,    19.21
      214.0,      17.70,    19.35,    16.74,    15.57,    19.16
      215.0,      17.65,    19.29,    16.70,    15.53,    19.10
      216.0,      17.60,    19.24,    16.65,    15.48,    19.05
      217.0,      17.55,    19.18,    16.61,    15.44,    18.99
      218.0,      17.50,    19.13,    16.56,    15.39,    18.94
      219.0,      17.46,    19.07,    16.52,    15.35,    18.88
      220.0,      17.41,    19.02,    16.47,    15.31,    18.83
      221.0,      17.36,    18.96,    16.43,    15.26,    18.78
      222.0,      17.31,    18.91,    16.38,    15.22,    18.72
      223.0,      17.26,    18.85,    16.34,    15.18,    18.67
      224.0,      17.21,    18.80,    16.29,    15.13,    18.62
      225.0,      17.16,    18.75,    16.25,    15.09,    18.56
      226.0,      17.11,    18.69,    16.21,    15.05,    18.51
      227.0,      17.07,    18.64,    16.16,    15.01,    18.46
      228.0,      17.02,    18.59,    16.12,    14.96,    18.41
      229.0,      16.97,    18.53,    16.08,    14.92,    18.35
      230.0,      16.92,    18.48,    16.04,    14.88,    18.30
      231.0,      16.88,    18.43,    15.99,    14.84,    18.25
      232.0,      16.83,    18.38,    15.95,    14.80,    18.20
      233.0,      16.78,    18.32,    15.91,    14.75,    18.14
      234.0,      16.74,    18.27,    15.87,    14.71,    18.09
      235.0,      16.69,    18.22,    15.82,    14.67,    18.04
      236.0,      16.64,    18.17,    15.78,    14.63,    17.99
      237.0,      16.60,    18.12,    15.74,    14.59,    17.94
      238.0,      16.55,    18.06,    15.70,    14.55,    17.89
      239.0,      16.50,    18.01,    15.66,    14.51,    17.84
      240.0,      16.46,    17.96,    15.62,    14.47,    17.79
      241.0,      16.41,    17.91,    15.58,    14.43,    17.73
      242.0,      16.37,    17.86,    15.54,    14.39,    17.68
      243.0,      16.32,    17.81,    15.50,    14.35,    17.63
      244.0,      16.28,    17.76,    15.46,    14.31,    17.58
      245.0,      16.23,    17.71,    15.42,    14.27,    17.53
      246.0,      16.19,    17.66,    15.38,    14.23,    17.48
      247.0,      16.14,    17.61,    15.34,    14.19,    17.43
      248.0,      16.10,    17.56,    15.30,    14.15,    17.38
      249.0,      16.05,    17.51,    15.26,    14.12,    17.33
      250.0,      16.01,    17.46,    15.22,    14.08,    17.29
      251.0,      15.97,    17.41,    15.18,    14.04,    17.24
      252.0,      15.92,    17.36,    15.14,    14.00,    17.19
      253.0,      15.88,    17.31,    15.10,    13.96,    17.14
      254.0,      15.83,    17.26,    15.07,    13.92,    17.09
      255.0,      15.79,    17.21,    15.03,    13.89,    17.04
      256.0,      15.75,    17.16,    14.99,    13.85,    16.99
      257.0,      15.70,    17.11,    14.95,    13.81,    16.94
      258.0,      15.66,    17.06,    14.91,    13.77,    16.90
      259.0,      15.62,    17.01,    14.88,    13.74,    16.85
      260.0,      15.58,    16.97,    14.84,    13.70,    16.80
      261.0,      15.53,    16.92,    14.80,    13.66,    16.75
      262.0,      15.49,    16.87,    14.76,    13.63,    16.70
      263.0,      15.45,    16.82,    14.73,    13.59,    16.66
      264.0,      15.41,    16.77,    14.69,    13.55,    16.61
      265.0,      15.36,    16.73,    14.65,    13.52,    16.56
      266.0,      15.32,    16.68,    14.62,    13.48,    16.52
      267.0,      15.28,    16.63,    14.58,    13.44,    16.47
      268.0,      15.24,    16.58,    14.54,    13.41,    16.42
      269.0,      15.20,    16.54,    14.51,    13.37,    16.37
      270.0,      15.16,    16.49,    14.47,    13.34,    16.33
      271.0,      15.12,    16.44,    14.43,    13.30,    16.28
      272.0,      15.07,    16.40,    14.40,    13.27,    16.24
      273.0,      15.03,    16.35,    14.36,    13.23,    16.19
      274.0,      14.99,    16.30,    14.33,    13.20,    16.14
      275.0,      14.95,    16.26,    14.29,    13.16,    16.10
      276.0,      14.91,    16.21,    14.26,    13.13,    16.05
      277.0,      14.87,    16.16,    14.22,    13.09,    16.01
      278.0,      14.83,    16.12,    14.19,    13.06,    15.96
      279.0,      14.79,    16.07,    14.15,    13.02,    15.92
      280.0,      14.75,    16.03,    14.12,    12.99,    15.87
      281.0,      14.71,    15.98,    14.08,    12.95,    15.82
      282.0,      14.67,    15.94,    14.05,    12.92,    15.78
      283.0,      14.63,    15.89,    14.01,    12.88,    15.74
      284.0,      14.59,    15.85,    13.98,    12.85,    15.69
      285.0,      14.55,    15.80,    13.94,    12.82,    15.65
      286.0,      14.51,    15.76,    13.91,    12.78,    15.60
      287.0,      14.47,    15.71,    13.87,    12.75,    15.56
      288.0,      14.43,    15.67,    13.84,    12.72,    15.51
      289.0,      14.39,    15.62,    13.81,    12.68,    15.47
      290.0,      14.36,    15.58,    13.77,    12.65,    15.42
      291.0,      14.32,    15.53,    13.74,    12.62,    15.38
      292.0,      14.28,    15.49,    13.71,    12.58,    15.34
      293.0,      14.24,    15.44,    13.67,    12.55,    15.29
      294.0,      14.20,    15.40,    13.64,    12.52,    15.25
      295.0,      14.16,    15.36,    13.61,    12.49,    15.21
      296.0,      14.13,    15.31,    13.57,    12.45,    15.16
      297.0,      14.09,    15.27,    13.54,    12.42,    15.12
      298.0,      14.05,    15.23,    13.51,    12.39,    15.08
      299.0,      14.01,    15.18,    13.47,    12.36,    15.03
      300.0,      13.97,    15.14,    13.44,    12.33,    14.99
      301.0,      13.94,    15.10,    13.41,    12.29,    14.95
      302.0,      13.90,    15.05,    13.38,    12.26,    14.91
      303.0,      13.86,    15.01,    13.34,    12.23,    14.86
      304.0,      13.83,    14.97,    13.31,    12.20,    14.82
      305.0,      13.79,    14.93,    13.28,    12.17,    14.78
      306.0,      13.75,    14.88,    13.25,    12.14,    14.74
      307.0,      13.71,    14.84,    13.21,    12.11,    14.70
      308.0,      13.68,    14.80,    13.18,    12.07,    14.65
      309.0,      13.64,    14.76,    13.15,    12.04,    14.61
      310.0,      13.60,    14.71,    13.12,    12.01,    14.57
