Radius (km), Mean (m/s), NE (m/s), SE (m/s), SW (m/s), NW (m/s)
        0.0,       0.00,     0.00,     0.00,     0.00,     0.00
        1.0,       1.89,     1.65,     1.97,     2.27,     1.65
        2.0,       3.51,     3.28,     3.62,     3.84,     3.28
        3.0,       5.05,     4.90,     5.18,     5.23,     4.90
        4.0,       6.55,     6.51,     6.67,     6.51,     6.51
        5.0,       8.02,     8.12,     8.12,     7.71,     8.12
        6.0,       9.46,     9.73,     9.53,     8.85,     9.73
        7.0,      10.88,    11.33,    10.91,     9.95,    11.33
        8.0,      12.29,    12.93,    12.28,    11.02,    12.93
        9.0,      13.68,    14.53,    13.62,    12.05,    14.53
       10.0,      15.06,    16.12,    14.94,    13.05,    16.12
       11.0,      16.43,    17.72,    16.25,    14.03,    17.72
       12.0,      17.80,    19.32,    17.55,    15.00,    19.33
       13.0,      19.21,    20.98,    18.90,    15.97,    21.01
       14.0,      20.73,    22.76,    20.35,    16.98,    22.84
       15.0,      22.41,    24.73,    21.94,    18.07,    24.89
       16.0,      24.28,    26.94,    23.72,    19.27,    27.20
       17.0,      26.35,    29.39,    25.68,    20.57,    29.76
       18.0,      28.55,    32.02,    27.75,    21.94,    32.50
       19.0,      30.80,    34.73,    29.85,    23.35,    35.29
       20.0,      32.98,    37.36,    31.86,    24.71,    37.99
       21.0,      34.96,    39.78,    33.69,    25.95,    40.44
       22.0,      36.64,    41.84,    35.21,    27.01,    42.48
       23.0,      37.91,    43.44,    36.36,    27.84,    44.02
       24.0,      38.75,    44.51,    37.11,    28.40,    45.00
       25.0,      39.15,    45.05,    37.44,    28.69,    45.42
       26.0,      39.16,    45.11,    37.42,    28.75,    45.35
       27.0,      38.84,    44.78,    37.11,    28.60,    44.88
       28.0,      38.29,    44.15,    36.59,    28.30,    44.12
       29.0,      37.61,    43.36,    35.96,    27.92,    43.21
       30.0,      36.87,    42.49,    35.28,    27.50,    42.22
       31.0,      36.14,    41.62,    34.60,    27.08,    41.25
       32.0,      35.44,    40.79,    33.96,    26.67,    40.33
       33.0,      34.78,    40.01,    33.36,    26.29,    39.46
       34.0,      34.16,    39.27,    32.79,    25.93,    38.63
       35.0,      33.56,    38.57,    32.24,    25.59,    37.84
       36.0,      32.98,    37.89,    31.71,    25.26,    37.08
       37.0,      32.43,    37.24,    31.20,    24.94,    36.35
       38.0,      31.90,    36.61,    30.71,    24.63,    35.64
       39.0,      31.38,    36.00,    30.23,    24.33,    34.96
       40.0,      30.89,    35.42,    29.78,    24.05,    34.31
       41.0,      30.41,    34.86,    29.34,    23.77,    33.68
       42.0,      29.95,    34.32,    28.92,    23.50,    33.08
       43.0,      29.51,    33.79,    28.51,    23.24,    32.50
       44.0,      29.08,    33.29,    28.12,    22.99,    31.94
       45.0,      28.67,    32.80,    27.74,    22.75,    31.40
       46.0,      28.28,    32.34,    27.38,    22.52,    30.88
       47.0,      27.90,    31.89,    27.03,    22.30,    30.38
       48.0,      27.53,    31.45,    26.69,    22.08,    29.90
       49.0,      27.17,    31.03,    26.36,    21.87,    29.43
       50.0,      26.83,    30.63,    26.05,    21.67,    28.99
       51.0,      26.50,    30.24,    25.74,    21.47,    28.56
       52.0,      26.19,    29.86,    25.45,    21.28,    28.14
       53.0,      25.88,    29.50,    25.17,    21.10,    27.74
       54.0,      25.58,    29.15,    24.90,    20.92,    27.36
       55.0,      25.30,    28.81,    24.64,    20.75,    26.99
       56.0,      25.02,    28.49,    24.38,    20.59,    26.63
       57.0,      24.76,    28.17,    24.14,    20.43,    26.29
       58.0,      24.50,    27.87,    23.90,    20.27,    25.96
       59.0,      24.25,    27.57,    23.67,    20.12,    25.64
       60.0,      24.01,    27.29,    23.45,    19.97,    25.33
       61.0,      23.78,    27.02,    23.24,    19.83,    25.04
       62.0,      23.56,    26.75,    23.04,    19.70,    24.75
       63.0,      23.34,    26.50,    22.84,    19.56,    24.48
       64.0,      23.14,    26.25,    22.65,    19.43,    24.21
       65.0,      22.93,    26.01,    22.46,    19.31,    23.95
       66.0,      22.74,    25.78,    22.28,    19.19,    23.71
       67.0,      22.55,    25.56,    22.11,    19.07,    23.47
       68.0,      22.37,    25.34,    21.94,    18.96,    23.24
       69.0,      22.19,    25.13,    21.78,    18.85,    23.02
       70.0,      22.02,    24.93,    21.63,    18.74,    22.80
       71.0,      21.86,    24.73,    21.48,    18.63,    22.60
       72.0,      21.70,    24.54,    21.33,    18.53,    22.40
       73.0,      21.55,    24.36,    21.19,    18.43,    22.20
       74.0,      21.40,    24.18,    21.05,    18.34,    22.02
       75.0,      21.25,    24.01,    20.92,    18.24,    21.84
       76.0,      21.11,    23.84,    20.79,    18.15,    21.66
       77.0,      20.98,    23.68,    20.66,    18.06,    21.49
       78.0,      20.84,    23.53,    20.54,    17.98,    21.33
       79.0,      20.72,    23.37,    20.43,    17.89,    21.17
       80.0,      20.59,    23.23,    20.31,    17.81,    21.02
       81.0,      20.47,    23.08,    20.20,    17.73,    20.88
       82.0,      20.36,    22.94,    20.10,    17.65,    20.73
       83.0,      20.24,    22.81,    19.99,    17.58,    20.60
       84.0,      20.13,    22.68,    19.89,    17.50,    20.46
       85.0,      20.03,    22.55,    19.79,    17.43,    20.33
       86.0,      19.92,    22.43,    19.70,    17.36,    20.21
       87.0,      19.82,    22.30,    19.61,    17.29,    20.09
       88.0,      19.73,    22.19,    19.52,    17.23,    19.97
       89.0,      19.63,    22.07,    19.43,    17.16,    19.86
       90.0,      19.54,    21.96,    19.34,    17.10,    19.75
       91.0,      19.45,    21.86,    19.26,    17.03,    19.64
       92.0,      19.36,    21.75,    19.18,    16.97,    19.54
       93.0,      19.28,    21.65,    19.10,    16.91,    19.44
       94.0,      19.19,    21.55,    19.03,    16.85,    19.34
       95.0,      19.11,    21.45,    18.95,    16.79,    19.25
       96.0,      19.03,    21.36,    18.88,    16.74,    19.16
       97.0,      18.96,    21.26,    18.81,    16.68,    19.07
       98.0,      18.88,    21.17,    18.74,    16.63,    18.98
       99.0,      18.81,    21.09,    18.68,    16.57,    18.90
      100.0,      18.74,    21.00,    18.61,    16.52,    18.82
      101.0,      18.67,    20.92,    18.55,    16.47,    18.74
      102.0,      18.60,    20.83,    18.48,    16.42,    18.66
      103.0,      18.53,    20.75,    18.42,    16.37,    18.58
      104.0,      18.47,    20.67,    18.36,    16.32,    18.51
      105.0,      18.40,    20.60,    18.31,    16.27,    18.44
      106.0,      18.34,    20.52,    18.25,    16.23,    18.37
      107.0,      18.28,    20.45,    18.19,    16.18,    18.30
      108.0,      18.22,    20.38,    18.14,    16.13,    18.24
      109.0,      18.16,    20.31,    18.08,    16.09,    18.17
      110.0,      18.11,    20.24,    18.03,    16.04,    18.11
      111.0,      18.05,    20.17,    17.98,    16.00,    18.05
      112.0,      18.00,    20.10,    17.93,    15.96,    17.99
      113.0,      17.94,    20.04,    17.88,    15.92,    17.93
      114.0,      17.89,    19.98,    17.83,    15.87,    17.88
      115.0,      17.84,    19.91,    17.79,    15.83,    17.82
      116.0,      17.79,    19.85,    17.74,    15.79,    17.77
      117.0,      17.74,    19.79,    17.69,    15.75,    17.71
      118.0,      17.69,    19.73,    17.65,    15.71,    17.66
      119.0,      17.64,    19.67,    17.61,    15.67,    17.61
      120.0,      17.59,    19.61,    17.56,    15.63,    17.56
      121.0,      17.55,    19.56,    17.52,    15.60,    17.51
      122.0,      17.50,    19.50,    17.48,    15.56,    17.47
      123.0,      17.46,    19.45,    17.44,    15.52,    17.42
      124.0,      17.41,    19.39,    17.40,    15.48,    17.37
      125.0,      17.37,    19.34,    17.36,    15.45,    17.33
      126.0,      17.33,    19.29,    17.32,    15.41,    17.28
      127.0,      17.28,    19.24,    17.28,    15.38,    17.24
      128.0,      17.24,    19.19,    17.24,    15.34,    17.20
      129.0,      17.20,    19.14,    17.20,    15.31,    17.16
      130.0,      17.16,    19.09,    17.16,    15.27,    17.12
      131.0,      17.12,    19.04,    17.13,    15.24,    17.08
      132.0,      17.08,    18.99,    17.09,    15.20,    17.04
      133.0,      17.04,    18.94,    17.06,    15.17,    17.00
      134.0,      17.00,    18.89,    17.02,    15.13,    16.96
      135.0,      16.96,    18.85,    16.99,    15.10,    16.92
      136.0,      16.93,    18.80,    16.95,    15.07,    16.89
      137.0,      16.89,    18.76,    16.92,    15.04,    16.85
      138.0,      16.85,    18.71,    16.88,    15.00,    16.81
      139.0,      16.82,    18.67,    16.85,    14.97,    16.78
      140.0,      16.78,    18.62,    16.82,    14.94,    16.74
      141.0,      16.74,    18.58,    16.79,    14.91,    16.71
      142.0,      16.71,    18.54,    16.75,    14.88,    16.67
      143.0,      16.67,    18.49,    16.72,    14.84,    16.64
      144.0,      16.64,    18.45,    16.69,    14.81,    16.61
      145.0,      16.61,    18.41,    16.66,    14.78,    16.58
      146.0,      16.57,    18.37,    16.63,    14.75,    16.54
      147.0,      16.54,    18.33,    16.60,    14.72,    16.51
      148.0,      16.51,    18.28,    16.57,    14.69,    16.48
      149.0,      16.47,    18.24,    16.54,    14.66,    16.45
      150.0,      16.44,    18.20,    16.51,    14.63,    16.42
      151.0,      16.41,    18.16,    16.48,    14.60,    16.39
      152.0,      16.38,    18.13,    16.45,    14.57,    16.36
      153.0,      16.34,    18.09,    16.42,    14.54,    16.33
      154.0,      16.31,    18.05,    16.39,    14.51,    16.30
      155.0,      16.28,    18.01,    16.36,    14.48,    16.27
      156.0,      16.25,    17.97,    16.33,    14.46,    16.24
      157.0,      16.22,    17.93,    16.30,    14.43,    16.21
      158.0,      16.19,    17.89,    16.27,    14.40,    16.18
      159.0,      16.16,    17.86,    16.25,    14.37,    16.15
      160.0,      16.13,    17.82,    16.22,    14.34,    16.13
      161.0,      16.10,    17.78,    16.19,    14.31,    16.10
      162.0,      16.07,    17.75,    16.16,    14.28,    16.07
      163.0,      16.04,    17.71,    16.13,    14.26,    16.04
      164.0,      16.01,    17.67,    16.11,    14.23,    16.02
      165.0,      15.98,    17.64,    16.08,    14.20,    15.99
      166.0,      15.95,    17.60,    16.05,    14.17,    15.96
      167.0,      15.92,    17.56,    16.03,    14.15,    15.94
      168.0,      15.89,    17.53,    16.00,    14.12,    15.91
      169.0,      15.86,    17.49,    15.97,    14.09,    15.88
      170.0,      15.83,    17.46,    15.95,    14.06,    15.86
      171.0,      15.80,    17.42,    15.92,    14.04,    15.83
      172.0,      15.77,    17.39,    15.89,    14.01,    15.81
      173.0,      15.75,    17.35,    15.87,    13.98,    15.78
      174.0,      15.72,    17.32,    15.84,    13.96,    15.76
      175.0,      15.69,    17.28,    15.82,    13.93,    15.73
      176.0,      15.66,    17.25,    15.79,    13.90,    15.71
      177.0,      15.63,    17.22,    15.77,    13.88,    15.68
      178.0,      15.61,    17.18,    15.74,    13.85,    15.66
      179.0,      15.58,    17.15,    15.71,    13.82,    15.63
      180.0,      15.55,    17.11,    15.69,    13.80,    15.61
      181.0,      15.53,    17.08,    15.66,    13.77,    15.58
      182.0,      15.50,    17.05,    15.64,    13.74,    15.56
      183.0,      15.47,    17.01,    15.61,    13.72,    15.54
      184.0,      15.44,    16.98,    15.59,    13.69,    15.51
      185.0,      15.42,    16.95,    15.56,    13.67,    15.49
      186.0,      15.39,    16.92,    15.54,    13.64,    15.46
      187.0,      15.36,    16.88,    15.52,    13.61,    15.44
      188.0,      15.34,    16.85,    15.49,    13.59,    15.42
      189.0,      15.31,    16.82,    15.47,    13.56,    15.39
      190.0,      15.28,    16.78,    15.44,    13.54,    15.37
      191.0,      15.26,    16.75,    15.42,    13.51,    15.35
      192.0,      15.23,    16.72,    15.39,    13.49,    15.32
      193.0,      15.21,    16.69,    15.37,    13.46,    15.30
      194.0,      15.18,    16.66,    15.35,    13.44,    15.28
      195.0,      15.15,    16.62,    15.32,    13.41,    15.26
      196.0,      15.13,    16.59,    15.30,    13.39,    15.23
      197.0,      15.10,    16.56,    15.27,    13.36,    15.21
      198.0,      15.08,    16.53,    15.25,    13.34,    15.19
      199.0,      15.05,    16.50,    15.23,    13.31,    15.16
      200.0,      15.02,    16.47,    15.20,    13.29,    15.14
      201.0,      15.00,    16.44,    15.18,    13.26,    15.12
      202.0,      14.97,    16.40,    15.15,    13.24,    15.10
      203.0,      14.95,    16.37,    15.13,    13.21,    15.07
      204.0,      14.92,    16.34,    15.11,    13.19,    15.05
      205.0,      14.90,    16.31,    15.08,    13.16,    15.03
      206.0,      14.87,    16.28,    15.06,    13.14,    15.01
      207.0,      14.85,    16.25,    15.04,    13.11,    14.99
      208.0,      14.82,    16.22,    15.01,    13.09,    14.96
      209.0,      14.80,    16.19,    14.99,    13.07,    14.94
      210.0,      14.77,    16.16,    14.97,    13.04,    14.92
      211.0,      14.75,    16.13,    14.95,    13.02,    14.90
      212.0,      14.72,    16.10,    14.92,    12.99,    14.88
      213.0,      14.70,    16.07,    14.90,    12.97,    14.85
      214.0,      14.67,    16.04,    14.88,    12.94,    14.83
      215.0,      14.65,    16.01,    14.85,    12.92,    14.81
      216.0,      14.62,    15.98,    14.83,    12.90,    14.79
      217.0,      14.60,    15.95,    14.81,    12.87,    14.77
      218.0,      14.57,    15.92,    14.79,    12.85,    14.75
      219.0,      14.55,    15.89,    14.76,    12.83,    14.73
      220.0,      14.53,    15.86,    14.74,    12.80,    14.70
      221.0,      14.50,    15.83,    14.72,    12.78,    14.68
      222.0,      14.48,    15.80,    14.70,    12.75,    14.66
      223.0,      14.45,    15.77,    14.67,    12.73,    14.64
      224.0,      14.43,    15.74,    14.65,    12.71,    14.62
      225.0,      14.40,    15.71,    14.63,    12.68,    14.60
      226.0,      14.38,    15.68,    14.61,    12.66,    14.58
      227.0,      14.36,    15.65,    14.58,    12.64,    14.56
      228.0,      14.33,    15.62,    14.56,    12.61,    14.53
      229.0,      14.31,    15.59,    14.54,    12.59,    14.51
      230.0,      14.28,    15.56,    14.52,    12.57,    14.49
      231.0,      14.26,    15.53,    14.49,    12.54,    14.47
      232.0,      14.24,    15.50,    14.47,    12.52,    14.45
      233.0,      14.21,    15.47,    14.45,    12.50,    14.43
      234.0,      14.19,    15.45,    14.43,    12.47,    14.41
      235.0,      14.17,    15.42,    14.41,    12.45,    14.39
      236.0,      14.14,    15.39,    14.38,    12.43,    14.37
      237.0,      14.12,    15.36,    14.36,    12.41,    14.35
      238.0,      14.10,    15.33,    14.34,    12.38,    14.33
      239.0,      14.07,    15.30,    14.32,    12.36,    14.31
      240.0,      14.05,    15.27,    14.30,    12.34,    14.29
      241.0,      14.03,    15.25,    14.28,    12.31,    14.27
      242.0,      14.00,    15.22,    14.25,    12.29,    14.24
      243.0,      13.98,    15.19,    14.23,    12.27,    14.22
      244.0,      13.96,    15.16,    14.21,    12.25,    14.20
      245.0,      13.93,    15.13,    14.19,    12.22,    14.18
      246.0,      13.91,    15.10,    14.17,    12.20,    14.16
      247.0,      13.89,    15.08,    14.15,    12.18,    14.14
      248.0,      13.86,    15.05,    14.12,    12.16,    14.12
      249.0,      13.84,    15.02,    14.10,    12.13,    14.10
      250.0,      13.82,    14.99,    14.08,    12.11,    14.08
      251.0,      13.79,    14.96,    14.06,    12.09,    14.06
      252.0,      13.77,    14.94,    14.04,    12.07,    14.04
      253.0,      13.75,    14.91,    14.02,    12.04,    14.02
      254.0,      13.73,    14.88,    14.00,    12.02,    14.00
      255.0,      13.70,    14.85,    13.98,    12.00,    13.98
      256.0,      13.68,    14.83,    13.95,    11.98,    13.96
      257.0,      13.66,    14.80,    13.93,    11.96,    13.94
      258.0,      13.63,    14.77,    13.91,    11.93,    13.92
      259.0,      13.61,    14.74,    13.89,    11.91,    13.90
      260.0,      13.59,    14.72,    13.87,    11.89,    13.88
      261.0,      13.57,    14.69,    13.85,    11.87,    13.86
      262.0,      13.54,    14.66,    13.83,    11.85,    13.84
      263.0,      13.52,    14.63,    13.81,    11.82,    13.82
      264.0,      13.50,    14.61,    13.79,    11.80,    13.80
      265.0,      13.48,    14.58,    13.76,    11.78,    13.78
      266.0,      13.46,    14.55,    13.74,    11.76,    13.76
      267.0,      13.43,    14.53,    13.72,    11.74,    13.74
      268.0,      13.41,    14.50,    13.70,    11.72,    13.73
      269.0,      13.39,    14.47,    13.68,    11.69,    13.71
      270.0,      13.37,    14.44,    13.66,    11.67,    13.69
      271.0,      13.34,    14.42,    13.64,    11.65,    13.67
      272.0,      13.32,    14.39,    13.62,    11.63,    13.65
      273.0,      13.30,    14.36,    13.60,    11.61,    13.63
      274.0,      13.28,    14.34,    13.58,    11.59,    13.61
      275.0,      13.26,    14.31,    13.56,    11.57,    13.59
      276.0,      13.23,    14.28,    13.54,    11.55,    13.57
      277.0,      13.21,    14.26,    13.52,    11.52,    13.55
      278.0,      13.19,    14.23,    13.50,    11.50,    13.53
      279.0,      13.17,    14.21,    13.48,    11.48,    13.51
      280.0,      13.15,    14.18,    13.46,    11.46,    13.49
      281.0,      13.13,    14.15,    13.44,    11.44,    13.47
      282.0,      13.10,    14.13,    13.41,    11.42,    13.45
      283.0,      13.08,    14.10,    13.39,    11.40,    13.44
      284.0,      13.06,    14.07,    13.37,    11.38,    13.42
      285.0,      13.04,    14.05,    13.35,    11.36,    13.40
      286.0,      13.02,    14.02,    13.33,    11.33,    13.38
      287.0,      13.00,    14.00,    13.31,    11.31,    13.36
      288.0,      12.97,    13.97,    13.29,    11.29,    13.34
      289.0,      12.95,    13.94,    13.27,    11.27,    13.32
      290.0,      12.93,    13.92,    13.25,    11.25,    13.30
      291.0,      12.91,    13.89,    13.23,    11.23,    13.28
      292.0,      12.89,    13.87,    13.21,    11.21,    13.26
      293.0,      12.87,    13.84,    13.19,    11.19,    13.25
      294.0,      12.85,    13.82,    13.17,    11.17,    13.23
      295.0,      12.82,    13.79,    13.15,    11.15,    13.21
      296.0,      12.80,    13.76,    13.13,    11.13,    13.19
      297.0,      12.78,    13.74,    13.11,    11.11,    13.17
      298.0,      12.76,    13.71,    13.09,    11.09,    13.15
      299.0,      12.74,    13.69,    13.07,    11.07,    13.13
      300.0,      12.72,    13.66,    13.05,    11.05,    13.11
      301.0,      12.70,    13.64,    13.03,    11.03,    13.10
      302.0,      12.68,    13.61,    13.01,    11.01,    13.08
      303.0,      12.66,    13.59,    13.00,    10.99,    13.06
      304.0,      12.64,    13.56,    12.98,    10.97,    13.04
      305.0,      12.61,    13.54,    12.96,    10.95,    13.02
      306.0,      12.59,    13.51,    12.94,    10.93,    13.00
      307.0,      12.57,    13.49,    12.92,    10.91,    12.98
      308.0,      12.55,    13.46,    12.90,    10.88,    12.97
      309.0,      12.53,    13.44,    12.88,    10.86,    12.95
      310.0,      12.51,    13.41,    12.86,    10.84,    12.93
