Radius (km), Mean (m/s), NE (m/s), SE (m/s), SW (m/s), NW (m/s)
        0.0,       0.00,     0.00,     0.00,     0.00,     0.00
        1.0,       2.18,     2.16,     2.19,     2.22,     2.16
        2.0,       3.87,     3.85,     3.88,     3.90,     3.85
        3.0,       5.41,     5.41,     5.42,     5.43,     5.41
        4.0,       6.87,     6.88,     6.87,     6.86,     6.88
        5.0,       8.26,     8.29,     8.26,     8.22,     8.29
        6.0,       9.61,     9.65,     9.60,     9.53,     9.65
        7.0,      10.92,    10.98,    10.90,    10.80,    10.98
        8.0,      12.19,    12.27,    12.17,    12.04,    12.27
        9.0,      13.44,    13.54,    13.42,    13.25,    13.54
       10.0,      14.66,    14.79,    14.64,    14.44,    14.79
       11.0,      15.87,    16.02,    15.83,    15.60,    16.02
       12.0,      17.06,    17.24,    17.02,    16.75,    17.25
       13.0,      18.28,    18.49,    18.19,    17.91,    18.51
       14.0,      19.54,    19.80,    19.39,    19.11,    19.85
       15.0,      20.89,    21.21,    20.66,    20.39,    21.29
       16.0,      22.33,    22.72,    22.01,    21.77,    22.85
       17.0,      23.88,    24.33,    23.46,    23.23,    24.50
       18.0,      25.50,    26.00,    25.00,    24.77,    26.22
       19.0,      27.13,    27.67,    26.58,    26.32,    27.93
       20.0,      28.71,    29.28,    28.15,    27.83,    29.56
       21.0,      30.16,    30.75,    29.63,    29.23,    31.04
       22.0,      31.44,    32.03,    30.96,    30.45,    32.31
       23.0,      32.48,    33.07,    32.08,    31.46,    33.32
       24.0,      33.27,    33.84,    32.95,    32.22,    34.05
       25.0,      33.79,    34.36,    33.55,    32.73,    34.52
       26.0,      34.08,    34.65,    33.91,    33.02,    34.76
       27.0,      34.18,    34.76,    34.04,    33.13,    34.81
       28.0,      34.14,    34.74,    34.00,    33.09,    34.73
       29.0,      34.01,    34.64,    33.85,    32.98,    34.57
       30.0,      33.83,    34.50,    33.64,    32.81,    34.38
       31.0,      33.65,    34.35,    33.40,    32.64,    34.19
       32.0,      33.47,    34.22,    33.17,    32.47,    34.00
       33.0,      33.30,    34.08,    32.96,    32.32,    33.82
       34.0,      33.13,    33.96,    32.76,    32.17,    33.64
       35.0,      32.97,    33.83,    32.57,    32.02,    33.47
       36.0,      32.82,    33.71,    32.39,    31.87,    33.30
       37.0,      32.66,    33.58,    32.20,    31.73,    33.13
       38.0,      32.51,    33.46,    32.02,    31.58,    32.96
       39.0,      32.35,    33.34,    31.84,    31.44,    32.80
       40.0,      32.20,    33.21,    31.67,    31.29,    32.63
       41.0,      32.05,    33.09,    31.50,    31.15,    32.47
       42.0,      31.90,    32.97,    31.33,    31.01,    32.30
       43.0,      31.75,    32.85,    31.16,    30.87,    32.14
       44.0,      31.61,    32.73,    31.00,    30.73,    31.98
       45.0,      31.46,    32.61,    30.83,    30.59,    31.82
       46.0,      31.32,    32.49,    30.67,    30.45,    31.66
       47.0,      31.18,    32.38,    30.52,    30.31,    31.51
       48.0,      31.04,    32.26,    30.36,    30.18,    31.35
       49.0,      30.90,    32.14,    30.21,    30.04,    31.20
       50.0,      30.76,    32.02,    30.06,    29.91,    31.04
       51.0,      30.62,    31.91,    29.91,    29.77,    30.89
       52.0,      30.48,    31.79,    29.76,    29.64,    30.74
       53.0,      30.35,    31.68,    29.62,    29.51,    30.59
       54.0,      30.22,    31.56,    29.48,    29.38,    30.45
       55.0,      30.08,    31.45,    29.33,    29.25,    30.30
       56.0,      29.95,    31.34,    29.19,    29.12,    30.15
       57.0,      29.82,    31.22,    29.06,    28.99,    30.01
       58.0,      29.69,    31.11,    28.92,    28.86,    29.87
       59.0,      29.56,    31.00,    28.79,    28.73,    29.73
       60.0,      29.43,    30.89,    28.65,    28.61,    29.59
       61.0,      29.31,    30.78,    28.52,    28.48,    29.45
       62.0,      29.18,    30.67,    28.39,    28.35,    29.31
       63.0,      29.06,    30.56,    28.27,    28.23,    29.17
       64.0,      28.93,    30.45,    28.14,    28.11,    29.03
       65.0,      28.81,    30.34,    28.01,    27.99,    28.90
       66.0,      28.69,    30.24,    27.89,    27.86,    28.76
       67.0,      28.57,    30.13,    27.77,    27.74,    28.63
       68.0,      28.45,    30.02,    27.65,    27.62,    28.50
       69.0,      28.33,    29.92,    27.53,    27.50,    28.37
       70.0,      28.21,    29.81,    27.41,    27.38,    28.24
       71.0,      28.09,    29.71,    27.29,    27.27,    28.11
       72.0,      27.98,    29.60,    27.17,    27.15,    27.98
       73.0,      27.86,    29.50,    27.06,    27.03,    27.86
       74.0,      27.75,    29.39,    26.94,    26.92,    27.73
       75.0,      27.63,    29.29,    26.83,    26.80,    27.61
       76.0,      27.52,    29.19,    26.72,    26.69,    27.48
       77.0,      27.41,    29.09,    26.61,    26.57,    27.36
       78.0,      27.30,    28.98,    26.50,    26.46,    27.24
       79.0,      27.18,    28.88,    26.39,    26.35,    27.12
       80.0,      27.07,    28.78,    26.28,    26.24,    27.00
       81.0,      26.97,    28.68,    26.18,    26.13,    26.88
       82.0,      26.86,    28.58,    26.07,    26.02,    26.76
       83.0,      26.75,    28.48,    25.97,    25.91,    26.64
       84.0,      26.64,    28.38,    25.86,    25.80,    26.53
       85.0,      26.54,    28.29,    25.76,    25.69,    26.41
       86.0,      26.43,    28.19,    25.66,    25.58,    26.30
       87.0,      26.33,    28.09,    25.55,    25.47,    26.19
       88.0,      26.22,    27.99,    25.45,    25.37,    26.07
       89.0,      26.12,    27.90,    25.35,    25.26,    25.96
       90.0,      26.02,    27.80,    25.25,    25.16,    25.85
       91.0,      25.91,    27.71,    25.16,    25.05,    25.74
       92.0,      25.81,    27.61,    25.06,    24.95,    25.63
       93.0,      25.71,    27.52,    24.96,    24.85,    25.52
       94.0,      25.61,    27.42,    24.86,    24.74,    25.42
       95.0,      25.51,    27.33,    24.77,    24.64,    25.31
       96.0,      25.41,    27.24,    24.67,    24.54,    25.21
       97.0,      25.32,    27.14,    24.58,    24.44,    25.10
       98.0,      25.22,    27.05,    24.49,    24.34,    25.00
       99.0,      25.12,    26.96,    24.39,    24.24,    24.89
      100.0,      25.03,    26.87,    24.30,    24.14,    24.79
      101.0,      24.93,    26.78,    24.21,    24.05,    24.69
      102.0,      24.84,    26.69,    24.12,    23.95,    24.59
      103.0,      24.74,    26.60,    24.03,    23.85,    24.49
      104.0,      24.65,    26.51,    23.94,    23.75,    24.39
      105.0,      24.55,    26.42,    23.85,    23.66,    24.29
      106.0,      24.46,    26.33,    23.76,    23.56,    24.20
      107.0,      24.37,    26.24,    23.67,    23.47,    24.10
      108.0,      24.28,    26.15,    23.58,    23.38,    24.00
      109.0,      24.19,    26.07,    23.50,    23.28,    23.91
      110.0,      24.10,    25.98,    23.41,    23.19,    23.81
      111.0,      24.01,    25.89,    23.32,    23.10,    23.72
      112.0,      23.92,    25.81,    23.24,    23.01,    23.63
      113.0,      23.83,    25.72,    23.15,    22.91,    23.53
      114.0,      23.74,    25.63,    23.07,    22.82,    23.44
      115.0,      23.65,    25.55,    22.98,    22.73,    23.35
      116.0,      23.57,    25.46,    22.90,    22.64,    23.26
      117.0,      23.48,    25.38,    22.82,    22.55,    23.17
      118.0,      23.39,    25.30,    22.73,    22.47,    23.08
      119.0,      23.31,    25.21,    22.65,    22.38,    22.99
      120.0,      23.22,    25.13,    22.57,    22.29,    22.91
      121.0,      23.14,    25.05,    22.49,    22.20,    22.82
      122.0,      23.06,    24.97,    22.41,    22.12,    22.73
      123.0,      22.97,    24.88,    22.33,    22.03,    22.65
      124.0,      22.89,    24.80,    22.25,    21.95,    22.56
      125.0,      22.81,    24.72,    22.17,    21.86,    22.48
      126.0,      22.73,    24.64,    22.09,    21.78,    22.39
      127.0,      22.64,    24.56,    22.01,    21.69,    22.31
      128.0,      22.56,    24.48,    21.93,    21.61,    22.23
      129.0,      22.48,    24.40,    21.85,    21.53,    22.15
      130.0,      22.40,    24.32,    21.77,    21.45,    22.07
      131.0,      22.32,    24.24,    21.70,    21.36,    21.99
      132.0,      22.24,    24.16,    21.62,    21.28,    21.91
      133.0,      22.16,    24.09,    21.54,    21.20,    21.83
      134.0,      22.09,    24.01,    21.47,    21.12,    21.75
      135.0,      22.01,    23.93,    21.39,    21.04,    21.67
      136.0,      21.93,    23.85,    21.32,    20.96,    21.59
      137.0,      21.85,    23.78,    21.24,    20.88,    21.52
      138.0,      21.78,    23.70,    21.17,    20.80,    21.44
      139.0,      21.70,    23.62,    21.09,    20.73,    21.36
      140.0,      21.63,    23.55,    21.02,    20.65,    21.29
      141.0,      21.55,    23.47,    20.94,    20.57,    21.21
      142.0,      21.48,    23.40,    20.87,    20.49,    21.14
      143.0,      21.40,    23.32,    20.80,    20.42,    21.07
      144.0,      21.33,    23.25,    20.72,    20.34,    20.99
      145.0,      21.25,    23.18,    20.65,    20.27,    20.92
      146.0,      21.18,    23.10,    20.58,    20.19,    20.85
      147.0,      21.11,    23.03,    20.51,    20.12,    20.78
      148.0,      21.04,    22.96,    20.44,    20.04,    20.71
      149.0,      20.96,    22.88,    20.36,    19.97,    20.64
      150.0,      20.89,    22.81,    20.29,    19.90,    20.57
      151.0,      20.82,    22.74,    20.22,    19.82,    20.50
      152.0,      20.75,    22.67,    20.15,    19.75,    20.43
      153.0,      20.68,    22.60,    20.08,    19.68,    20.36
      154.0,      20.61,    22.53,    20.01,    19.61,    20.29
      155.0,      20.54,    22.46,    19.94,    19.54,    20.22
      156.0,      20.47,    22.39,    19.87,    19.47,    20.16
      157.0,      20.40,    22.32,    19.80,    19.40,    20.09
      158.0,      20.33,    22.25,    19.74,    19.33,    20.02
      159.0,      20.27,    22.18,    19.67,    19.26,    19.96
      160.0,      20.20,    22.11,    19.60,    19.19,    19.89
      161.0,      20.13,    22.04,    19.53,    19.12,    19.83
      162.0,      20.06,    21.97,    19.46,    19.05,    19.77
      163.0,      20.00,    21.90,    19.40,    18.98,    19.70
      164.0,      19.93,    21.84,    19.33,    18.92,    19.64
      165.0,      19.86,    21.77,    19.26,    18.85,    19.58
      166.0,      19.80,    21.70,    19.20,    18.78,    19.51
      167.0,      19.73,    21.64,    19.13,    18.72,    19.45
      168.0,      19.67,    21.57,    19.06,    18.65,    19.39
      169.0,      19.60,    21.50,    19.00,    18.58,    19.33
      170.0,      19.54,    21.44,    18.93,    18.52,    19.27
      171.0,      19.48,    21.37,    18.87,    18.45,    19.21
      172.0,      19.41,    21.31,    18.80,    18.39,    19.15
      173.0,      19.35,    21.24,    18.74,    18.33,    19.09
      174.0,      19.29,    21.18,    18.67,    18.26,    19.03
      175.0,      19.22,    21.11,    18.61,    18.20,    18.97
      176.0,      19.16,    21.05,    18.55,    18.14,    18.92
      177.0,      19.10,    20.99,    18.48,    18.07,    18.86
      178.0,      19.04,    20.92,    18.42,    18.01,    18.80
      179.0,      18.98,    20.86,    18.36,    17.95,    18.74
      180.0,      18.92,    20.80,    18.29,    17.89,    18.69
      181.0,      18.86,    20.73,    18.23,    17.83,    18.63
      182.0,      18.79,    20.67,    18.17,    17.76,    18.58
      183.0,      18.73,    20.61,    18.10,    17.70,    18.52
      184.0,      18.68,    20.55,    18.04,    17.64,    18.47
      185.0,      18.62,    20.49,    17.98,    17.58,    18.41
      186.0,      18.56,    20.43,    17.92,    17.52,    18.36
      187.0,      18.50,    20.36,    17.86,    17.47,    18.30
      188.0,      18.44,    20.30,    17.80,    17.41,    18.25
      189.0,      18.38,    20.24,    17.74,    17.35,    18.20
      190.0,      18.32,    20.18,    17.68,    17.29,    18.15
      191.0,      18.27,    20.12,    17.61,    17.23,    18.09
      192.0,      18.21,    20.06,    17.55,    17.17,    18.04
      193.0,      18.15,    20.01,    17.49,    17.12,    17.99
      194.0,      18.09,    19.95,    17.43,    17.06,    17.94
      195.0,      18.04,    19.89,    17.38,    17.00,    17.89
      196.0,      17.98,    19.83,    17.32,    16.95,    17.84
      197.0,      17.93,    19.77,    17.26,    16.89,    17.79
      198.0,      17.87,    19.71,    17.20,    16.84,    17.74
      199.0,      17.82,    19.66,    17.14,    16.78,    17.69
      200.0,      17.76,    19.60,    17.08,    16.72,    17.64
      201.0,      17.71,    19.54,    17.02,    16.67,    17.59
      202.0,      17.65,    19.48,    16.96,    16.62,    17.54
      203.0,      17.60,    19.43,    16.91,    16.56,    17.49
      204.0,      17.54,    19.37,    16.85,    16.51,    17.45
      205.0,      17.49,    19.32,    16.79,    16.45,    17.40
      206.0,      17.44,    19.26,    16.73,    16.40,    17.35
      207.0,      17.38,    19.20,    16.68,    16.35,    17.30
      208.0,      17.33,    19.15,    16.62,    16.29,    17.26
      209.0,      17.28,    19.09,    16.56,    16.24,    17.21
      210.0,      17.23,    19.04,    16.51,    16.19,    17.17
      211.0,      17.17,    18.98,    16.45,    16.14,    17.12
      212.0,      17.12,    18.93,    16.39,    16.09,    17.07
      213.0,      17.07,    18.88,    16.34,    16.04,    17.03
      214.0,      17.02,    18.82,    16.28,    15.98,    16.98
      215.0,      16.97,    18.77,    16.23,    15.93,    16.94
      216.0,      16.92,    18.71,    16.17,    15.88,    16.90
      217.0,      16.87,    18.66,    16.12,    15.83,    16.85
      218.0,      16.82,    18.61,    16.06,    15.78,    16.81
      219.0,      16.77,    18.56,    16.01,    15.73,    16.77
      220.0,      16.72,    18.50,    15.95,    15.68,    16.72
      221.0,      16.67,    18.45,    15.90,    15.63,    16.68
      222.0,      16.62,    18.40,    15.84,    15.59,    16.64
      223.0,      16.57,    18.35,    15.79,    15.54,    16.59
      224.0,      16.52,    18.30,    15.74,    15.49,    16.55
      225.0,      16.47,    18.24,    15.68,    15.44,    16.51
      226.0,      16.42,    18.19,    15.63,    15.39,    16.47
      227.0,      16.37,    18.14,    15.58,    15.35,    16.43
      228.0,      16.33,    18.09,    15.52,    15.30,    16.39
      229.0,      16.28,    18.04,    15.47,    15.25,    16.35
      230.0,      16.23,    17.99,    15.42,    15.20,    16.31
      231.0,      16.18,    17.94,    15.37,    15.16,    16.27
      232.0,      16.14,    17.89,    15.31,    15.11,    16.23
      233.0,      16.09,    17.84,    15.26,    15.06,    16.19
      234.0,      16.04,    17.79,    15.21,    15.02,    16.15
      235.0,      16.00,    17.74,    15.16,    14.97,    16.11
      236.0,      15.95,    17.69,    15.11,    14.93,    16.07
      237.0,      15.90,    17.65,    15.05,    14.88,    16.03
      238.0,      15.86,    17.60,    15.00,    14.84,    15.99
      239.0,      15.81,    17.55,    14.95,    14.79,    15.96
      240.0,      15.77,    17.50,    14.90,    14.75,    15.92
      241.0,      15.72,    17.45,    14.85,    14.70,    15.88
      242.0,      15.68,    17.41,    14.80,    14.66,    15.84
      243.0,      15.63,    17.36,    14.75,    14.62,    15.80
      244.0,      15.59,    17.31,    14.70,    14.57,    15.77
      245.0,      15.54,    17.26,    14.65,    14.53,    15.73
      246.0,      15.50,    17.22,    14.60,    14.49,    15.69
      247.0,      15.46,    17.17,    14.55,    14.44,    15.66
      248.0,      15.41,    17.12,    14.50,    14.40,    15.62
      249.0,      15.37,    17.08,    14.45,    14.36,    15.59
      250.0,      15.33,    17.03,    14.40,    14.32,    15.55
      251.0,      15.28,    16.99,    14.35,    14.27,    15.52
      252.0,      15.24,    16.94,    14.31,    14.23,    15.48
      253.0,      15.20,    16.90,    14.26,    14.19,    15.44
      254.0,      15.15,    16.85,    14.21,    14.15,    15.41
      255.0,      15.11,    16.80,    14.16,    14.11,    15.38
      256.0,      15.07,    16.76,    14.11,    14.07,    15.34
      257.0,      15.03,    16.72,    14.06,    14.03,    15.31
      258.0,      14.99,    16.67,    14.02,    13.99,    15.27
      259.0,      14.95,    16.63,    13.97,    13.95,    15.24
      260.0,      14.90,    16.58,    13.92,    13.91,    15.21
      261.0,      14.86,    16.54,    13.87,    13.87,    15.17
      262.0,      14.82,    16.50,    13.83,    13.83,    15.14
      263.0,      14.78,    16.45,    13.78,    13.79,    15.11
      264.0,      14.74,    16.41,    13.73,    13.75,    15.07
      265.0,      14.70,    16.37,    13.69,    13.71,    15.04
      266.0,      14.66,    16.32,    13.64,    13.67,    15.01
      267.0,      14.62,    16.28,    13.59,    13.63,    14.98
      268.0,      14.58,    16.24,    13.55,    13.59,    14.94
      269.0,      14.54,    16.19,    13.50,    13.55,    14.91
      270.0,      14.50,    16.15,    13.46,    13.52,    14.88
      271.0,      14.46,    16.11,    13.41,    13.48,    14.85
      272.0,      14.42,    16.07,    13.36,    13.44,    14.82
      273.0,      14.38,    16.03,    13.32,    13.40,    14.79
      274.0,      14.34,    15.99,    13.27,    13.37,    14.75
      275.0,      14.31,    15.94,    13.23,    13.33,    14.72
      276.0,      14.27,    15.90,    13.18,    13.29,    14.69
      277.0,      14.23,    15.86,    13.14,    13.26,    14.66
      278.0,      14.19,    15.82,    13.09,    13.22,    14.63
      279.0,      14.15,    15.78,    13.05,    13.18,    14.60
      280.0,      14.12,    15.74,    13.01,    13.15,    14.57
      281.0,      14.08,    15.70,    12.96,    13.11,    14.54
      282.0,      14.04,    15.66,    12.92,    13.07,    14.51
      283.0,      14.00,    15.62,    12.87,    13.04,    14.48
      284.0,      13.97,    15.58,    12.83,    13.00,    14.45
      285.0,      13.93,    15.54,    12.79,    12.97,    14.43
      286.0,      13.89,    15.50,    12.74,    12.93,    14.40
      287.0,      13.86,    15.46,    12.70,    12.90,    14.37
      288.0,      13.82,    15.42,    12.66,    12.86,    14.34
      289.0,      13.78,    15.38,    12.61,    12.83,    14.31
      290.0,      13.75,    15.34,    12.57,    12.79,    14.28
      291.0,      13.71,    15.31,    12.53,    12.76,    14.25
      292.0,      13.68,    15.27,    12.49,    12.72,    14.23
      293.0,      13.64,    15.23,    12.44,    12.69,    14.20
      294.0,      13.60,    15.19,    12.40,    12.66,    14.17
      295.0,      13.57,    15.15,    12.36,    12.62,    14.14
      296.0,      13.53,    15.11,    12.32,    12.59,    14.11
      297.0,      13.50,    15.08,    12.27,    12.56,    14.09
      298.0,      13.46,    15.04,    12.23,    12.52,    14.06
      299.0,      13.43,    15.00,    12.19,    12.49,    14.03
      300.0,      13.39,    14.97,    12.15,    12.46,    14.01
      301.0,      13.36,    14.93,    12.11,    12.42,    13.98
      302.0,      13.33,    14.89,    12.07,    12.39,    13.95
      303.0,      13.29,    14.85,    12.03,    12.36,    13.93
      304.0,      13.26,    14.82,    11.99,    12.33,    13.90
      305.0,      13.22,    14.78,    11.95,    12.29,    13.87
      306.0,      13.19,    14.74,    11.91,    12.26,    13.85
      307.0,      13.16,    14.71,    11.86,    12.23,    13.82
      308.0,      13.12,    14.67,    11.82,    12.20,    13.80
      309.0,      13.09,    14.64,    11.78,    12.17,    13.77
      310.0,      13.06,    14.60,    11.74,    12.14,    13.74
