Radius (km), Mean (m/s), NE (m/s), SE (m/s), SW (m/s), NW (m/s)
        0.0,       0.00,     0.00,     0.00,     0.00,     0.00
        1.0,       1.85,     1.58,     1.96,     2.29,     1.58
        2.0,       3.47,     3.19,     3.63,     3.88,     3.19
        3.0,       5.03,     4.83,     5.20,     5.28,     4.83
        4.0,       6.56,     6.47,     6.71,     6.57,     6.47
        5.0,       8.05,     8.12,     8.18,     7.79,     8.12
        6.0,       9.53,     9.78,     9.62,     8.94,     9.78
        7.0,      11.00,    11.45,    11.03,    10.06,    11.45
        8.0,      12.44,    13.11,    12.42,    11.13,    13.11
        9.0,      13.88,    14.78,    13.79,    12.18,    14.78
       10.0,      15.31,    16.46,    15.14,    13.19,    16.46
       11.0,      16.73,    18.14,    16.48,    14.18,    18.14
       12.0,      18.15,    19.83,    17.80,    15.16,    19.83
       13.0,      19.60,    21.56,    19.14,    16.13,    21.57
       14.0,      21.12,    23.39,    20.53,    17.14,    23.42
       15.0,      22.77,    25.41,    22.02,    18.21,    25.44
       16.0,      24.59,    27.67,    23.66,    19.38,    27.67
       17.0,      26.59,    30.16,    25.45,    20.65,    30.12
       18.0,      28.74,    32.85,    27.37,    22.00,    32.72
       19.0,      30.95,    35.64,    29.36,    23.39,    35.41
       20.0,      33.13,    38.39,    31.33,    24.74,    38.04
       21.0,      35.15,    40.96,    33.17,    25.99,    40.49
       22.0,      36.92,    43.19,    34.78,    27.08,    42.64
       23.0,      38.34,    44.97,    36.08,    27.94,    44.38
       24.0,      39.37,    46.24,    37.03,    28.55,    45.66
       25.0,      39.98,    46.96,    37.59,    28.89,    46.46
       26.0,      40.20,    47.19,    37.81,    29.00,    46.82
       27.0,      40.10,    46.99,    37.72,    28.89,    46.81
       28.0,      39.76,    46.47,    37.40,    28.64,    46.53
       29.0,      39.26,    45.76,    36.94,    28.29,    46.07
       30.0,      38.69,    44.95,    36.40,    27.89,    45.53
       31.0,      38.11,    44.13,    35.84,    27.49,    44.96
       32.0,      37.54,    43.35,    35.31,    27.10,    44.42
       33.0,      37.01,    42.61,    34.81,    26.74,    43.90
       34.0,      36.51,    41.92,    34.33,    26.39,    43.40
       35.0,      36.03,    41.25,    33.88,    26.06,    42.92
       36.0,      35.56,    40.61,    33.44,    25.74,    42.44
       37.0,      35.10,    39.99,    33.02,    25.43,    41.97
       38.0,      34.66,    39.39,    32.61,    25.13,    41.51
       39.0,      34.23,    38.81,    32.21,    24.84,    41.06
       40.0,      33.81,    38.25,    31.82,    24.56,    40.61
       41.0,      33.40,    37.71,    31.44,    24.28,    40.17
       42.0,      33.00,    37.19,    31.08,    24.02,    39.74
       43.0,      32.62,    36.69,    30.72,    23.76,    39.31
       44.0,      32.24,    36.20,    30.38,    23.51,    38.89
       45.0,      31.88,    35.73,    30.04,    23.27,    38.48
       46.0,      31.52,    35.27,    29.72,    23.03,    38.08
       47.0,      31.18,    34.83,    29.40,    22.80,    37.68
       48.0,      30.84,    34.40,    29.10,    22.58,    37.28
       49.0,      30.51,    33.99,    28.80,    22.37,    36.90
       50.0,      30.19,    33.59,    28.51,    22.16,    36.52
       51.0,      29.88,    33.20,    28.23,    21.96,    36.15
       52.0,      29.58,    32.82,    27.96,    21.76,    35.78
       53.0,      29.28,    32.46,    27.69,    21.57,    35.42
       54.0,      29.00,    32.11,    27.43,    21.39,    35.06
       55.0,      28.72,    31.77,    27.18,    21.21,    34.71
       56.0,      28.44,    31.44,    26.94,    21.03,    34.37
       57.0,      28.18,    31.12,    26.70,    20.86,    34.03
       58.0,      27.92,    30.81,    26.47,    20.70,    33.69
       59.0,      27.66,    30.51,    26.25,    20.54,    33.37
       60.0,      27.42,    30.21,    26.03,    20.38,    33.04
       61.0,      27.18,    29.93,    25.82,    20.23,    32.73
       62.0,      26.94,    29.66,    25.61,    20.08,    32.41
       63.0,      26.71,    29.39,    25.41,    19.94,    32.11
       64.0,      26.49,    29.13,    25.21,    19.80,    31.80
       65.0,      26.27,    28.88,    25.02,    19.67,    31.50
       66.0,      26.06,    28.64,    24.83,    19.53,    31.21
       67.0,      25.85,    28.41,    24.65,    19.40,    30.92
       68.0,      25.64,    28.18,    24.48,    19.28,    30.64
       69.0,      25.44,    27.95,    24.30,    19.16,    30.36
       70.0,      25.25,    27.74,    24.13,    19.04,    30.08
       71.0,      25.06,    27.53,    23.97,    18.92,    29.81
       72.0,      24.87,    27.32,    23.81,    18.81,    29.55
       73.0,      24.69,    27.12,    23.65,    18.70,    29.29
       74.0,      24.51,    26.93,    23.50,    18.59,    29.03
       75.0,      24.34,    26.74,    23.35,    18.49,    28.77
       76.0,      24.17,    26.56,    23.21,    18.38,    28.52
       77.0,      24.00,    26.38,    23.06,    18.29,    28.28
       78.0,      23.84,    26.21,    22.93,    18.19,    28.03
       79.0,      23.68,    26.04,    22.79,    18.09,    27.80
       80.0,      23.52,    25.88,    22.66,    18.00,    27.56
       81.0,      23.37,    25.72,    22.53,    17.91,    27.33
       82.0,      23.22,    25.56,    22.40,    17.82,    27.10
       83.0,      23.07,    25.41,    22.28,    17.73,    26.88
       84.0,      22.93,    25.26,    22.16,    17.65,    26.66
       85.0,      22.79,    25.11,    22.04,    17.57,    26.44
       86.0,      22.65,    24.97,    21.92,    17.49,    26.23
       87.0,      22.52,    24.83,    21.81,    17.41,    26.02
       88.0,      22.38,    24.70,    21.69,    17.33,    25.81
       89.0,      22.25,    24.57,    21.59,    17.25,    25.61
       90.0,      22.13,    24.44,    21.48,    17.18,    25.41
       91.0,      22.00,    24.31,    21.37,    17.11,    25.21
       92.0,      21.88,    24.19,    21.27,    17.03,    25.01
       93.0,      21.76,    24.07,    21.17,    16.96,    24.82
       94.0,      21.64,    23.95,    21.07,    16.90,    24.63
       95.0,      21.52,    23.84,    20.97,    16.83,    24.45
       96.0,      21.41,    23.73,    20.88,    16.76,    24.26
       97.0,      21.30,    23.62,    20.78,    16.70,    24.08
       98.0,      21.19,    23.51,    20.69,    16.63,    23.91
       99.0,      21.08,    23.40,    20.60,    16.57,    23.73
      100.0,      20.97,    23.30,    20.51,    16.51,    23.56
      101.0,      20.87,    23.20,    20.43,    16.45,    23.39
      102.0,      20.76,    23.10,    20.34,    16.39,    23.22
      103.0,      20.66,    23.00,    20.25,    16.33,    23.06
      104.0,      20.56,    22.90,    20.17,    16.28,    22.90
      105.0,      20.46,    22.81,    20.09,    16.22,    22.74
      106.0,      20.37,    22.72,    20.01,    16.17,    22.58
      107.0,      20.27,    22.63,    19.93,    16.11,    22.43
      108.0,      20.18,    22.54,    19.85,    16.06,    22.27
      109.0,      20.09,    22.45,    19.78,    16.00,    22.12
      110.0,      20.00,    22.36,    19.70,    15.95,    21.98
      111.0,      19.91,    22.28,    19.63,    15.90,    21.83
      112.0,      19.82,    22.19,    19.55,    15.85,    21.69
      113.0,      19.74,    22.11,    19.48,    15.80,    21.55
      114.0,      19.65,    22.03,    19.41,    15.75,    21.41
      115.0,      19.57,    21.95,    19.34,    15.70,    21.27
      116.0,      19.48,    21.87,    19.27,    15.66,    21.13
      117.0,      19.40,    21.80,    19.20,    15.61,    21.00
      118.0,      19.32,    21.72,    19.13,    15.56,    20.87
      119.0,      19.24,    21.65,    19.07,    15.52,    20.74
      120.0,      19.16,    21.57,    19.00,    15.47,    20.61
      121.0,      19.09,    21.50,    18.94,    15.43,    20.49
      122.0,      19.01,    21.43,    18.87,    15.39,    20.36
      123.0,      18.94,    21.36,    18.81,    15.34,    20.24
      124.0,      18.86,    21.29,    18.75,    15.30,    20.12
      125.0,      18.79,    21.22,    18.68,    15.26,    20.00
      126.0,      18.72,    21.15,    18.62,    15.21,    19.88
      127.0,      18.65,    21.08,    18.56,    15.17,    19.77
      128.0,      18.58,    21.01,    18.50,    15.13,    19.66
      129.0,      18.51,    20.95,    18.44,    15.09,    19.54
      130.0,      18.44,    20.88,    18.38,    15.05,    19.43
      131.0,      18.37,    20.82,    18.33,    15.01,    19.32
      132.0,      18.30,    20.75,    18.27,    14.97,    19.22
      133.0,      18.24,    20.69,    18.21,    14.93,    19.11
      134.0,      18.17,    20.63,    18.15,    14.89,    19.01
      135.0,      18.11,    20.57,    18.10,    14.86,    18.90
      136.0,      18.04,    20.51,    18.04,    14.82,    18.80
      137.0,      17.98,    20.45,    17.99,    14.78,    18.70
      138.0,      17.92,    20.39,    17.93,    14.74,    18.60
      139.0,      17.86,    20.33,    17.88,    14.71,    18.51
      140.0,      17.79,    20.27,    17.83,    14.67,    18.41
      141.0,      17.73,    20.21,    17.77,    14.63,    18.32
      142.0,      17.67,    20.15,    17.72,    14.60,    18.22
      143.0,      17.61,    20.09,    17.67,    14.56,    18.13
      144.0,      17.56,    20.04,    17.62,    14.53,    18.04
      145.0,      17.50,    19.98,    17.57,    14.49,    17.95
      146.0,      17.44,    19.93,    17.52,    14.46,    17.86
      147.0,      17.38,    19.87,    17.46,    14.42,    17.78
      148.0,      17.33,    19.81,    17.41,    14.39,    17.69
      149.0,      17.27,    19.76,    17.36,    14.35,    17.61
      150.0,      17.22,    19.71,    17.32,    14.32,    17.52
      151.0,      17.16,    19.65,    17.27,    14.29,    17.44
      152.0,      17.11,    19.60,    17.22,    14.25,    17.36
      153.0,      17.05,    19.55,    17.17,    14.22,    17.28
      154.0,      17.00,    19.49,    17.12,    14.19,    17.20
      155.0,      16.95,    19.44,    17.07,    14.15,    17.12
      156.0,      16.90,    19.39,    17.03,    14.12,    17.04
      157.0,      16.84,    19.34,    16.98,    14.09,    16.97
      158.0,      16.79,    19.29,    16.93,    14.06,    16.89
      159.0,      16.74,    19.24,    16.89,    14.03,    16.82
      160.0,      16.69,    19.18,    16.84,    13.99,    16.75
      161.0,      16.64,    19.13,    16.79,    13.96,    16.67
      162.0,      16.59,    19.08,    16.75,    13.93,    16.60
      163.0,      16.54,    19.03,    16.70,    13.90,    16.53
      164.0,      16.49,    18.98,    16.66,    13.87,    16.46
      165.0,      16.45,    18.94,    16.61,    13.84,    16.39
      166.0,      16.40,    18.89,    16.57,    13.81,    16.33
      167.0,      16.35,    18.84,    16.52,    13.78,    16.26
      168.0,      16.30,    18.79,    16.48,    13.75,    16.19
      169.0,      16.26,    18.74,    16.44,    13.72,    16.13
      170.0,      16.21,    18.69,    16.39,    13.69,    16.06
      171.0,      16.16,    18.65,    16.35,    13.66,    16.00
      172.0,      16.12,    18.60,    16.31,    13.63,    15.94
      173.0,      16.07,    18.55,    16.26,    13.60,    15.88
      174.0,      16.03,    18.50,    16.22,    13.57,    15.81
      175.0,      15.98,    18.46,    16.18,    13.54,    15.75
      176.0,      15.94,    18.41,    16.13,    13.51,    15.69
      177.0,      15.89,    18.36,    16.09,    13.48,    15.63
      178.0,      15.85,    18.32,    16.05,    13.45,    15.58
      179.0,      15.80,    18.27,    16.01,    13.42,    15.52
      180.0,      15.76,    18.23,    15.97,    13.39,    15.46
      181.0,      15.72,    18.18,    15.92,    13.36,    15.41
      182.0,      15.68,    18.14,    15.88,    13.33,    15.35
      183.0,      15.63,    18.09,    15.84,    13.31,    15.30
      184.0,      15.59,    18.05,    15.80,    13.28,    15.24
      185.0,      15.55,    18.00,    15.76,    13.25,    15.19
      186.0,      15.51,    17.96,    15.72,    13.22,    15.13
      187.0,      15.47,    17.91,    15.68,    13.19,    15.08
      188.0,      15.43,    17.87,    15.64,    13.16,    15.03
      189.0,      15.38,    17.82,    15.60,    13.14,    14.98
      190.0,      15.34,    17.78,    15.56,    13.11,    14.93
      191.0,      15.30,    17.74,    15.52,    13.08,    14.88
      192.0,      15.26,    17.69,    15.48,    13.05,    14.83
      193.0,      15.22,    17.65,    15.44,    13.03,    14.78
      194.0,      15.18,    17.61,    15.40,    13.00,    14.73
      195.0,      15.14,    17.56,    15.36,    12.97,    14.68
      196.0,      15.11,    17.52,    15.32,    12.94,    14.64
      197.0,      15.07,    17.48,    15.28,    12.92,    14.59
      198.0,      15.03,    17.43,    15.24,    12.89,    14.54
      199.0,      14.99,    17.39,    15.21,    12.86,    14.50
      200.0,      14.95,    17.35,    15.17,    12.84,    14.45
      201.0,      14.91,    17.31,    15.13,    12.81,    14.41
      202.0,      14.87,    17.26,    15.09,    12.78,    14.36
      203.0,      14.84,    17.22,    15.05,    12.76,    14.32
      204.0,      14.80,    17.18,    15.01,    12.73,    14.27
      205.0,      14.76,    17.14,    14.98,    12.70,    14.23
      206.0,      14.73,    17.10,    14.94,    12.68,    14.19
      207.0,      14.69,    17.06,    14.90,    12.65,    14.15
      208.0,      14.65,    17.01,    14.86,    12.62,    14.11
      209.0,      14.62,    16.97,    14.83,    12.60,    14.06
      210.0,      14.58,    16.93,    14.79,    12.57,    14.02
      211.0,      14.54,    16.89,    14.75,    12.54,    13.98
      212.0,      14.51,    16.85,    14.72,    12.52,    13.94
      213.0,      14.47,    16.81,    14.68,    12.49,    13.90
      214.0,      14.44,    16.77,    14.64,    12.47,    13.86
      215.0,      14.40,    16.73,    14.60,    12.44,    13.83
      216.0,      14.36,    16.69,    14.57,    12.42,    13.79
      217.0,      14.33,    16.65,    14.53,    12.39,    13.75
      218.0,      14.29,    16.61,    14.50,    12.36,    13.71
      219.0,      14.26,    16.57,    14.46,    12.34,    13.67
      220.0,      14.23,    16.53,    14.42,    12.31,    13.64
      221.0,      14.19,    16.49,    14.39,    12.29,    13.60
      222.0,      14.16,    16.45,    14.35,    12.26,    13.56
      223.0,      14.12,    16.41,    14.32,    12.24,    13.53
      224.0,      14.09,    16.37,    14.28,    12.21,    13.49
      225.0,      14.05,    16.33,    14.24,    12.19,    13.46
      226.0,      14.02,    16.29,    14.21,    12.16,    13.42
      227.0,      13.99,    16.25,    14.17,    12.14,    13.39
      228.0,      13.95,    16.21,    14.14,    12.11,    13.35
      229.0,      13.92,    16.17,    14.10,    12.09,    13.32
      230.0,      13.89,    16.14,    14.07,    12.06,    13.29
      231.0,      13.85,    16.10,    14.03,    12.04,    13.25
      232.0,      13.82,    16.06,    14.00,    12.01,    13.22
      233.0,      13.79,    16.02,    13.96,    11.99,    13.19
      234.0,      13.76,    15.98,    13.93,    11.96,    13.15
      235.0,      13.72,    15.94,    13.89,    11.94,    13.12
      236.0,      13.69,    15.91,    13.86,    11.91,    13.09
      237.0,      13.66,    15.87,    13.83,    11.89,    13.06
      238.0,      13.63,    15.83,    13.79,    11.87,    13.03
      239.0,      13.60,    15.79,    13.76,    11.84,    13.00
      240.0,      13.56,    15.75,    13.72,    11.82,    12.96
      241.0,      13.53,    15.72,    13.69,    11.79,    12.93
      242.0,      13.50,    15.68,    13.65,    11.77,    12.90
      243.0,      13.47,    15.64,    13.62,    11.74,    12.87
      244.0,      13.44,    15.60,    13.59,    11.72,    12.84
      245.0,      13.41,    15.57,    13.55,    11.70,    12.81
      246.0,      13.38,    15.53,    13.52,    11.67,    12.78
      247.0,      13.35,    15.49,    13.49,    11.65,    12.75
      248.0,      13.31,    15.46,    13.45,    11.63,    12.73
      249.0,      13.28,    15.42,    13.42,    11.60,    12.70
      250.0,      13.25,    15.38,    13.39,    11.58,    12.67
      251.0,      13.22,    15.34,    13.35,    11.55,    12.64
      252.0,      13.19,    15.31,    13.32,    11.53,    12.61
      253.0,      13.16,    15.27,    13.29,    11.51,    12.58
      254.0,      13.13,    15.24,    13.25,    11.48,    12.56
      255.0,      13.10,    15.20,    13.22,    11.46,    12.53
      256.0,      13.07,    15.16,    13.19,    11.44,    12.50
      257.0,      13.04,    15.13,    13.16,    11.41,    12.48
      258.0,      13.01,    15.09,    13.12,    11.39,    12.45
      259.0,      12.98,    15.05,    13.09,    11.37,    12.42
      260.0,      12.95,    15.02,    13.06,    11.34,    12.40
      261.0,      12.92,    14.98,    13.03,    11.32,    12.37
      262.0,      12.90,    14.95,    13.00,    11.30,    12.34
      263.0,      12.87,    14.91,    12.96,    11.27,    12.32
      264.0,      12.84,    14.88,    12.93,    11.25,    12.29
      265.0,      12.81,    14.84,    12.90,    11.23,    12.27
      266.0,      12.78,    14.81,    12.87,    11.21,    12.24
      267.0,      12.75,    14.77,    12.84,    11.18,    12.22
      268.0,      12.72,    14.73,    12.80,    11.16,    12.19
      269.0,      12.69,    14.70,    12.77,    11.14,    12.17
      270.0,      12.67,    14.66,    12.74,    11.11,    12.14
      271.0,      12.64,    14.63,    12.71,    11.09,    12.12
      272.0,      12.61,    14.59,    12.68,    11.07,    12.09
      273.0,      12.58,    14.56,    12.65,    11.05,    12.07
      274.0,      12.55,    14.53,    12.62,    11.02,    12.04
      275.0,      12.52,    14.49,    12.59,    11.00,    12.02
      276.0,      12.50,    14.46,    12.55,    10.98,    12.00
      277.0,      12.47,    14.42,    12.52,    10.96,    11.97
      278.0,      12.44,    14.39,    12.49,    10.93,    11.95
      279.0,      12.41,    14.35,    12.46,    10.91,    11.93
      280.0,      12.39,    14.32,    12.43,    10.89,    11.90
      281.0,      12.36,    14.29,    12.40,    10.87,    11.88
      282.0,      12.33,    14.25,    12.37,    10.85,    11.86
      283.0,      12.30,    14.22,    12.34,    10.82,    11.83
      284.0,      12.28,    14.18,    12.31,    10.80,    11.81
      285.0,      12.25,    14.15,    12.28,    10.78,    11.79
      286.0,      12.22,    14.12,    12.25,    10.76,    11.77
      287.0,      12.20,    14.08,    12.22,    10.74,    11.74
      288.0,      12.17,    14.05,    12.19,    10.71,    11.72
      289.0,      12.14,    14.02,    12.16,    10.69,    11.70
      290.0,      12.11,    13.98,    12.13,    10.67,    11.68
      291.0,      12.09,    13.95,    12.10,    10.65,    11.66
      292.0,      12.06,    13.92,    12.07,    10.63,    11.63
      293.0,      12.03,    13.88,    12.04,    10.61,    11.61
      294.0,      12.01,    13.85,    12.01,    10.58,    11.59
      295.0,      11.98,    13.82,    11.98,    10.56,    11.57
      296.0,      11.96,    13.78,    11.95,    10.54,    11.55
      297.0,      11.93,    13.75,    11.92,    10.52,    11.53
      298.0,      11.90,    13.72,    11.89,    10.50,    11.51
      299.0,      11.88,    13.69,    11.86,    10.48,    11.49
      300.0,      11.85,    13.65,    11.83,    10.46,    11.47
      301.0,      11.83,    13.62,    11.80,    10.43,    11.44
      302.0,      11.80,    13.59,    11.77,    10.41,    11.42
      303.0,      11.77,    13.56,    11.75,    10.39,    11.40
      304.0,      11.75,    13.52,    11.72,    10.37,    11.38
      305.0,      11.72,    13.49,    11.69,    10.35,    11.36
      306.0,      11.70,    13.46,    11.66,    10.33,    11.34
      307.0,      11.67,    13.43,    11.63,    10.31,    11.32
      308.0,      11.65,    13.40,    11.60,    10.29,    11.30
      309.0,      11.62,    13.36,    11.57,    10.27,    11.28
      310.0,      11.60,    13.33,    11.55,    10.24,    11.26
