Radius (km), Mean (m/s), NE (m/s), SE (m/s), SW (m/s), NW (m/s)
        0.0,       0.00,     0.00,     0.00,     0.00,     0.00
        1.0,       1.84,     1.55,     1.96,     2.29,     1.55
        2.0,       3.46,     3.17,     3.62,     3.88,     3.17
        3.0,       5.02,     4.80,     5.20,     5.28,     4.80
        4.0,       6.55,     6.45,     6.72,     6.58,     6.45
        5.0,       8.05,     8.11,     8.19,     7.80,     8.11
        6.0,       9.54,     9.78,     9.63,     8.96,     9.78
        7.0,      11.01,    11.46,    11.05,    10.07,    11.46
        8.0,      12.47,    13.14,    12.44,    11.15,    13.14
        9.0,      13.92,    14.83,    13.82,    12.20,    14.83
       10.0,      15.36,    16.53,    15.18,    13.22,    16.53
       11.0,      16.80,    18.23,    16.52,    14.21,    18.23
       12.0,      18.23,    19.94,    17.85,    15.19,    19.94
       13.0,      19.69,    21.69,    19.20,    16.17,    21.70
       14.0,      21.23,    23.55,    20.60,    17.17,    23.58
       15.0,      22.89,    25.60,    22.10,    18.25,    25.63
       16.0,      24.74,    27.88,    23.74,    19.42,    27.89
       17.0,      26.76,    30.42,    25.55,    20.70,    30.37
       18.0,      28.92,    33.15,    27.48,    22.05,    33.02
       19.0,      31.16,    35.98,    29.47,    23.44,    35.75
       20.0,      33.36,    38.79,    31.45,    24.79,    38.43
       21.0,      35.42,    41.40,    33.30,    26.05,    40.93
       22.0,      37.21,    43.67,    34.92,    27.14,    43.12
       23.0,      38.66,    45.49,    36.23,    28.00,    44.90
       24.0,      39.70,    46.79,    37.19,    28.61,    46.20
       25.0,      40.32,    47.53,    37.76,    28.96,    47.02
       26.0,      40.55,    47.76,    37.98,    29.07,    47.40
       27.0,      40.46,    47.57,    37.90,    28.97,    47.39
       28.0,      40.12,    47.05,    37.59,    28.72,    47.10
       29.0,      39.62,    46.32,    37.13,    28.38,    46.63
       30.0,      39.04,    45.50,    36.60,    27.98,    46.08
       31.0,      38.45,    44.67,    36.05,    27.58,    45.50
       32.0,      37.88,    43.87,    35.52,    27.20,    44.95
       33.0,      37.35,    43.12,    35.02,    26.84,    44.42
       34.0,      36.84,    42.41,    34.56,    26.49,    43.91
       35.0,      36.36,    41.74,    34.11,    26.17,    43.42
       36.0,      35.88,    41.08,    33.67,    25.85,    42.93
       37.0,      35.42,    40.45,    33.25,    25.54,    42.45
       38.0,      34.97,    39.84,    32.84,    25.24,    41.98
       39.0,      34.54,    39.25,    32.44,    24.95,    41.51
       40.0,      34.12,    38.69,    32.05,    24.67,    41.06
       41.0,      33.70,    38.14,    31.67,    24.40,    40.61
       42.0,      33.30,    37.60,    31.31,    24.13,    40.17
       43.0,      32.91,    37.09,    30.96,    23.87,    39.73
       44.0,      32.53,    36.59,    30.61,    23.63,    39.31
       45.0,      32.16,    36.11,    30.28,    23.38,    38.89
       46.0,      31.81,    35.65,    29.95,    23.15,    38.47
       47.0,      31.46,    35.20,    29.64,    22.92,    38.07
       48.0,      31.11,    34.76,    29.33,    22.70,    37.67
       49.0,      30.78,    34.34,    29.03,    22.49,    37.27
       50.0,      30.46,    33.93,    28.74,    22.28,    36.89
       51.0,      30.15,    33.54,    28.46,    22.08,    36.51
       52.0,      29.84,    33.16,    28.19,    21.88,    36.13
       53.0,      29.54,    32.79,    27.92,    21.69,    35.76
       54.0,      29.25,    32.43,    27.66,    21.50,    35.40
       55.0,      28.96,    32.08,    27.41,    21.32,    35.04
       56.0,      28.69,    31.74,    27.16,    21.15,    34.69
       57.0,      28.42,    31.42,    26.92,    20.98,    34.35
       58.0,      28.15,    31.10,    26.69,    20.81,    34.01
       59.0,      27.90,    30.80,    26.46,    20.65,    33.68
       60.0,      27.65,    30.50,    26.24,    20.49,    33.35
       61.0,      27.40,    30.21,    26.03,    20.34,    33.02
       62.0,      27.16,    29.93,    25.82,    20.19,    32.70
       63.0,      26.93,    29.66,    25.62,    20.05,    32.39
       64.0,      26.70,    29.40,    25.42,    19.91,    32.08
       65.0,      26.48,    29.14,    25.22,    19.77,    31.78
       66.0,      26.26,    28.90,    25.04,    19.64,    31.48
       67.0,      26.05,    28.66,    24.85,    19.51,    31.19
       68.0,      25.84,    28.42,    24.67,    19.38,    30.90
       69.0,      25.64,    28.20,    24.50,    19.26,    30.62
       70.0,      25.44,    27.98,    24.33,    19.14,    30.34
       71.0,      25.25,    27.76,    24.16,    19.02,    30.06
       72.0,      25.06,    27.55,    24.00,    18.91,    29.79
       73.0,      24.88,    27.35,    23.84,    18.80,    29.52
       74.0,      24.70,    27.15,    23.68,    18.69,    29.26
       75.0,      24.52,    26.96,    23.53,    18.58,    29.00
       76.0,      24.35,    26.78,    23.38,    18.48,    28.75
       77.0,      24.18,    26.60,    23.24,    18.38,    28.50
       78.0,      24.01,    26.42,    23.10,    18.28,    28.25
       79.0,      23.85,    26.25,    22.96,    18.18,    28.01
       80.0,      23.69,    26.08,    22.83,    18.09,    27.77
       81.0,      23.54,    25.92,    22.69,    18.00,    27.54
       82.0,      23.38,    25.76,    22.56,    17.91,    27.30
       83.0,      23.23,    25.60,    22.44,    17.82,    27.08
       84.0,      23.09,    25.45,    22.31,    17.73,    26.85
       85.0,      22.94,    25.30,    22.19,    17.65,    26.63
       86.0,      22.80,    25.16,    22.07,    17.57,    26.42
       87.0,      22.67,    25.02,    21.96,    17.49,    26.20
       88.0,      22.53,    24.88,    21.84,    17.41,    25.99
       89.0,      22.40,    24.75,    21.73,    17.33,    25.79
       90.0,      22.27,    24.61,    21.62,    17.26,    25.58
       91.0,      22.14,    24.49,    21.52,    17.18,    25.38
       92.0,      22.02,    24.36,    21.41,    17.11,    25.18
       93.0,      21.89,    24.24,    21.31,    17.04,    24.99
       94.0,      21.77,    24.12,    21.21,    16.97,    24.80
       95.0,      21.65,    24.00,    21.11,    16.90,    24.61
       96.0,      21.54,    23.89,    21.01,    16.83,    24.42
       97.0,      21.42,    23.78,    20.91,    16.77,    24.24
       98.0,      21.31,    23.66,    20.82,    16.70,    24.06
       99.0,      21.20,    23.56,    20.73,    16.64,    23.88
      100.0,      21.09,    23.45,    20.64,    16.58,    23.71
      101.0,      20.99,    23.35,    20.55,    16.52,    23.54
      102.0,      20.88,    23.25,    20.46,    16.46,    23.37
      103.0,      20.78,    23.15,    20.37,    16.40,    23.20
      104.0,      20.68,    23.05,    20.29,    16.34,    23.04
      105.0,      20.58,    22.95,    20.20,    16.28,    22.87
      106.0,      20.48,    22.86,    20.12,    16.23,    22.72
      107.0,      20.39,    22.77,    20.04,    16.17,    22.56
      108.0,      20.29,    22.68,    19.96,    16.12,    22.40
      109.0,      20.20,    22.59,    19.88,    16.07,    22.25
      110.0,      20.10,    22.50,    19.81,    16.01,    22.10
      111.0,      20.01,    22.41,    19.73,    15.96,    21.95
      112.0,      19.93,    22.33,    19.66,    15.91,    21.81
      113.0,      19.84,    22.24,    19.58,    15.86,    21.67
      114.0,      19.75,    22.16,    19.51,    15.81,    21.52
      115.0,      19.67,    22.08,    19.44,    15.76,    21.39
      116.0,      19.58,    22.00,    19.37,    15.71,    21.25
      117.0,      19.50,    21.92,    19.30,    15.66,    21.11
      118.0,      19.42,    21.84,    19.23,    15.62,    20.98
      119.0,      19.34,    21.77,    19.16,    15.57,    20.85
      120.0,      19.26,    21.69,    19.09,    15.53,    20.72
      121.0,      19.18,    21.62,    19.03,    15.48,    20.59
      122.0,      19.10,    21.55,    18.96,    15.44,    20.47
      123.0,      19.03,    21.47,    18.89,    15.39,    20.34
      124.0,      18.95,    21.40,    18.83,    15.35,    20.22
      125.0,      18.88,    21.33,    18.77,    15.31,    20.10
      126.0,      18.80,    21.26,    18.70,    15.26,    19.98
      127.0,      18.73,    21.19,    18.64,    15.22,    19.87
      128.0,      18.66,    21.12,    18.58,    15.18,    19.75
      129.0,      18.59,    21.06,    18.52,    15.14,    19.64
      130.0,      18.52,    20.99,    18.46,    15.10,    19.53
      131.0,      18.45,    20.93,    18.40,    15.06,    19.42
      132.0,      18.38,    20.86,    18.34,    15.02,    19.31
      133.0,      18.32,    20.80,    18.29,    14.98,    19.20
      134.0,      18.25,    20.73,    18.23,    14.94,    19.10
      135.0,      18.18,    20.67,    18.17,    14.90,    18.99
      136.0,      18.12,    20.61,    18.11,    14.86,    18.89
      137.0,      18.05,    20.55,    18.06,    14.82,    18.79
      138.0,      17.99,    20.49,    18.00,    14.79,    18.69
      139.0,      17.93,    20.43,    17.95,    14.75,    18.59
      140.0,      17.87,    20.37,    17.89,    14.71,    18.49
      141.0,      17.81,    20.31,    17.84,    14.67,    18.40
      142.0,      17.74,    20.25,    17.79,    14.64,    18.30
      143.0,      17.68,    20.19,    17.73,    14.60,    18.21
      144.0,      17.62,    20.13,    17.68,    14.57,    18.12
      145.0,      17.57,    20.07,    17.63,    14.53,    18.03
      146.0,      17.51,    20.02,    17.58,    14.50,    17.94
      147.0,      17.45,    19.96,    17.53,    14.46,    17.85
      148.0,      17.39,    19.91,    17.47,    14.43,    17.77
      149.0,      17.34,    19.85,    17.42,    14.39,    17.68
      150.0,      17.28,    19.79,    17.37,    14.36,    17.60
      151.0,      17.23,    19.74,    17.32,    14.32,    17.51
      152.0,      17.17,    19.69,    17.27,    14.29,    17.43
      153.0,      17.12,    19.63,    17.23,    14.26,    17.35
      154.0,      17.06,    19.58,    17.18,    14.22,    17.27
      155.0,      17.01,    19.53,    17.13,    14.19,    17.19
      156.0,      16.96,    19.47,    17.08,    14.16,    17.11
      157.0,      16.90,    19.42,    17.03,    14.12,    17.04
      158.0,      16.85,    19.37,    16.99,    14.09,    16.96
      159.0,      16.80,    19.32,    16.94,    14.06,    16.89
      160.0,      16.75,    19.27,    16.89,    14.03,    16.81
      161.0,      16.70,    19.21,    16.84,    14.00,    16.74
      162.0,      16.65,    19.16,    16.80,    13.96,    16.67
      163.0,      16.60,    19.11,    16.75,    13.93,    16.60
      164.0,      16.55,    19.06,    16.71,    13.90,    16.53
      165.0,      16.50,    19.01,    16.66,    13.87,    16.46
      166.0,      16.45,    18.96,    16.62,    13.84,    16.39
      167.0,      16.40,    18.91,    16.57,    13.81,    16.32
      168.0,      16.36,    18.86,    16.53,    13.78,    16.25
      169.0,      16.31,    18.82,    16.48,    13.75,    16.19
      170.0,      16.26,    18.77,    16.44,    13.72,    16.12
      171.0,      16.21,    18.72,    16.39,    13.69,    16.06
      172.0,      16.17,    18.67,    16.35,    13.66,    16.00
      173.0,      16.12,    18.62,    16.31,    13.63,    15.93
      174.0,      16.08,    18.57,    16.26,    13.60,    15.87
      175.0,      16.03,    18.53,    16.22,    13.57,    15.81
      176.0,      15.99,    18.48,    16.18,    13.54,    15.75
      177.0,      15.94,    18.43,    16.13,    13.51,    15.69
      178.0,      15.90,    18.39,    16.09,    13.48,    15.63
      179.0,      15.85,    18.34,    16.05,    13.45,    15.57
      180.0,      15.81,    18.29,    16.01,    13.42,    15.52
      181.0,      15.77,    18.25,    15.96,    13.39,    15.46
      182.0,      15.72,    18.20,    15.92,    13.36,    15.40
      183.0,      15.68,    18.16,    15.88,    13.33,    15.35
      184.0,      15.64,    18.11,    15.84,    13.30,    15.29
      185.0,      15.59,    18.06,    15.80,    13.28,    15.24
      186.0,      15.55,    18.02,    15.76,    13.25,    15.18
      187.0,      15.51,    17.97,    15.72,    13.22,    15.13
      188.0,      15.47,    17.93,    15.68,    13.19,    15.08
      189.0,      15.43,    17.88,    15.64,    13.16,    15.03
      190.0,      15.39,    17.84,    15.59,    13.14,    14.98
      191.0,      15.35,    17.80,    15.55,    13.11,    14.93
      192.0,      15.31,    17.75,    15.51,    13.08,    14.88
      193.0,      15.27,    17.71,    15.47,    13.05,    14.83
      194.0,      15.23,    17.66,    15.43,    13.02,    14.78
      195.0,      15.19,    17.62,    15.40,    13.00,    14.73
      196.0,      15.15,    17.58,    15.36,    12.97,    14.68
      197.0,      15.11,    17.53,    15.32,    12.94,    14.63
      198.0,      15.07,    17.49,    15.28,    12.91,    14.59
      199.0,      15.03,    17.45,    15.24,    12.89,    14.54
      200.0,      14.99,    17.40,    15.20,    12.86,    14.50
      201.0,      14.95,    17.36,    15.16,    12.83,    14.45
      202.0,      14.91,    17.32,    15.12,    12.81,    14.41
      203.0,      14.87,    17.28,    15.08,    12.78,    14.36
      204.0,      14.84,    17.23,    15.05,    12.75,    14.32
      205.0,      14.80,    17.19,    15.01,    12.73,    14.27
      206.0,      14.76,    17.15,    14.97,    12.70,    14.23
      207.0,      14.72,    17.11,    14.93,    12.67,    14.19
      208.0,      14.69,    17.06,    14.89,    12.65,    14.15
      209.0,      14.65,    17.02,    14.86,    12.62,    14.11
      210.0,      14.61,    16.98,    14.82,    12.59,    14.06
      211.0,      14.58,    16.94,    14.78,    12.57,    14.02
      212.0,      14.54,    16.90,    14.74,    12.54,    13.98
      213.0,      14.51,    16.86,    14.71,    12.52,    13.94
      214.0,      14.47,    16.82,    14.67,    12.49,    13.90
      215.0,      14.43,    16.78,    14.63,    12.46,    13.86
      216.0,      14.40,    16.73,    14.60,    12.44,    13.83
      217.0,      14.36,    16.69,    14.56,    12.41,    13.79
      218.0,      14.33,    16.65,    14.52,    12.39,    13.75
      219.0,      14.29,    16.61,    14.49,    12.36,    13.71
      220.0,      14.26,    16.57,    14.45,    12.34,    13.67
      221.0,      14.22,    16.53,    14.41,    12.31,    13.64
      222.0,      14.19,    16.49,    14.38,    12.28,    13.60
      223.0,      14.15,    16.45,    14.34,    12.26,    13.56
      224.0,      14.12,    16.41,    14.31,    12.23,    13.53
      225.0,      14.09,    16.37,    14.27,    12.21,    13.49
      226.0,      14.05,    16.33,    14.23,    12.18,    13.46
      227.0,      14.02,    16.29,    14.20,    12.16,    13.42
      228.0,      13.98,    16.25,    14.16,    12.13,    13.39
      229.0,      13.95,    16.21,    14.13,    12.11,    13.35
      230.0,      13.92,    16.17,    14.09,    12.08,    13.32
      231.0,      13.88,    16.14,    14.06,    12.06,    13.29
      232.0,      13.85,    16.10,    14.02,    12.03,    13.25
      233.0,      13.82,    16.06,    13.99,    12.01,    13.22
      234.0,      13.79,    16.02,    13.95,    11.98,    13.19
      235.0,      13.75,    15.98,    13.92,    11.96,    13.15
      236.0,      13.72,    15.94,    13.88,    11.93,    13.12
      237.0,      13.69,    15.90,    13.85,    11.91,    13.09
      238.0,      13.66,    15.86,    13.81,    11.89,    13.06
      239.0,      13.62,    15.83,    13.78,    11.86,    13.03
      240.0,      13.59,    15.79,    13.74,    11.84,    13.00
      241.0,      13.56,    15.75,    13.71,    11.81,    12.97
      242.0,      13.53,    15.71,    13.68,    11.79,    12.93
      243.0,      13.50,    15.67,    13.64,    11.76,    12.90
      244.0,      13.46,    15.64,    13.61,    11.74,    12.87
      245.0,      13.43,    15.60,    13.57,    11.72,    12.84
      246.0,      13.40,    15.56,    13.54,    11.69,    12.81
      247.0,      13.37,    15.52,    13.51,    11.67,    12.78
      248.0,      13.34,    15.49,    13.47,    11.64,    12.76
      249.0,      13.31,    15.45,    13.44,    11.62,    12.73
      250.0,      13.28,    15.41,    13.41,    11.60,    12.70
      251.0,      13.25,    15.37,    13.37,    11.57,    12.67
      252.0,      13.22,    15.34,    13.34,    11.55,    12.64
      253.0,      13.19,    15.30,    13.31,    11.53,    12.61
      254.0,      13.16,    15.26,    13.27,    11.50,    12.59
      255.0,      13.13,    15.23,    13.24,    11.48,    12.56
      256.0,      13.10,    15.19,    13.21,    11.46,    12.53
      257.0,      13.07,    15.15,    13.18,    11.43,    12.50
      258.0,      13.04,    15.12,    13.14,    11.41,    12.48
      259.0,      13.01,    15.08,    13.11,    11.39,    12.45
      260.0,      12.98,    15.04,    13.08,    11.36,    12.42
      261.0,      12.95,    15.01,    13.05,    11.34,    12.40
      262.0,      12.92,    14.97,    13.01,    11.32,    12.37
      263.0,      12.89,    14.94,    12.98,    11.29,    12.34
      264.0,      12.86,    14.90,    12.95,    11.27,    12.32
      265.0,      12.83,    14.86,    12.92,    11.25,    12.29
      266.0,      12.80,    14.83,    12.88,    11.22,    12.27
      267.0,      12.77,    14.79,    12.85,    11.20,    12.24
      268.0,      12.74,    14.76,    12.82,    11.18,    12.22
      269.0,      12.71,    14.72,    12.79,    11.15,    12.19
      270.0,      12.69,    14.69,    12.76,    11.13,    12.16
      271.0,      12.66,    14.65,    12.73,    11.11,    12.14
      272.0,      12.63,    14.62,    12.69,    11.09,    12.12
      273.0,      12.60,    14.58,    12.66,    11.06,    12.09
      274.0,      12.57,    14.54,    12.63,    11.04,    12.07
      275.0,      12.54,    14.51,    12.60,    11.02,    12.04
      276.0,      12.51,    14.48,    12.57,    11.00,    12.02
      277.0,      12.49,    14.44,    12.54,    10.97,    11.99
      278.0,      12.46,    14.41,    12.51,    10.95,    11.97
      279.0,      12.43,    14.37,    12.48,    10.93,    11.95
      280.0,      12.40,    14.34,    12.45,    10.91,    11.92
      281.0,      12.38,    14.30,    12.41,    10.88,    11.90
      282.0,      12.35,    14.27,    12.38,    10.86,    11.88
      283.0,      12.32,    14.23,    12.35,    10.84,    11.85
      284.0,      12.29,    14.20,    12.32,    10.82,    11.83
      285.0,      12.27,    14.17,    12.29,    10.80,    11.81
      286.0,      12.24,    14.13,    12.26,    10.77,    11.79
      287.0,      12.21,    14.10,    12.23,    10.75,    11.76
      288.0,      12.18,    14.06,    12.20,    10.73,    11.74
      289.0,      12.16,    14.03,    12.17,    10.71,    11.72
      290.0,      12.13,    14.00,    12.14,    10.69,    11.70
      291.0,      12.10,    13.96,    12.11,    10.66,    11.68
      292.0,      12.08,    13.93,    12.08,    10.64,    11.65
      293.0,      12.05,    13.90,    12.05,    10.62,    11.63
      294.0,      12.02,    13.86,    12.02,    10.60,    11.61
      295.0,      12.00,    13.83,    11.99,    10.58,    11.59
      296.0,      11.97,    13.80,    11.96,    10.56,    11.57
      297.0,      11.94,    13.76,    11.93,    10.54,    11.55
      298.0,      11.92,    13.73,    11.90,    10.51,    11.53
      299.0,      11.89,    13.70,    11.87,    10.49,    11.50
      300.0,      11.87,    13.66,    11.84,    10.47,    11.48
      301.0,      11.84,    13.63,    11.82,    10.45,    11.46
      302.0,      11.81,    13.60,    11.79,    10.43,    11.44
      303.0,      11.79,    13.57,    11.76,    10.41,    11.42
      304.0,      11.76,    13.53,    11.73,    10.39,    11.40
      305.0,      11.74,    13.50,    11.70,    10.36,    11.38
      306.0,      11.71,    13.47,    11.67,    10.34,    11.36
      307.0,      11.68,    13.44,    11.64,    10.32,    11.34
      308.0,      11.66,    13.40,    11.61,    10.30,    11.32
      309.0,      11.63,    13.37,    11.58,    10.28,    11.30
      310.0,      11.61,    13.34,    11.56,    10.26,    11.28
