Radius (km), Mean (m/s), NE (m/s), SE (m/s), SW (m/s), NW (m/s)
        0.0,       0.00,     0.00,     0.00,     0.00,     0.00
        1.0,       2.06,     1.90,     2.08,     2.37,     1.90
        2.0,       3.66,     3.55,     3.72,     3.79,     3.55
        3.0,       5.11,     5.12,     5.22,     5.00,     5.12
        4.0,       6.50,     6.64,     6.64,     6.07,     6.64
        5.0,       7.83,     8.12,     8.00,     7.07,     8.12
        6.0,       9.11,     9.57,     9.32,     8.00,     9.57
        7.0,      10.37,    10.99,    10.60,     8.88,    10.99
        8.0,      11.59,    12.40,    11.85,     9.72,    12.40
        9.0,      12.80,    13.79,    13.08,    10.53,    13.79
       10.0,      13.98,    15.16,    14.28,    11.31,    15.16
       11.0,      15.15,    16.52,    15.47,    12.07,    16.53
       12.0,      16.32,    17.90,    16.65,    12.82,    17.90
       13.0,      17.53,    19.33,    17.85,    13.58,    19.34
       14.0,      18.82,    20.88,    19.12,    14.38,    20.91
       15.0,      20.25,    22.60,    20.51,    15.23,    22.67
       16.0,      21.83,    24.53,    22.04,    16.14,    24.63
       17.0,      23.55,    26.63,    23.71,    17.08,    26.77
       18.0,      25.35,    28.84,    25.48,    18.05,    29.02
       19.0,      27.16,    31.06,    27.28,    19.00,    31.28
       20.0,      28.88,    33.18,    29.01,    19.90,    33.42
       21.0,      30.42,    35.07,    30.59,    20.70,    35.32
       22.0,      31.71,    36.64,    31.93,    21.37,    36.88
       23.0,      32.67,    37.80,    32.96,    21.90,    38.02
       24.0,      33.30,    38.54,    33.65,    22.29,    38.72
       25.0,      33.60,    38.86,    34.00,    22.52,    39.00
       26.0,      33.60,    38.81,    34.05,    22.64,    38.90
       27.0,      33.38,    38.48,    33.85,    22.67,    38.52
       28.0,      33.00,    37.95,    33.47,    22.63,    37.94
       29.0,      32.53,    37.31,    32.99,    22.55,    37.25
       30.0,      32.02,    36.63,    32.47,    22.46,    36.53
       31.0,      31.52,    35.97,    31.95,    22.36,    35.82
       32.0,      31.05,    35.33,    31.45,    22.27,    35.15
       33.0,      30.60,    34.74,    30.98,    22.18,    34.51
       34.0,      30.18,    34.17,    30.54,    22.10,    33.91
       35.0,      29.77,    33.62,    30.12,    22.02,    33.32
       36.0,      29.37,    33.09,    29.71,    21.93,    32.76
       37.0,      28.99,    32.59,    29.31,    21.85,    32.22
       38.0,      28.63,    32.10,    28.93,    21.77,    31.70
       39.0,      28.27,    31.63,    28.56,    21.69,    31.21
       40.0,      27.93,    31.18,    28.21,    21.61,    30.72
       41.0,      27.60,    30.74,    27.87,    21.53,    30.26
       42.0,      27.28,    30.32,    27.54,    21.45,    29.82
       43.0,      26.97,    29.92,    27.22,    21.37,    29.39
       44.0,      26.68,    29.53,    26.91,    21.30,    28.97
       45.0,      26.39,    29.15,    26.62,    21.22,    28.57
       46.0,      26.11,    28.79,    26.33,    21.14,    28.19
       47.0,      25.85,    28.44,    26.06,    21.07,    27.82
       48.0,      25.59,    28.10,    25.79,    21.00,    27.47
       49.0,      25.34,    27.78,    25.53,    20.92,    27.12
       50.0,      25.10,    27.47,    25.28,    20.85,    26.79
       51.0,      24.87,    27.17,    25.04,    20.78,    26.48
       52.0,      24.64,    26.88,    24.81,    20.70,    26.17
       53.0,      24.42,    26.60,    24.59,    20.63,    25.87
       54.0,      24.21,    26.33,    24.37,    20.56,    25.59
       55.0,      24.01,    26.06,    24.16,    20.49,    25.31
       56.0,      23.81,    25.81,    23.96,    20.42,    25.05
       57.0,      23.62,    25.57,    23.76,    20.35,    24.79
       58.0,      23.44,    25.34,    23.57,    20.29,    24.55
       59.0,      23.26,    25.11,    23.39,    20.22,    24.31
       60.0,      23.08,    24.89,    23.21,    20.15,    24.08
       61.0,      22.92,    24.68,    23.04,    20.08,    23.86
       62.0,      22.75,    24.48,    22.87,    20.02,    23.65
       63.0,      22.60,    24.28,    22.71,    19.95,    23.44
       64.0,      22.44,    24.09,    22.56,    19.89,    23.24
       65.0,      22.30,    23.91,    22.40,    19.82,    23.05
       66.0,      22.15,    23.73,    22.26,    19.76,    22.87
       67.0,      22.01,    23.56,    22.12,    19.70,    22.69
       68.0,      21.88,    23.39,    21.98,    19.63,    22.52
       69.0,      21.75,    23.23,    21.84,    19.57,    22.35
       70.0,      21.62,    23.08,    21.71,    19.51,    22.19
       71.0,      21.50,    22.93,    21.59,    19.45,    22.04
       72.0,      21.38,    22.78,    21.47,    19.39,    21.88
       73.0,      21.26,    22.64,    21.35,    19.33,    21.74
       74.0,      21.15,    22.50,    21.23,    19.27,    21.60
       75.0,      21.04,    22.37,    21.12,    19.21,    21.46
       76.0,      20.93,    22.25,    21.01,    19.15,    21.33
       77.0,      20.83,    22.12,    20.90,    19.09,    21.21
       78.0,      20.73,    22.00,    20.80,    19.04,    21.08
       79.0,      20.63,    21.89,    20.70,    18.98,    20.96
       80.0,      20.54,    21.77,    20.60,    18.92,    20.85
       81.0,      20.44,    21.66,    20.51,    18.87,    20.74
       82.0,      20.35,    21.56,    20.41,    18.81,    20.63
       83.0,      20.26,    21.46,    20.32,    18.75,    20.52
       84.0,      20.18,    21.36,    20.24,    18.70,    20.42
       85.0,      20.09,    21.26,    20.15,    18.65,    20.32
       86.0,      20.01,    21.16,    20.07,    18.59,    20.23
       87.0,      19.93,    21.07,    19.99,    18.54,    20.14
       88.0,      19.86,    20.98,    19.91,    18.48,    20.05
       89.0,      19.78,    20.90,    19.83,    18.43,    19.96
       90.0,      19.71,    20.81,    19.75,    18.38,    19.88
       91.0,      19.63,    20.73,    19.68,    18.33,    19.79
       92.0,      19.56,    20.65,    19.61,    18.28,    19.71
       93.0,      19.49,    20.57,    19.54,    18.23,    19.64
       94.0,      19.43,    20.50,    19.47,    18.17,    19.56
       95.0,      19.36,    20.43,    19.40,    18.12,    19.49
       96.0,      19.29,    20.35,    19.33,    18.07,    19.42
       97.0,      19.23,    20.28,    19.27,    18.03,    19.35
       98.0,      19.17,    20.22,    19.20,    17.98,    19.28
       99.0,      19.11,    20.15,    19.14,    17.93,    19.22
      100.0,      19.05,    20.09,    19.08,    17.88,    19.15
      101.0,      18.99,    20.02,    19.02,    17.83,    19.09
      102.0,      18.93,    19.96,    18.96,    17.78,    19.03
      103.0,      18.88,    19.90,    18.90,    17.74,    18.97
      104.0,      18.82,    19.84,    18.85,    17.69,    18.91
      105.0,      18.77,    19.78,    18.79,    17.64,    18.86
      106.0,      18.72,    19.73,    18.74,    17.60,    18.80
      107.0,      18.66,    19.67,    18.68,    17.55,    18.75
      108.0,      18.61,    19.62,    18.63,    17.51,    18.70
      109.0,      18.56,    19.57,    18.58,    17.46,    18.64
      110.0,      18.51,    19.51,    18.53,    17.42,    18.59
      111.0,      18.46,    19.46,    18.48,    17.37,    18.55
      112.0,      18.42,    19.41,    18.43,    17.33,    18.50
      113.0,      18.37,    19.37,    18.38,    17.29,    18.45
      114.0,      18.32,    19.32,    18.33,    17.24,    18.41
      115.0,      18.28,    19.27,    18.28,    17.20,    18.36
      116.0,      18.23,    19.23,    18.24,    17.16,    18.32
      117.0,      18.19,    19.18,    18.19,    17.11,    18.27
      118.0,      18.15,    19.14,    18.15,    17.07,    18.23
      119.0,      18.10,    19.09,    18.10,    17.03,    18.19
      120.0,      18.06,    19.05,    18.06,    16.99,    18.15
      121.0,      18.02,    19.01,    18.01,    16.95,    18.11
      122.0,      17.98,    18.97,    17.97,    16.91,    18.07
      123.0,      17.94,    18.92,    17.93,    16.87,    18.03
      124.0,      17.90,    18.88,    17.89,    16.83,    18.00
      125.0,      17.86,    18.85,    17.84,    16.79,    17.96
      126.0,      17.82,    18.81,    17.80,    16.75,    17.92
      127.0,      17.78,    18.77,    17.76,    16.71,    17.89
      128.0,      17.74,    18.73,    17.72,    16.67,    17.85
      129.0,      17.71,    18.69,    17.68,    16.63,    17.82
      130.0,      17.67,    18.66,    17.64,    16.59,    17.78
      131.0,      17.63,    18.62,    17.60,    16.55,    17.75
      132.0,      17.60,    18.58,    17.57,    16.51,    17.72
      133.0,      17.56,    18.55,    17.53,    16.48,    17.69
      134.0,      17.52,    18.51,    17.49,    16.44,    17.65
      135.0,      17.49,    18.48,    17.45,    16.40,    17.62
      136.0,      17.45,    18.45,    17.42,    16.37,    17.59
      137.0,      17.42,    18.41,    17.38,    16.33,    17.56
      138.0,      17.39,    18.38,    17.34,    16.29,    17.53
      139.0,      17.35,    18.35,    17.31,    16.26,    17.50
      140.0,      17.32,    18.31,    17.27,    16.22,    17.47
      141.0,      17.28,    18.28,    17.23,    16.18,    17.44
      142.0,      17.25,    18.25,    17.20,    16.15,    17.41
      143.0,      17.22,    18.22,    17.16,    16.11,    17.38
      144.0,      17.19,    18.19,    17.13,    16.08,    17.35
      145.0,      17.15,    18.15,    17.09,    16.04,    17.33
      146.0,      17.12,    18.12,    17.06,    16.01,    17.30
      147.0,      17.09,    18.09,    17.03,    15.98,    17.27
      148.0,      17.06,    18.06,    16.99,    15.94,    17.24
      149.0,      17.03,    18.03,    16.96,    15.91,    17.22
      150.0,      17.00,    18.00,    16.92,    15.88,    17.19
      151.0,      16.97,    17.97,    16.89,    15.84,    17.16
      152.0,      16.94,    17.94,    16.86,    15.81,    17.14
      153.0,      16.91,    17.92,    16.83,    15.78,    17.11
      154.0,      16.88,    17.89,    16.79,    15.74,    17.09
      155.0,      16.85,    17.86,    16.76,    15.71,    17.06
      156.0,      16.82,    17.83,    16.73,    15.68,    17.04
      157.0,      16.79,    17.80,    16.70,    15.65,    17.01
      158.0,      16.76,    17.77,    16.66,    15.61,    16.99
      159.0,      16.73,    17.75,    16.63,    15.58,    16.96
      160.0,      16.70,    17.72,    16.60,    15.55,    16.94
      161.0,      16.67,    17.69,    16.57,    15.52,    16.91
      162.0,      16.64,    17.66,    16.54,    15.49,    16.89
      163.0,      16.62,    17.64,    16.51,    15.46,    16.86
      164.0,      16.59,    17.61,    16.48,    15.43,    16.84
      165.0,      16.56,    17.58,    16.44,    15.40,    16.82
      166.0,      16.53,    17.56,    16.41,    15.37,    16.79
      167.0,      16.50,    17.53,    16.38,    15.34,    16.77
      168.0,      16.48,    17.50,    16.35,    15.31,    16.75
      169.0,      16.45,    17.48,    16.32,    15.28,    16.72
      170.0,      16.42,    17.45,    16.29,    15.25,    16.70
      171.0,      16.40,    17.42,    16.26,    15.22,    16.68
      172.0,      16.37,    17.40,    16.23,    15.19,    16.65
      173.0,      16.34,    17.37,    16.20,    15.16,    16.63
      174.0,      16.32,    17.35,    16.17,    15.13,    16.61
      175.0,      16.29,    17.32,    16.14,    15.10,    16.59
      176.0,      16.26,    17.30,    16.11,    15.08,    16.56
      177.0,      16.24,    17.27,    16.08,    15.05,    16.54
      178.0,      16.21,    17.24,    16.05,    15.02,    16.52
      179.0,      16.18,    17.22,    16.02,    14.99,    16.50
      180.0,      16.16,    17.19,    16.00,    14.96,    16.48
      181.0,      16.13,    17.17,    15.97,    14.94,    16.45
      182.0,      16.11,    17.14,    15.94,    14.91,    16.43
      183.0,      16.08,    17.12,    15.91,    14.88,    16.41
      184.0,      16.05,    17.09,    15.88,    14.86,    16.39
      185.0,      16.03,    17.07,    15.85,    14.83,    16.37
      186.0,      16.00,    17.05,    15.82,    14.80,    16.35
      187.0,      15.98,    17.02,    15.79,    14.78,    16.33
      188.0,      15.95,    17.00,    15.76,    14.75,    16.30
      189.0,      15.93,    16.97,    15.74,    14.72,    16.28
      190.0,      15.90,    16.95,    15.71,    14.70,    16.26
      191.0,      15.88,    16.92,    15.68,    14.67,    16.24
      192.0,      15.85,    16.90,    15.65,    14.64,    16.22
      193.0,      15.83,    16.88,    15.62,    14.62,    16.20
      194.0,      15.80,    16.85,    15.60,    14.59,    16.18
      195.0,      15.78,    16.83,    15.57,    14.57,    16.16
      196.0,      15.76,    16.80,    15.54,    14.54,    16.14
      197.0,      15.73,    16.78,    15.51,    14.52,    16.12
      198.0,      15.71,    16.76,    15.48,    14.49,    16.10
      199.0,      15.68,    16.73,    15.46,    14.47,    16.07
      200.0,      15.66,    16.71,    15.43,    14.44,    16.05
      201.0,      15.63,    16.69,    15.40,    14.42,    16.03
      202.0,      15.61,    16.66,    15.37,    14.39,    16.01
      203.0,      15.59,    16.64,    15.35,    14.37,    15.99
      204.0,      15.56,    16.62,    15.32,    14.35,    15.97
      205.0,      15.54,    16.59,    15.29,    14.32,    15.95
      206.0,      15.52,    16.57,    15.26,    14.30,    15.93
      207.0,      15.49,    16.55,    15.24,    14.27,    15.91
      208.0,      15.47,    16.52,    15.21,    14.25,    15.89
      209.0,      15.45,    16.50,    15.18,    14.23,    15.87
      210.0,      15.42,    16.48,    15.16,    14.20,    15.85
      211.0,      15.40,    16.45,    15.13,    14.18,    15.83
      212.0,      15.38,    16.43,    15.10,    14.16,    15.81
      213.0,      15.35,    16.41,    15.08,    14.13,    15.79
      214.0,      15.33,    16.38,    15.05,    14.11,    15.77
      215.0,      15.31,    16.36,    15.02,    14.09,    15.75
      216.0,      15.28,    16.34,    15.00,    14.07,    15.73
      217.0,      15.26,    16.32,    14.97,    14.04,    15.71
      218.0,      15.24,    16.29,    14.94,    14.02,    15.69
      219.0,      15.22,    16.27,    14.92,    14.00,    15.67
      220.0,      15.19,    16.25,    14.89,    13.98,    15.65
      221.0,      15.17,    16.23,    14.86,    13.95,    15.63
      222.0,      15.15,    16.20,    14.84,    13.93,    15.62
      223.0,      15.12,    16.18,    14.81,    13.91,    15.60
      224.0,      15.10,    16.16,    14.79,    13.89,    15.58
      225.0,      15.08,    16.14,    14.76,    13.87,    15.56
      226.0,      15.06,    16.11,    14.73,    13.85,    15.54
      227.0,      15.04,    16.09,    14.71,    13.82,    15.52
      228.0,      15.01,    16.07,    14.68,    13.80,    15.50
      229.0,      14.99,    16.05,    14.66,    13.78,    15.48
      230.0,      14.97,    16.02,    14.63,    13.76,    15.46
      231.0,      14.95,    16.00,    14.60,    13.74,    15.44
      232.0,      14.92,    15.98,    14.58,    13.72,    15.42
      233.0,      14.90,    15.96,    14.55,    13.70,    15.40
      234.0,      14.88,    15.94,    14.53,    13.68,    15.38
      235.0,      14.86,    15.91,    14.50,    13.66,    15.36
      236.0,      14.84,    15.89,    14.48,    13.64,    15.35
      237.0,      14.82,    15.87,    14.45,    13.62,    15.33
      238.0,      14.79,    15.85,    14.42,    13.60,    15.31
      239.0,      14.77,    15.83,    14.40,    13.58,    15.29
      240.0,      14.75,    15.81,    14.37,    13.55,    15.27
      241.0,      14.73,    15.78,    14.35,    13.53,    15.25
      242.0,      14.71,    15.76,    14.32,    13.51,    15.23
      243.0,      14.69,    15.74,    14.30,    13.49,    15.21
      244.0,      14.67,    15.72,    14.27,    13.48,    15.19
      245.0,      14.64,    15.70,    14.25,    13.46,    15.18
      246.0,      14.62,    15.68,    14.22,    13.44,    15.16
      247.0,      14.60,    15.65,    14.20,    13.42,    15.14
      248.0,      14.58,    15.63,    14.17,    13.40,    15.12
      249.0,      14.56,    15.61,    14.15,    13.38,    15.10
      250.0,      14.54,    15.59,    14.12,    13.36,    15.08
      251.0,      14.52,    15.57,    14.10,    13.34,    15.06
      252.0,      14.50,    15.55,    14.07,    13.32,    15.04
      253.0,      14.47,    15.52,    14.05,    13.30,    15.03
      254.0,      14.45,    15.50,    14.02,    13.28,    15.01
      255.0,      14.43,    15.48,    14.00,    13.26,    14.99
      256.0,      14.41,    15.46,    13.97,    13.24,    14.97
      257.0,      14.39,    15.44,    13.95,    13.23,    14.95
      258.0,      14.37,    15.42,    13.93,    13.21,    14.93
      259.0,      14.35,    15.40,    13.90,    13.19,    14.91
      260.0,      14.33,    15.38,    13.88,    13.17,    14.90
      261.0,      14.31,    15.36,    13.85,    13.15,    14.88
      262.0,      14.29,    15.33,    13.83,    13.13,    14.86
      263.0,      14.27,    15.31,    13.80,    13.11,    14.84
      264.0,      14.25,    15.29,    13.78,    13.10,    14.82
      265.0,      14.23,    15.27,    13.76,    13.08,    14.80
      266.0,      14.21,    15.25,    13.73,    13.06,    14.79
      267.0,      14.19,    15.23,    13.71,    13.04,    14.77
      268.0,      14.17,    15.21,    13.68,    13.02,    14.75
      269.0,      14.15,    15.19,    13.66,    13.01,    14.73
      270.0,      14.13,    15.17,    13.64,    12.99,    14.71
      271.0,      14.11,    15.15,    13.61,    12.97,    14.70
      272.0,      14.09,    15.12,    13.59,    12.95,    14.68
      273.0,      14.07,    15.10,    13.56,    12.94,    14.66
      274.0,      14.05,    15.08,    13.54,    12.92,    14.64
      275.0,      14.03,    15.06,    13.52,    12.90,    14.62
      276.0,      14.01,    15.04,    13.49,    12.88,    14.61
      277.0,      13.99,    15.02,    13.47,    12.87,    14.59
      278.0,      13.97,    15.00,    13.44,    12.85,    14.57
      279.0,      13.95,    14.98,    13.42,    12.83,    14.55
      280.0,      13.93,    14.96,    13.40,    12.81,    14.53
      281.0,      13.91,    14.94,    13.37,    12.80,    14.52
      282.0,      13.89,    14.92,    13.35,    12.78,    14.50
      283.0,      13.87,    14.90,    13.33,    12.76,    14.48
      284.0,      13.85,    14.88,    13.30,    12.75,    14.46
      285.0,      13.83,    14.86,    13.28,    12.73,    14.44
      286.0,      13.81,    14.84,    13.26,    12.71,    14.43
      287.0,      13.79,    14.82,    13.23,    12.70,    14.41
      288.0,      13.77,    14.80,    13.21,    12.68,    14.39
      289.0,      13.75,    14.78,    13.19,    12.66,    14.37
      290.0,      13.73,    14.76,    13.16,    12.65,    14.36
      291.0,      13.71,    14.74,    13.14,    12.63,    14.34
      292.0,      13.69,    14.72,    13.12,    12.61,    14.32
      293.0,      13.67,    14.70,    13.10,    12.60,    14.30
      294.0,      13.65,    14.68,    13.07,    12.58,    14.28
      295.0,      13.63,    14.66,    13.05,    12.57,    14.27
      296.0,      13.62,    14.64,    13.03,    12.55,    14.25
      297.0,      13.60,    14.62,    13.00,    12.53,    14.23
      298.0,      13.58,    14.60,    12.98,    12.52,    14.21
      299.0,      13.56,    14.58,    12.96,    12.50,    14.20
      300.0,      13.54,    14.56,    12.94,    12.49,    14.18
      301.0,      13.52,    14.54,    12.91,    12.47,    14.16
      302.0,      13.50,    14.52,    12.89,    12.45,    14.14
      303.0,      13.48,    14.50,    12.87,    12.44,    14.13
      304.0,      13.46,    14.48,    12.85,    12.42,    14.11
      305.0,      13.44,    14.46,    12.82,    12.41,    14.09
      306.0,      13.43,    14.44,    12.80,    12.39,    14.08
      307.0,      13.41,    14.42,    12.78,    12.38,    14.06
      308.0,      13.39,    14.40,    12.76,    12.36,    14.04
      309.0,      13.37,    14.38,    12.73,    12.34,    14.02
      310.0,      13.35,    14.36,    12.71,    12.33,    14.01
