Radius (km), Mean (m/s), NE (m/s), SE (m/s), SW (m/s), NW (m/s)
        0.0,       0.00,     0.00,     0.00,     0.00,     0.00
        1.0,       2.20,     2.18,     2.20,     2.23,     2.18
        2.0,       3.89,     3.87,     3.90,     3.92,     3.87
        3.0,       5.44,     5.43,     5.44,     5.45,     5.43
        4.0,       6.90,     6.90,     6.90,     6.89,     6.90
        5.0,       8.29,     8.31,     8.29,     8.26,     8.31
        6.0,       9.64,     9.68,     9.63,     9.58,     9.68
        7.0,      10.95,    11.00,    10.93,    10.85,    11.00
        8.0,      12.22,    12.30,    12.20,    12.10,    12.30
        9.0,      13.47,    13.56,    13.44,    13.31,    13.56
       10.0,      14.70,    14.81,    14.66,    14.50,    14.81
       11.0,      15.90,    16.03,    15.86,    15.67,    16.03
       12.0,      17.09,    17.25,    17.03,    16.83,    17.26
       13.0,      18.30,    18.49,    18.21,    17.99,    18.51
       14.0,      19.56,    19.79,    19.41,    19.20,    19.84
       15.0,      20.89,    21.17,    20.66,    20.48,    21.26
       16.0,      22.33,    22.66,    22.01,    21.86,    22.80
       17.0,      23.86,    24.25,    23.44,    23.32,    24.44
       18.0,      25.46,    25.90,    24.96,    24.86,    26.13
       19.0,      27.08,    27.55,    26.53,    26.42,    27.83
       20.0,      28.65,    29.15,    28.08,    27.93,    29.45
       21.0,      30.11,    30.62,    29.54,    29.33,    30.92
       22.0,      31.38,    31.90,    30.86,    30.57,    32.19
       23.0,      32.42,    32.94,    31.98,    31.58,    33.20
       24.0,      33.22,    33.73,    32.84,    32.35,    33.94
       25.0,      33.75,    34.26,    33.46,    32.88,    34.42
       26.0,      34.06,    34.57,    33.82,    33.18,    34.67
       27.0,      34.17,    34.69,    33.98,    33.29,    34.73
       28.0,      34.14,    34.68,    33.97,    33.26,    34.66
       29.0,      34.02,    34.58,    33.85,    33.15,    34.52
       30.0,      33.86,    34.45,    33.66,    32.99,    34.34
       31.0,      33.69,    34.31,    33.46,    32.82,    34.16
       32.0,      33.52,    34.18,    33.26,    32.66,    33.98
       33.0,      33.36,    34.05,    33.07,    32.51,    33.81
       34.0,      33.21,    33.93,    32.90,    32.36,    33.65
       35.0,      33.06,    33.81,    32.73,    32.22,    33.49
       36.0,      32.91,    33.69,    32.56,    32.07,    33.33
       37.0,      32.77,    33.57,    32.40,    31.93,    33.17
       38.0,      32.62,    33.46,    32.24,    31.79,    33.01
       39.0,      32.48,    33.34,    32.08,    31.65,    32.85
       40.0,      32.34,    33.22,    31.92,    31.51,    32.69
       41.0,      32.19,    33.11,    31.76,    31.37,    32.54
       42.0,      32.05,    32.99,    31.61,    31.23,    32.38
       43.0,      31.91,    32.87,    31.45,    31.10,    32.23
       44.0,      31.77,    32.76,    31.30,    30.96,    32.08
       45.0,      31.64,    32.64,    31.15,    30.82,    31.93
       46.0,      31.50,    32.53,    31.00,    30.69,    31.78
       47.0,      31.36,    32.42,    30.85,    30.56,    31.63
       48.0,      31.23,    32.31,    30.71,    30.42,    31.48
       49.0,      31.10,    32.19,    30.56,    30.29,    31.34
       50.0,      30.96,    32.08,    30.42,    30.16,    31.19
       51.0,      30.83,    31.97,    30.28,    30.03,    31.05
       52.0,      30.70,    31.86,    30.14,    29.90,    30.91
       53.0,      30.57,    31.75,    30.00,    29.77,    30.76
       54.0,      30.44,    31.64,    29.86,    29.64,    30.62
       55.0,      30.31,    31.53,    29.73,    29.51,    30.48
       56.0,      30.19,    31.42,    29.59,    29.38,    30.34
       57.0,      30.06,    31.31,    29.46,    29.26,    30.21
       58.0,      29.93,    31.21,    29.33,    29.13,    30.07
       59.0,      29.81,    31.10,    29.20,    29.01,    29.94
       60.0,      29.69,    30.99,    29.07,    28.88,    29.80
       61.0,      29.56,    30.88,    28.94,    28.76,    29.67
       62.0,      29.44,    30.78,    28.81,    28.64,    29.53
       63.0,      29.32,    30.67,    28.68,    28.52,    29.40
       64.0,      29.20,    30.57,    28.56,    28.40,    29.27
       65.0,      29.08,    30.46,    28.44,    28.28,    29.14
       66.0,      28.96,    30.36,    28.31,    28.16,    29.01
       67.0,      28.84,    30.26,    28.19,    28.04,    28.89
       68.0,      28.73,    30.15,    28.07,    27.92,    28.76
       69.0,      28.61,    30.05,    27.95,    27.80,    28.63
       70.0,      28.49,    29.95,    27.83,    27.68,    28.51
       71.0,      28.38,    29.85,    27.71,    27.57,    28.39
       72.0,      28.26,    29.75,    27.60,    27.45,    28.26
       73.0,      28.15,    29.65,    27.48,    27.34,    28.14
       74.0,      28.04,    29.55,    27.36,    27.22,    28.02
       75.0,      27.93,    29.45,    27.25,    27.11,    27.90
       76.0,      27.82,    29.35,    27.14,    27.00,    27.78
       77.0,      27.70,    29.25,    27.02,    26.89,    27.66
       78.0,      27.59,    29.15,    26.91,    26.77,    27.54
       79.0,      27.49,    29.05,    26.80,    26.66,    27.43
       80.0,      27.38,    28.95,    26.69,    26.55,    27.31
       81.0,      27.27,    28.86,    26.58,    26.44,    27.20
       82.0,      27.16,    28.76,    26.47,    26.34,    27.08
       83.0,      27.06,    28.66,    26.37,    26.23,    26.97
       84.0,      26.95,    28.57,    26.26,    26.12,    26.86
       85.0,      26.85,    28.47,    26.15,    26.01,    26.74
       86.0,      26.74,    28.38,    26.05,    25.91,    26.63
       87.0,      26.64,    28.28,    25.95,    25.80,    26.52
       88.0,      26.53,    28.19,    25.84,    25.70,    26.41
       89.0,      26.43,    28.09,    25.74,    25.59,    26.31
       90.0,      26.33,    28.00,    25.64,    25.49,    26.20
       91.0,      26.23,    27.91,    25.53,    25.38,    26.09
       92.0,      26.13,    27.82,    25.43,    25.28,    25.98
       93.0,      26.03,    27.72,    25.33,    25.18,    25.88
       94.0,      25.93,    27.63,    25.23,    25.08,    25.77
       95.0,      25.83,    27.54,    25.14,    24.98,    25.67
       96.0,      25.73,    27.45,    25.04,    24.88,    25.57
       97.0,      25.64,    27.36,    24.94,    24.78,    25.46
       98.0,      25.54,    27.27,    24.84,    24.68,    25.36
       99.0,      25.44,    27.18,    24.75,    24.58,    25.26
      100.0,      25.35,    27.09,    24.65,    24.48,    25.16
      101.0,      25.25,    27.00,    24.56,    24.38,    25.06
      102.0,      25.16,    26.91,    24.46,    24.29,    24.96
      103.0,      25.06,    26.82,    24.37,    24.19,    24.87
      104.0,      24.97,    26.74,    24.28,    24.09,    24.77
      105.0,      24.88,    26.65,    24.18,    24.00,    24.67
      106.0,      24.78,    26.56,    24.09,    23.90,    24.58
      107.0,      24.69,    26.48,    24.00,    23.81,    24.48
      108.0,      24.60,    26.39,    23.91,    23.72,    24.39
      109.0,      24.51,    26.30,    23.82,    23.62,    24.29
      110.0,      24.42,    26.22,    23.73,    23.53,    24.20
      111.0,      24.33,    26.13,    23.64,    23.44,    24.11
      112.0,      24.24,    26.05,    23.55,    23.35,    24.01
      113.0,      24.15,    25.96,    23.46,    23.26,    23.92
      114.0,      24.06,    25.88,    23.37,    23.17,    23.83
      115.0,      23.98,    25.80,    23.29,    23.08,    23.74
      116.0,      23.89,    25.71,    23.20,    22.99,    23.65
      117.0,      23.80,    25.63,    23.11,    22.90,    23.56
      118.0,      23.72,    25.55,    23.03,    22.81,    23.48
      119.0,      23.63,    25.47,    22.94,    22.72,    23.39
      120.0,      23.54,    25.38,    22.86,    22.63,    23.30
      121.0,      23.46,    25.30,    22.77,    22.55,    23.22
      122.0,      23.38,    25.22,    22.69,    22.46,    23.13
      123.0,      23.29,    25.14,    22.60,    22.38,    23.05
      124.0,      23.21,    25.06,    22.52,    22.29,    22.96
      125.0,      23.13,    24.98,    22.44,    22.21,    22.88
      126.0,      23.04,    24.90,    22.36,    22.12,    22.79
      127.0,      22.96,    24.82,    22.27,    22.04,    22.71
      128.0,      22.88,    24.74,    22.19,    21.95,    22.63
      129.0,      22.80,    24.67,    22.11,    21.87,    22.55
      130.0,      22.72,    24.59,    22.03,    21.79,    22.47
      131.0,      22.64,    24.51,    21.95,    21.71,    22.39
      132.0,      22.56,    24.43,    21.87,    21.62,    22.31
      133.0,      22.48,    24.35,    21.79,    21.54,    22.23
      134.0,      22.40,    24.28,    21.71,    21.46,    22.15
      135.0,      22.32,    24.20,    21.63,    21.38,    22.07
      136.0,      22.24,    24.12,    21.56,    21.30,    21.99
      137.0,      22.17,    24.05,    21.48,    21.22,    21.92
      138.0,      22.09,    23.97,    21.40,    21.14,    21.84
      139.0,      22.01,    23.90,    21.32,    21.07,    21.76
      140.0,      21.94,    23.82,    21.25,    20.99,    21.69
      141.0,      21.86,    23.75,    21.17,    20.91,    21.61
      142.0,      21.78,    23.67,    21.09,    20.83,    21.54
      143.0,      21.71,    23.60,    21.02,    20.76,    21.46
      144.0,      21.64,    23.53,    20.94,    20.68,    21.39
      145.0,      21.56,    23.45,    20.87,    20.60,    21.32
      146.0,      21.49,    23.38,    20.79,    20.53,    21.24
      147.0,      21.41,    23.31,    20.72,    20.45,    21.17
      148.0,      21.34,    23.24,    20.65,    20.38,    21.10
      149.0,      21.27,    23.16,    20.57,    20.30,    21.03
      150.0,      21.20,    23.09,    20.50,    20.23,    20.96
      151.0,      21.12,    23.02,    20.43,    20.16,    20.89
      152.0,      21.05,    22.95,    20.35,    20.08,    20.82
      153.0,      20.98,    22.88,    20.28,    20.01,    20.75
      154.0,      20.91,    22.81,    20.21,    19.94,    20.68
      155.0,      20.84,    22.74,    20.14,    19.87,    20.61
      156.0,      20.77,    22.67,    20.07,    19.80,    20.55
      157.0,      20.70,    22.60,    20.00,    19.73,    20.48
      158.0,      20.63,    22.53,    19.93,    19.65,    20.41
      159.0,      20.56,    22.46,    19.86,    19.58,    20.35
      160.0,      20.49,    22.39,    19.79,    19.51,    20.28
      161.0,      20.42,    22.32,    19.72,    19.45,    20.21
      162.0,      20.36,    22.25,    19.65,    19.38,    20.15
      163.0,      20.29,    22.19,    19.58,    19.31,    20.08
      164.0,      20.22,    22.12,    19.51,    19.24,    20.02
      165.0,      20.16,    22.05,    19.44,    19.17,    19.96
      166.0,      20.09,    21.98,    19.37,    19.10,    19.89
      167.0,      20.02,    21.92,    19.31,    19.04,    19.83
      168.0,      19.96,    21.85,    19.24,    18.97,    19.77
      169.0,      19.89,    21.79,    19.17,    18.90,    19.71
      170.0,      19.83,    21.72,    19.10,    18.84,    19.64
      171.0,      19.76,    21.65,    19.04,    18.77,    19.58
      172.0,      19.70,    21.59,    18.97,    18.71,    19.52
      173.0,      19.63,    21.52,    18.90,    18.64,    19.46
      174.0,      19.57,    21.46,    18.84,    18.58,    19.40
      175.0,      19.51,    21.40,    18.77,    18.51,    19.34
      176.0,      19.44,    21.33,    18.71,    18.45,    19.28
      177.0,      19.38,    21.27,    18.64,    18.38,    19.22
      178.0,      19.32,    21.20,    18.58,    18.32,    19.16
      179.0,      19.25,    21.14,    18.51,    18.26,    19.11
      180.0,      19.19,    21.08,    18.45,    18.20,    19.05
      181.0,      19.13,    21.01,    18.38,    18.13,    18.99
      182.0,      19.07,    20.95,    18.32,    18.07,    18.93
      183.0,      19.01,    20.89,    18.26,    18.01,    18.88
      184.0,      18.95,    20.83,    18.19,    17.95,    18.82
      185.0,      18.89,    20.77,    18.13,    17.89,    18.77
      186.0,      18.83,    20.70,    18.07,    17.83,    18.71
      187.0,      18.77,    20.64,    18.01,    17.77,    18.65
      188.0,      18.71,    20.58,    17.94,    17.71,    18.60
      189.0,      18.65,    20.52,    17.88,    17.65,    18.55
      190.0,      18.59,    20.46,    17.82,    17.59,    18.49
      191.0,      18.53,    20.40,    17.76,    17.53,    18.44
      192.0,      18.47,    20.34,    17.70,    17.47,    18.38
      193.0,      18.41,    20.28,    17.63,    17.41,    18.33
      194.0,      18.36,    20.22,    17.57,    17.35,    18.28
      195.0,      18.30,    20.16,    17.51,    17.29,    18.23
      196.0,      18.24,    20.10,    17.45,    17.24,    18.17
      197.0,      18.18,    20.04,    17.39,    17.18,    18.12
      198.0,      18.13,    19.99,    17.33,    17.12,    18.07
      199.0,      18.07,    19.93,    17.27,    17.07,    18.02
      200.0,      18.02,    19.87,    17.21,    17.01,    17.97
      201.0,      17.96,    19.81,    17.15,    16.95,    17.92
      202.0,      17.90,    19.75,    17.10,    16.90,    17.87
      203.0,      17.85,    19.70,    17.04,    16.84,    17.82
      204.0,      17.79,    19.64,    16.98,    16.79,    17.77
      205.0,      17.74,    19.58,    16.92,    16.73,    17.72
      206.0,      17.68,    19.53,    16.86,    16.68,    17.67
      207.0,      17.63,    19.47,    16.80,    16.62,    17.62
      208.0,      17.58,    19.41,    16.75,    16.57,    17.57
      209.0,      17.52,    19.36,    16.69,    16.52,    17.53
      210.0,      17.47,    19.30,    16.63,    16.46,    17.48
      211.0,      17.42,    19.25,    16.57,    16.41,    17.43
      212.0,      17.36,    19.19,    16.52,    16.36,    17.38
      213.0,      17.31,    19.14,    16.46,    16.30,    17.34
      214.0,      17.26,    19.08,    16.40,    16.25,    17.29
      215.0,      17.21,    19.03,    16.35,    16.20,    17.24
      216.0,      17.15,    18.97,    16.29,    16.15,    17.20
      217.0,      17.10,    18.92,    16.24,    16.10,    17.15
      218.0,      17.05,    18.87,    16.18,    16.05,    17.11
      219.0,      17.00,    18.81,    16.13,    15.99,    17.06
      220.0,      16.95,    18.76,    16.07,    15.94,    17.02
      221.0,      16.90,    18.71,    16.02,    15.89,    16.97
      222.0,      16.85,    18.65,    15.96,    15.84,    16.93
      223.0,      16.80,    18.60,    15.91,    15.79,    16.88
      224.0,      16.75,    18.55,    15.85,    15.74,    16.84
      225.0,      16.70,    18.50,    15.80,    15.69,    16.79
      226.0,      16.65,    18.44,    15.74,    15.65,    16.75
      227.0,      16.60,    18.39,    15.69,    15.60,    16.71
      228.0,      16.55,    18.34,    15.64,    15.55,    16.67
      229.0,      16.50,    18.29,    15.58,    15.50,    16.62
      230.0,      16.45,    18.24,    15.53,    15.45,    16.58
      231.0,      16.40,    18.19,    15.48,    15.40,    16.54
      232.0,      16.35,    18.14,    15.42,    15.36,    16.50
      233.0,      16.31,    18.09,    15.37,    15.31,    16.46
      234.0,      16.26,    18.04,    15.32,    15.26,    16.41
      235.0,      16.21,    17.98,    15.27,    15.21,    16.37
      236.0,      16.16,    17.93,    15.22,    15.17,    16.33
      237.0,      16.12,    17.89,    15.16,    15.12,    16.29
      238.0,      16.07,    17.84,    15.11,    15.07,    16.25
      239.0,      16.02,    17.79,    15.06,    15.03,    16.21
      240.0,      15.97,    17.74,    15.01,    14.98,    16.17
      241.0,      15.93,    17.69,    14.96,    14.94,    16.13
      242.0,      15.88,    17.64,    14.91,    14.89,    16.09
      243.0,      15.84,    17.59,    14.86,    14.85,    16.05
      244.0,      15.79,    17.54,    14.81,    14.80,    16.01
      245.0,      15.75,    17.49,    14.75,    14.76,    15.98
      246.0,      15.70,    17.45,    14.70,    14.71,    15.94
      247.0,      15.65,    17.40,    14.65,    14.67,    15.90
      248.0,      15.61,    17.35,    14.60,    14.62,    15.86
      249.0,      15.57,    17.30,    14.56,    14.58,    15.82
      250.0,      15.52,    17.26,    14.51,    14.54,    15.78
      251.0,      15.48,    17.21,    14.46,    14.49,    15.75
      252.0,      15.43,    17.16,    14.41,    14.45,    15.71
      253.0,      15.39,    17.12,    14.36,    14.41,    15.67
      254.0,      15.34,    17.07,    14.31,    14.36,    15.64
      255.0,      15.30,    17.02,    14.26,    14.32,    15.60
      256.0,      15.26,    16.98,    14.21,    14.28,    15.56
      257.0,      15.21,    16.93,    14.16,    14.24,    15.53
      258.0,      15.17,    16.89,    14.12,    14.20,    15.49
      259.0,      15.13,    16.84,    14.07,    14.15,    15.46
      260.0,      15.09,    16.79,    14.02,    14.11,    15.42
      261.0,      15.04,    16.75,    13.97,    14.07,    15.38
      262.0,      15.00,    16.70,    13.93,    14.03,    15.35
      263.0,      14.96,    16.66,    13.88,    13.99,    15.31
      264.0,      14.92,    16.62,    13.83,    13.95,    15.28
      265.0,      14.88,    16.57,    13.78,    13.91,    15.24
      266.0,      14.84,    16.53,    13.74,    13.87,    15.21
      267.0,      14.79,    16.48,    13.69,    13.83,    15.18
      268.0,      14.75,    16.44,    13.64,    13.79,    15.14
      269.0,      14.71,    16.39,    13.60,    13.75,    15.11
      270.0,      14.67,    16.35,    13.55,    13.71,    15.07
      271.0,      14.63,    16.31,    13.51,    13.67,    15.04
      272.0,      14.59,    16.26,    13.46,    13.63,    15.01
      273.0,      14.55,    16.22,    13.41,    13.59,    14.97
      274.0,      14.51,    16.18,    13.37,    13.55,    14.94
      275.0,      14.47,    16.14,    13.32,    13.51,    14.91
      276.0,      14.43,    16.09,    13.28,    13.48,    14.88
      277.0,      14.39,    16.05,    13.23,    13.44,    14.84
      278.0,      14.35,    16.01,    13.19,    13.40,    14.81
      279.0,      14.31,    15.97,    13.14,    13.36,    14.78
      280.0,      14.27,    15.93,    13.10,    13.32,    14.75
      281.0,      14.23,    15.88,    13.05,    13.29,    14.72
      282.0,      14.20,    15.84,    13.01,    13.25,    14.68
      283.0,      14.16,    15.80,    12.97,    13.21,    14.65
      284.0,      14.12,    15.76,    12.92,    13.17,    14.62
      285.0,      14.08,    15.72,    12.88,    13.14,    14.59
      286.0,      14.04,    15.68,    12.83,    13.10,    14.56
      287.0,      14.01,    15.64,    12.79,    13.06,    14.53
      288.0,      13.97,    15.60,    12.75,    13.03,    14.50
      289.0,      13.93,    15.56,    12.70,    12.99,    14.47
      290.0,      13.89,    15.52,    12.66,    12.96,    14.44
      291.0,      13.86,    15.48,    12.62,    12.92,    14.41
      292.0,      13.82,    15.44,    12.58,    12.89,    14.38
      293.0,      13.78,    15.40,    12.53,    12.85,    14.35
      294.0,      13.74,    15.36,    12.49,    12.81,    14.32
      295.0,      13.71,    15.32,    12.45,    12.78,    14.29
      296.0,      13.67,    15.28,    12.41,    12.74,    14.26
      297.0,      13.64,    15.24,    12.36,    12.71,    14.23
      298.0,      13.60,    15.20,    12.32,    12.68,    14.20
      299.0,      13.56,    15.16,    12.28,    12.64,    14.17
      300.0,      13.53,    15.12,    12.24,    12.61,    14.14
      301.0,      13.49,    15.08,    12.20,    12.57,    14.11
      302.0,      13.46,    15.04,    12.16,    12.54,    14.09
      303.0,      13.42,    15.01,    12.12,    12.50,    14.06
      304.0,      13.39,    14.97,    12.07,    12.47,    14.03
      305.0,      13.35,    14.93,    12.03,    12.44,    14.00
      306.0,      13.32,    14.89,    11.99,    12.40,    13.97
      307.0,      13.28,    14.85,    11.95,    12.37,    13.94
      308.0,      13.25,    14.82,    11.91,    12.34,    13.92
      309.0,      13.21,    14.78,    11.87,    12.30,    13.89
      310.0,      13.18,    14.74,    11.83,    12.27,    13.86
