Radius (km), Mean (m/s), NE (m/s), SE (m/s), SW (m/s), NW (m/s)
        0.0,       0.00,     0.00,     0.00,     0.00,     0.00
        1.0,       1.99,     1.79,     2.03,     2.35,     1.79
        2.0,       3.59,     3.43,     3.68,     3.83,     3.43
        3.0,       5.09,     5.03,     5.20,     5.08,     5.03
        4.0,       6.52,     6.60,     6.65,     6.22,     6.60
        5.0,       7.90,     8.14,     8.05,     7.27,     8.14
        6.0,       9.25,     9.66,     9.41,     8.26,     9.66
        7.0,      10.57,    11.17,    10.74,     9.20,    11.17
        8.0,      11.87,    12.67,    12.04,    10.11,    12.67
        9.0,      13.15,    14.15,    13.32,    10.98,    14.15
       10.0,      14.41,    15.63,    14.57,    11.82,    15.63
       11.0,      15.66,    17.10,    15.81,    12.64,    17.10
       12.0,      16.92,    18.59,    17.03,    13.45,    18.59
       13.0,      18.22,    20.16,    18.27,    14.27,    20.16
       14.0,      19.62,    21.88,    19.56,    15.14,    21.88
       15.0,      21.16,    23.81,    20.96,    16.07,    23.81
       16.0,      22.88,    25.97,    22.51,    17.06,    25.97
       17.0,      24.74,    28.33,    24.20,    18.10,    28.34
       18.0,      26.71,    30.83,    26.01,    19.16,    30.84
       19.0,      28.69,    33.34,    27.88,    20.21,    33.36
       20.0,      30.59,    35.72,    29.71,    21.19,    35.75
       21.0,      32.29,    37.83,    31.40,    22.07,    37.87
       22.0,      33.72,    39.57,    32.87,    22.82,    39.61
       23.0,      34.79,    40.84,    34.02,    23.40,    40.88
       24.0,      35.48,    41.63,    34.83,    23.82,    41.67
       25.0,      35.81,    41.93,    35.27,    24.08,    41.97
       26.0,      35.81,    41.83,    35.38,    24.20,    41.85
       27.0,      35.56,    41.40,    35.20,    24.22,    41.41
       28.0,      35.12,    40.75,    34.82,    24.16,    40.74
       29.0,      34.58,    39.98,    34.31,    24.07,    39.96
       30.0,      34.00,    39.17,    33.73,    23.96,    39.13
       31.0,      33.42,    38.37,    33.15,    23.84,    38.32
       32.0,      32.87,    37.62,    32.59,    23.74,    37.55
       33.0,      32.36,    36.91,    32.07,    23.63,    36.83
       34.0,      31.87,    36.23,    31.57,    23.53,    36.13
       35.0,      31.39,    35.58,    31.10,    23.43,    35.47
       36.0,      30.94,    34.95,    30.65,    23.33,    34.83
       37.0,      30.50,    34.34,    30.21,    23.23,    34.21
       38.0,      30.08,    33.76,    29.79,    23.13,    33.62
       39.0,      29.67,    33.20,    29.38,    23.03,    33.05
       40.0,      29.27,    32.67,    28.99,    22.94,    32.50
       41.0,      28.89,    32.15,    28.61,    22.84,    31.97
       42.0,      28.53,    31.65,    28.24,    22.75,    31.46
       43.0,      28.17,    31.17,    27.89,    22.65,    30.98
       44.0,      27.83,    30.71,    27.55,    22.56,    30.50
       45.0,      27.50,    30.26,    27.22,    22.47,    30.05
       46.0,      27.18,    29.83,    26.90,    22.38,    29.61
       47.0,      26.87,    29.42,    26.60,    22.29,    29.19
       48.0,      26.58,    29.02,    26.30,    22.20,    28.79
       49.0,      26.29,    28.64,    26.01,    22.11,    28.40
       50.0,      26.01,    28.27,    25.74,    22.03,    28.02
       51.0,      25.75,    27.92,    25.47,    21.94,    27.66
       52.0,      25.49,    27.57,    25.21,    21.85,    27.31
       53.0,      25.24,    27.24,    24.96,    21.77,    26.98
       54.0,      25.00,    26.93,    24.72,    21.69,    26.65
       55.0,      24.76,    26.62,    24.48,    21.60,    26.34
       56.0,      24.54,    26.32,    24.26,    21.52,    26.04
       57.0,      24.32,    26.04,    24.04,    21.44,    25.75
       58.0,      24.11,    25.77,    23.82,    21.36,    25.47
       59.0,      23.90,    25.50,    23.62,    21.28,    25.21
       60.0,      23.70,    25.25,    23.42,    21.20,    24.95
       61.0,      23.51,    25.00,    23.23,    21.12,    24.70
       62.0,      23.33,    24.76,    23.04,    21.04,    24.45
       63.0,      23.15,    24.53,    22.86,    20.97,    24.22
       64.0,      22.97,    24.31,    22.68,    20.89,    24.00
       65.0,      22.80,    24.10,    22.51,    20.82,    23.78
       66.0,      22.64,    23.89,    22.35,    20.74,    23.57
       67.0,      22.48,    23.70,    22.19,    20.67,    23.37
       68.0,      22.33,    23.50,    22.03,    20.59,    23.18
       69.0,      22.18,    23.32,    21.88,    20.52,    22.99
       70.0,      22.03,    23.14,    21.73,    20.45,    22.81
       71.0,      21.89,    22.97,    21.59,    20.38,    22.63
       72.0,      21.76,    22.80,    21.45,    20.31,    22.46
       73.0,      21.62,    22.64,    21.32,    20.24,    22.30
       74.0,      21.50,    22.49,    21.19,    20.17,    22.14
       75.0,      21.37,    22.34,    21.06,    20.10,    21.99
       76.0,      21.25,    22.19,    20.94,    20.03,    21.84
       77.0,      21.13,    22.05,    20.82,    19.96,    21.70
       78.0,      21.02,    21.91,    20.70,    19.90,    21.56
       79.0,      20.91,    21.78,    20.59,    19.83,    21.43
       80.0,      20.80,    21.65,    20.48,    19.76,    21.30
       81.0,      20.69,    21.53,    20.37,    19.70,    21.18
       82.0,      20.59,    21.41,    20.26,    19.63,    21.06
       83.0,      20.49,    21.30,    20.16,    19.57,    20.94
       84.0,      20.39,    21.18,    20.06,    19.51,    20.83
       85.0,      20.30,    21.08,    19.96,    19.44,    20.72
       86.0,      20.21,    20.97,    19.86,    19.38,    20.61
       87.0,      20.12,    20.87,    19.77,    19.32,    20.51
       88.0,      20.03,    20.77,    19.68,    19.26,    20.41
       89.0,      19.94,    20.67,    19.59,    19.20,    20.31
       90.0,      19.86,    20.58,    19.50,    19.14,    20.22
       91.0,      19.78,    20.49,    19.42,    19.08,    20.13
       92.0,      19.70,    20.40,    19.34,    19.02,    20.04
       93.0,      19.62,    20.32,    19.25,    18.96,    19.95
       94.0,      19.55,    20.24,    19.17,    18.90,    19.87
       95.0,      19.47,    20.16,    19.10,    18.85,    19.79
       96.0,      19.40,    20.08,    19.02,    18.79,    19.71
       97.0,      19.33,    20.00,    18.95,    18.73,    19.64
       98.0,      19.26,    19.93,    18.87,    18.68,    19.56
       99.0,      19.19,    19.86,    18.80,    18.62,    19.49
      100.0,      19.13,    19.79,    18.73,    18.57,    19.42
      101.0,      19.06,    19.72,    18.66,    18.51,    19.35
      102.0,      19.00,    19.65,    18.59,    18.46,    19.29
      103.0,      18.94,    19.59,    18.53,    18.40,    19.22
      104.0,      18.87,    19.53,    18.46,    18.35,    19.16
      105.0,      18.81,    19.47,    18.40,    18.30,    19.10
      106.0,      18.76,    19.41,    18.33,    18.25,    19.04
      107.0,      18.70,    19.35,    18.27,    18.19,    18.98
      108.0,      18.64,    19.29,    18.21,    18.14,    18.92
      109.0,      18.59,    19.24,    18.15,    18.09,    18.87
      110.0,      18.53,    19.18,    18.09,    18.04,    18.82
      111.0,      18.48,    19.13,    18.03,    17.99,    18.76
      112.0,      18.43,    19.08,    17.97,    17.94,    18.71
      113.0,      18.37,    19.03,    17.92,    17.89,    18.66
      114.0,      18.32,    18.98,    17.86,    17.84,    18.61
      115.0,      18.27,    18.93,    17.80,    17.80,    18.56
      116.0,      18.22,    18.88,    17.75,    17.75,    18.52
      117.0,      18.18,    18.84,    17.70,    17.70,    18.47
      118.0,      18.13,    18.79,    17.64,    17.65,    18.43
      119.0,      18.08,    18.75,    17.59,    17.61,    18.38
      120.0,      18.04,    18.70,    17.54,    17.56,    18.34
      121.0,      17.99,    18.66,    17.49,    17.51,    18.30
      122.0,      17.95,    18.62,    17.44,    17.47,    18.25
      123.0,      17.90,    18.58,    17.39,    17.42,    18.21
      124.0,      17.86,    18.54,    17.34,    17.38,    18.17
      125.0,      17.82,    18.50,    17.29,    17.33,    18.14
      126.0,      17.77,    18.46,    17.24,    17.29,    18.10
      127.0,      17.73,    18.42,    17.20,    17.25,    18.06
      128.0,      17.69,    18.38,    17.15,    17.20,    18.02
      129.0,      17.65,    18.35,    17.10,    17.16,    17.99
      130.0,      17.61,    18.31,    17.06,    17.12,    17.95
      131.0,      17.57,    18.28,    17.01,    17.07,    17.91
      132.0,      17.53,    18.24,    16.97,    17.03,    17.88
      133.0,      17.49,    18.21,    16.92,    16.99,    17.85
      134.0,      17.45,    18.17,    16.88,    16.95,    17.81
      135.0,      17.41,    18.14,    16.83,    16.91,    17.78
      136.0,      17.38,    18.11,    16.79,    16.87,    17.75
      137.0,      17.34,    18.07,    16.75,    16.83,    17.71
      138.0,      17.30,    18.04,    16.70,    16.79,    17.68
      139.0,      17.27,    18.01,    16.66,    16.75,    17.65
      140.0,      17.23,    17.98,    16.62,    16.71,    17.62
      141.0,      17.20,    17.95,    16.58,    16.67,    17.59
      142.0,      17.16,    17.92,    16.53,    16.63,    17.56
      143.0,      17.13,    17.89,    16.49,    16.59,    17.53
      144.0,      17.09,    17.86,    16.45,    16.55,    17.50
      145.0,      17.06,    17.83,    16.41,    16.51,    17.47
      146.0,      17.02,    17.80,    16.37,    16.48,    17.44
      147.0,      16.99,    17.77,    16.33,    16.44,    17.42
      148.0,      16.96,    17.74,    16.29,    16.40,    17.39
      149.0,      16.92,    17.71,    16.25,    16.36,    17.36
      150.0,      16.89,    17.68,    16.21,    16.33,    17.33
      151.0,      16.86,    17.66,    16.17,    16.29,    17.31
      152.0,      16.82,    17.63,    16.14,    16.26,    17.28
      153.0,      16.79,    17.60,    16.10,    16.22,    17.25
      154.0,      16.76,    17.57,    16.06,    16.18,    17.23
      155.0,      16.73,    17.55,    16.02,    16.15,    17.20
      156.0,      16.70,    17.52,    15.98,    16.11,    17.17
      157.0,      16.67,    17.50,    15.94,    16.08,    17.15
      158.0,      16.64,    17.47,    15.91,    16.04,    17.12
      159.0,      16.61,    17.44,    15.87,    16.01,    17.10
      160.0,      16.57,    17.42,    15.83,    15.98,    17.07
      161.0,      16.54,    17.39,    15.80,    15.94,    17.05
      162.0,      16.51,    17.37,    15.76,    15.91,    17.02
      163.0,      16.48,    17.34,    15.72,    15.88,    17.00
      164.0,      16.45,    17.32,    15.69,    15.84,    16.97
      165.0,      16.43,    17.29,    15.65,    15.81,    16.95
      166.0,      16.40,    17.27,    15.61,    15.78,    16.93
      167.0,      16.37,    17.24,    15.58,    15.74,    16.90
      168.0,      16.34,    17.22,    15.54,    15.71,    16.88
      169.0,      16.31,    17.19,    15.51,    15.68,    16.85
      170.0,      16.28,    17.17,    15.47,    15.65,    16.83
      171.0,      16.25,    17.15,    15.44,    15.62,    16.81
      172.0,      16.22,    17.12,    15.40,    15.59,    16.79
      173.0,      16.20,    17.10,    15.37,    15.55,    16.76
      174.0,      16.17,    17.08,    15.33,    15.52,    16.74
      175.0,      16.14,    17.05,    15.30,    15.49,    16.72
      176.0,      16.11,    17.03,    15.26,    15.46,    16.69
      177.0,      16.08,    17.01,    15.23,    15.43,    16.67
      178.0,      16.06,    16.98,    15.19,    15.40,    16.65
      179.0,      16.03,    16.96,    15.16,    15.37,    16.63
      180.0,      16.00,    16.94,    15.12,    15.34,    16.60
      181.0,      15.98,    16.91,    15.09,    15.31,    16.58
      182.0,      15.95,    16.89,    15.06,    15.28,    16.56
      183.0,      15.92,    16.87,    15.02,    15.25,    16.54
      184.0,      15.89,    16.85,    14.99,    15.23,    16.52
      185.0,      15.87,    16.83,    14.96,    15.20,    16.50
      186.0,      15.84,    16.80,    14.92,    15.17,    16.47
      187.0,      15.82,    16.78,    14.89,    15.14,    16.45
      188.0,      15.79,    16.76,    14.86,    15.11,    16.43
      189.0,      15.76,    16.74,    14.82,    15.08,    16.41
      190.0,      15.74,    16.71,    14.79,    15.06,    16.39
      191.0,      15.71,    16.69,    14.76,    15.03,    16.37
      192.0,      15.69,    16.67,    14.72,    15.00,    16.35
      193.0,      15.66,    16.65,    14.69,    14.97,    16.33
      194.0,      15.63,    16.63,    14.66,    14.95,    16.30
      195.0,      15.61,    16.61,    14.63,    14.92,    16.28
      196.0,      15.58,    16.58,    14.59,    14.89,    16.26
      197.0,      15.56,    16.56,    14.56,    14.87,    16.24
      198.0,      15.53,    16.54,    14.53,    14.84,    16.22
      199.0,      15.51,    16.52,    14.50,    14.81,    16.20
      200.0,      15.48,    16.50,    14.47,    14.79,    16.18
      201.0,      15.46,    16.48,    14.43,    14.76,    16.16
      202.0,      15.43,    16.46,    14.40,    14.74,    16.14
      203.0,      15.41,    16.44,    14.37,    14.71,    16.12
      204.0,      15.38,    16.42,    14.34,    14.68,    16.10
      205.0,      15.36,    16.39,    14.31,    14.66,    16.08
      206.0,      15.34,    16.37,    14.28,    14.63,    16.06
      207.0,      15.31,    16.35,    14.24,    14.61,    16.04
      208.0,      15.29,    16.33,    14.21,    14.58,    16.02
      209.0,      15.26,    16.31,    14.18,    14.56,    16.00
      210.0,      15.24,    16.29,    14.15,    14.53,    15.98
      211.0,      15.21,    16.27,    14.12,    14.51,    15.96
      212.0,      15.19,    16.25,    14.09,    14.49,    15.94
      213.0,      15.17,    16.23,    14.06,    14.46,    15.92
      214.0,      15.14,    16.21,    14.03,    14.44,    15.90
      215.0,      15.12,    16.19,    14.00,    14.41,    15.88
      216.0,      15.09,    16.17,    13.97,    14.39,    15.86
      217.0,      15.07,    16.15,    13.93,    14.37,    15.84
      218.0,      15.05,    16.13,    13.90,    14.34,    15.82
      219.0,      15.02,    16.11,    13.87,    14.32,    15.80
      220.0,      15.00,    16.09,    13.84,    14.30,    15.78
      221.0,      14.98,    16.07,    13.81,    14.27,    15.76
      222.0,      14.95,    16.05,    13.78,    14.25,    15.74
      223.0,      14.93,    16.03,    13.75,    14.23,    15.72
      224.0,      14.91,    16.00,    13.72,    14.20,    15.70
      225.0,      14.89,    15.98,    13.69,    14.18,    15.68
      226.0,      14.86,    15.96,    13.66,    14.16,    15.66
      227.0,      14.84,    15.94,    13.63,    14.14,    15.64
      228.0,      14.82,    15.92,    13.60,    14.11,    15.62
      229.0,      14.79,    15.90,    13.57,    14.09,    15.60
      230.0,      14.77,    15.89,    13.54,    14.07,    15.58
      231.0,      14.75,    15.87,    13.51,    14.05,    15.56
      232.0,      14.73,    15.85,    13.49,    14.03,    15.55
      233.0,      14.70,    15.83,    13.46,    14.00,    15.53
      234.0,      14.68,    15.81,    13.43,    13.98,    15.51
      235.0,      14.66,    15.79,    13.40,    13.96,    15.49
      236.0,      14.64,    15.77,    13.37,    13.94,    15.47
      237.0,      14.61,    15.75,    13.34,    13.92,    15.45
      238.0,      14.59,    15.73,    13.31,    13.90,    15.43
      239.0,      14.57,    15.71,    13.28,    13.88,    15.41
      240.0,      14.55,    15.69,    13.25,    13.86,    15.39
      241.0,      14.53,    15.67,    13.22,    13.83,    15.37
      242.0,      14.50,    15.65,    13.19,    13.81,    15.36
      243.0,      14.48,    15.63,    13.17,    13.79,    15.34
      244.0,      14.46,    15.61,    13.14,    13.77,    15.32
      245.0,      14.44,    15.59,    13.11,    13.75,    15.30
      246.0,      14.42,    15.57,    13.08,    13.73,    15.28
      247.0,      14.39,    15.55,    13.05,    13.71,    15.26
      248.0,      14.37,    15.53,    13.02,    13.69,    15.24
      249.0,      14.35,    15.51,    13.00,    13.67,    15.22
      250.0,      14.33,    15.49,    12.97,    13.65,    15.21
      251.0,      14.31,    15.47,    12.94,    13.63,    15.19
      252.0,      14.29,    15.46,    12.91,    13.61,    15.17
      253.0,      14.26,    15.44,    12.88,    13.59,    15.15
      254.0,      14.24,    15.42,    12.85,    13.57,    15.13
      255.0,      14.22,    15.40,    12.83,    13.55,    15.11
      256.0,      14.20,    15.38,    12.80,    13.53,    15.09
      257.0,      14.18,    15.36,    12.77,    13.51,    15.08
      258.0,      14.16,    15.34,    12.74,    13.49,    15.06
      259.0,      14.14,    15.32,    12.72,    13.48,    15.04
      260.0,      14.12,    15.30,    12.69,    13.46,    15.02
      261.0,      14.10,    15.28,    12.66,    13.44,    15.00
      262.0,      14.07,    15.26,    12.63,    13.42,    14.98
      263.0,      14.05,    15.25,    12.61,    13.40,    14.96
      264.0,      14.03,    15.23,    12.58,    13.38,    14.95
      265.0,      14.01,    15.21,    12.55,    13.36,    14.93
      266.0,      13.99,    15.19,    12.52,    13.34,    14.91
      267.0,      13.97,    15.17,    12.50,    13.32,    14.89
      268.0,      13.95,    15.15,    12.47,    13.31,    14.87
      269.0,      13.93,    15.13,    12.44,    13.29,    14.86
      270.0,      13.91,    15.11,    12.41,    13.27,    14.84
      271.0,      13.89,    15.10,    12.39,    13.25,    14.82
      272.0,      13.87,    15.08,    12.36,    13.23,    14.80
      273.0,      13.85,    15.06,    12.33,    13.22,    14.78
      274.0,      13.83,    15.04,    12.31,    13.20,    14.76
      275.0,      13.81,    15.02,    12.28,    13.18,    14.75
      276.0,      13.79,    15.00,    12.25,    13.16,    14.73
      277.0,      13.77,    14.98,    12.23,    13.14,    14.71
      278.0,      13.75,    14.96,    12.20,    13.13,    14.69
      279.0,      13.73,    14.95,    12.17,    13.11,    14.67
      280.0,      13.71,    14.93,    12.15,    13.09,    14.66
      281.0,      13.69,    14.91,    12.12,    13.07,    14.64
      282.0,      13.67,    14.89,    12.10,    13.06,    14.62
      283.0,      13.65,    14.87,    12.07,    13.04,    14.60
      284.0,      13.63,    14.85,    12.04,    13.02,    14.59
      285.0,      13.61,    14.84,    12.02,    13.00,    14.57
      286.0,      13.59,    14.82,    11.99,    12.99,    14.55
      287.0,      13.57,    14.80,    11.96,    12.97,    14.53
      288.0,      13.55,    14.78,    11.94,    12.95,    14.51
      289.0,      13.53,    14.76,    11.91,    12.94,    14.50
      290.0,      13.51,    14.74,    11.89,    12.92,    14.48
      291.0,      13.49,    14.73,    11.86,    12.90,    14.46
      292.0,      13.47,    14.71,    11.84,    12.89,    14.44
      293.0,      13.45,    14.69,    11.81,    12.87,    14.43
      294.0,      13.43,    14.67,    11.78,    12.85,    14.41
      295.0,      13.41,    14.65,    11.76,    12.84,    14.39
      296.0,      13.39,    14.64,    11.73,    12.82,    14.37
      297.0,      13.37,    14.62,    11.71,    12.80,    14.36
      298.0,      13.35,    14.60,    11.68,    12.79,    14.34
      299.0,      13.33,    14.58,    11.66,    12.77,    14.32
      300.0,      13.31,    14.56,    11.63,    12.75,    14.30
      301.0,      13.29,    14.54,    11.61,    12.74,    14.29
      302.0,      13.27,    14.53,    11.58,    12.72,    14.27
      303.0,      13.26,    14.51,    11.56,    12.70,    14.25
      304.0,      13.24,    14.49,    11.53,    12.69,    14.23
      305.0,      13.22,    14.47,    11.51,    12.67,    14.22
      306.0,      13.20,    14.46,    11.48,    12.66,    14.20
      307.0,      13.18,    14.44,    11.46,    12.64,    14.18
      308.0,      13.16,    14.42,    11.43,    12.62,    14.16
      309.0,      13.14,    14.40,    11.41,    12.61,    14.15
      310.0,      13.12,    14.38,    11.38,    12.59,    14.13
