Radius (km), Mean (m/s), NE (m/s), SE (m/s), SW (m/s), NW (m/s)
        0.0,       0.00,     0.00,     0.00,     0.00,     0.00
        1.0,       2.23,     2.18,     2.18,     2.35,     2.18
        2.0,       3.76,     3.77,     3.77,     3.71,     3.77
        3.0,       5.10,     5.19,     5.19,     4.84,     5.19
        4.0,       6.35,     6.51,     6.51,     5.85,     6.51
        5.0,       7.52,     7.77,     7.77,     6.77,     7.77
        6.0,       8.64,     8.97,     8.97,     7.64,     8.97
        7.0,       9.71,    10.13,    10.13,     8.45,    10.13
        8.0,      10.75,    11.25,    11.25,     9.23,    11.25
        9.0,      11.75,    12.35,    12.35,     9.97,    12.35
       10.0,      12.73,    13.42,    13.42,    10.68,    13.42
       11.0,      13.69,    14.47,    14.46,    11.37,    14.47
       12.0,      14.64,    15.51,    15.49,    12.04,    15.52
       13.0,      15.60,    16.58,    16.51,    12.70,    16.61
       14.0,      16.59,    17.73,    17.52,    13.34,    17.76
       15.0,      17.64,    19.00,    18.57,    13.99,    19.02
       16.0,      18.78,    20.41,    19.68,    14.68,    20.38
       17.0,      20.01,    21.95,    20.87,    15.40,    21.82
       18.0,      21.30,    23.57,    22.15,    16.17,    23.31
       19.0,      22.61,    25.21,    23.48,    16.97,    24.78
       20.0,      23.88,    26.76,    24.83,    17.78,    26.17
       21.0,      25.06,    28.14,    26.13,    18.56,    27.41
       22.0,      26.08,    29.28,    27.32,    19.27,    28.45
       23.0,      26.89,    30.11,    28.34,    19.88,    29.25
       24.0,      27.48,    30.61,    29.14,    20.36,    29.79
       25.0,      27.82,    30.80,    29.69,    20.70,    30.10
       26.0,      27.95,    30.70,    30.00,    20.89,    30.21
       27.0,      27.90,    30.39,    30.09,    20.95,    30.15
       28.0,      27.70,    29.92,    30.00,    20.89,    29.99
       29.0,      27.42,    29.37,    29.78,    20.76,    29.77
       30.0,      27.09,    28.79,    29.49,    20.58,    29.52
       31.0,      26.76,    28.22,    29.16,    20.38,    29.28
       32.0,      26.43,    27.67,    28.84,    20.18,    29.04
       33.0,      26.12,    27.16,    28.53,    19.99,    28.81
       34.0,      25.83,    26.67,    28.25,    19.81,    28.59
       35.0,      25.55,    26.20,    27.99,    19.65,    28.37
       36.0,      25.28,    25.75,    27.73,    19.49,    28.15
       37.0,      25.02,    25.31,    27.48,    19.33,    27.94
       38.0,      24.76,    24.89,    27.24,    19.18,    27.73
       39.0,      24.52,    24.49,    27.01,    19.04,    27.53
       40.0,      24.27,    24.10,    26.78,    18.89,    27.33
       41.0,      24.04,    23.73,    26.55,    18.75,    27.13
       42.0,      23.81,    23.37,    26.33,    18.61,    26.94
       43.0,      23.59,    23.03,    26.12,    18.48,    26.75
       44.0,      23.38,    22.69,    25.91,    18.35,    26.56
       45.0,      23.17,    22.37,    25.70,    18.22,    26.37
       46.0,      22.96,    22.06,    25.50,    18.09,    26.19
       47.0,      22.76,    21.77,    25.30,    17.97,    26.01
       48.0,      22.57,    21.48,    25.11,    17.85,    25.84
       49.0,      22.38,    21.21,    24.92,    17.73,    25.66
       50.0,      22.20,    20.94,    24.74,    17.61,    25.49
       51.0,      22.02,    20.68,    24.56,    17.50,    25.33
       52.0,      21.84,    20.44,    24.38,    17.39,    25.16
       53.0,      21.67,    20.20,    24.21,    17.28,    25.00
       54.0,      21.51,    19.97,    24.04,    17.17,    24.84
       55.0,      21.34,    19.75,    23.87,    17.06,    24.69
       56.0,      21.19,    19.54,    23.71,    16.96,    24.53
       57.0,      21.03,    19.33,    23.55,    16.86,    24.38
       58.0,      20.88,    19.14,    23.39,    16.76,    24.23
       59.0,      20.73,    18.95,    23.24,    16.66,    24.09
       60.0,      20.59,    18.76,    23.09,    16.56,    23.94
       61.0,      20.45,    18.58,    22.94,    16.46,    23.80
       62.0,      20.31,    18.41,    22.79,    16.37,    23.66
       63.0,      20.18,    18.25,    22.65,    16.28,    23.52
       64.0,      20.04,    18.09,    22.51,    16.19,    23.39
       65.0,      19.91,    17.94,    22.37,    16.10,    23.26
       66.0,      19.79,    17.79,    22.23,    16.01,    23.13
       67.0,      19.67,    17.65,    22.10,    15.92,    23.00
       68.0,      19.54,    17.51,    21.97,    15.84,    22.87
       69.0,      19.43,    17.37,    21.83,    15.75,    22.75
       70.0,      19.31,    17.25,    21.71,    15.67,    22.62
       71.0,      19.20,    17.12,    21.58,    15.58,    22.50
       72.0,      19.09,    17.00,    21.45,    15.50,    22.39
       73.0,      18.98,    16.89,    21.33,    15.42,    22.27
       74.0,      18.87,    16.77,    21.21,    15.34,    22.15
       75.0,      18.77,    16.66,    21.09,    15.27,    22.04
       76.0,      18.66,    16.56,    20.97,    15.19,    21.93
       77.0,      18.56,    16.46,    20.86,    15.11,    21.82
       78.0,      18.46,    16.36,    20.74,    15.04,    21.71
       79.0,      18.37,    16.27,    20.63,    14.96,    21.61
       80.0,      18.27,    16.17,    20.52,    14.89,    21.50
       81.0,      18.18,    16.09,    20.40,    14.82,    21.40
       82.0,      18.08,    16.00,    20.30,    14.74,    21.30
       83.0,      17.99,    15.92,    20.19,    14.67,    21.20
       84.0,      17.90,    15.84,    20.08,    14.60,    21.10
       85.0,      17.82,    15.76,    19.97,    14.53,    21.00
       86.0,      17.73,    15.68,    19.87,    14.46,    20.91
       87.0,      17.65,    15.61,    19.77,    14.39,    20.81
       88.0,      17.56,    15.54,    19.67,    14.33,    20.72
       89.0,      17.48,    15.47,    19.56,    14.26,    20.63
       90.0,      17.40,    15.40,    19.46,    14.19,    20.54
       91.0,      17.32,    15.34,    19.37,    14.13,    20.45
       92.0,      17.24,    15.27,    19.27,    14.06,    20.37
       93.0,      17.17,    15.21,    19.17,    14.00,    20.28
       94.0,      17.09,    15.15,    19.07,    13.93,    20.20
       95.0,      17.01,    15.09,    18.98,    13.87,    20.11
       96.0,      16.94,    15.04,    18.89,    13.81,    20.03
       97.0,      16.87,    14.98,    18.79,    13.75,    19.95
       98.0,      16.80,    14.93,    18.70,    13.68,    19.87
       99.0,      16.73,    14.88,    18.61,    13.62,    19.79
      100.0,      16.66,    14.83,    18.52,    13.56,    19.72
      101.0,      16.59,    14.78,    18.43,    13.50,    19.64
      102.0,      16.52,    14.73,    18.34,    13.44,    19.57
      103.0,      16.45,    14.69,    18.25,    13.38,    19.49
      104.0,      16.39,    14.64,    18.16,    13.32,    19.42
      105.0,      16.32,    14.60,    18.08,    13.27,    19.35
      106.0,      16.26,    14.55,    17.99,    13.21,    19.28
      107.0,      16.19,    14.51,    17.90,    13.15,    19.21
      108.0,      16.13,    14.47,    17.82,    13.09,    19.14
      109.0,      16.07,    14.43,    17.74,    13.04,    19.07
      110.0,      16.01,    14.39,    17.65,    12.98,    19.01
      111.0,      15.95,    14.35,    17.57,    12.92,    18.94
      112.0,      15.89,    14.32,    17.49,    12.87,    18.87
      113.0,      15.83,    14.28,    17.40,    12.81,    18.81
      114.0,      15.77,    14.24,    17.32,    12.76,    18.75
      115.0,      15.71,    14.21,    17.24,    12.70,    18.69
      116.0,      15.65,    14.18,    17.16,    12.65,    18.62
      117.0,      15.60,    14.14,    17.08,    12.59,    18.56
      118.0,      15.54,    14.11,    17.01,    12.54,    18.50
      119.0,      15.48,    14.08,    16.93,    12.49,    18.45
      120.0,      15.43,    14.05,    16.85,    12.44,    18.39
      121.0,      15.38,    14.02,    16.77,    12.38,    18.33
      122.0,      15.32,    13.99,    16.70,    12.33,    18.27
      123.0,      15.27,    13.96,    16.62,    12.28,    18.22
      124.0,      15.21,    13.93,    16.54,    12.23,    18.16
      125.0,      15.16,    13.90,    16.47,    12.18,    18.11
      126.0,      15.11,    13.87,    16.39,    12.12,    18.06
      127.0,      15.06,    13.84,    16.32,    12.07,    18.00
      128.0,      15.01,    13.82,    16.25,    12.02,    17.95
      129.0,      14.96,    13.79,    16.17,    11.97,    17.90
      130.0,      14.91,    13.76,    16.10,    11.92,    17.85
      131.0,      14.86,    13.74,    16.03,    11.87,    17.80
      132.0,      14.81,    13.71,    15.95,    11.82,    17.75
      133.0,      14.76,    13.69,    15.88,    11.78,    17.70
      134.0,      14.71,    13.66,    15.81,    11.73,    17.65
      135.0,      14.66,    13.64,    15.74,    11.68,    17.60
      136.0,      14.62,    13.61,    15.67,    11.63,    17.56
      137.0,      14.57,    13.59,    15.60,    11.58,    17.51
      138.0,      14.52,    13.57,    15.53,    11.53,    17.46
      139.0,      14.48,    13.54,    15.46,    11.49,    17.42
      140.0,      14.43,    13.52,    15.39,    11.44,    17.37
      141.0,      14.39,    13.50,    15.32,    11.39,    17.33
      142.0,      14.34,    13.48,    15.26,    11.34,    17.29
      143.0,      14.30,    13.45,    15.19,    11.30,    17.24
      144.0,      14.25,    13.43,    15.12,    11.25,    17.20
      145.0,      14.21,    13.41,    15.05,    11.21,    17.16
      146.0,      14.16,    13.39,    14.99,    11.16,    17.12
      147.0,      14.12,    13.37,    14.92,    11.11,    17.08
      148.0,      14.08,    13.35,    14.85,    11.07,    17.03
      149.0,      14.03,    13.33,    14.79,    11.02,    16.99
      150.0,      13.99,    13.31,    14.72,    10.98,    16.95
      151.0,      13.95,    13.29,    14.66,    10.93,    16.92
      152.0,      13.91,    13.27,    14.59,    10.89,    16.88
      153.0,      13.86,    13.25,    14.53,    10.84,    16.84
      154.0,      13.82,    13.23,    14.47,    10.80,    16.80
      155.0,      13.78,    13.21,    14.40,    10.76,    16.76
      156.0,      13.74,    13.19,    14.34,    10.71,    16.73
      157.0,      13.70,    13.17,    14.28,    10.67,    16.69
      158.0,      13.66,    13.15,    14.21,    10.63,    16.65
      159.0,      13.62,    13.13,    14.15,    10.58,    16.62
      160.0,      13.58,    13.11,    14.09,    10.54,    16.58
      161.0,      13.54,    13.10,    14.03,    10.50,    16.55
      162.0,      13.50,    13.08,    13.97,    10.45,    16.51
      163.0,      13.46,    13.06,    13.90,    10.41,    16.48
      164.0,      13.42,    13.04,    13.84,    10.37,    16.44
      165.0,      13.39,    13.02,    13.78,    10.33,    16.41
      166.0,      13.35,    13.00,    13.72,    10.29,    16.38
      167.0,      13.31,    12.99,    13.66,    10.24,    16.34
      168.0,      13.27,    12.97,    13.60,    10.20,    16.31
      169.0,      13.23,    12.95,    13.54,    10.16,    16.28
      170.0,      13.20,    12.93,    13.48,    10.12,    16.25
      171.0,      13.16,    12.92,    13.43,    10.08,    16.21
      172.0,      13.12,    12.90,    13.37,    10.04,    16.18
      173.0,      13.09,    12.88,    13.31,    10.00,    16.15
      174.0,      13.05,    12.87,    13.25,     9.96,    16.12
      175.0,      13.01,    12.85,    13.19,     9.92,    16.09
      176.0,      12.98,    12.83,    13.14,     9.88,    16.06
      177.0,      12.94,    12.82,    13.08,     9.84,    16.03
      178.0,      12.90,    12.80,    13.02,     9.80,    16.00
      179.0,      12.87,    12.78,    12.96,     9.76,    15.97
      180.0,      12.83,    12.77,    12.91,     9.72,    15.94
      181.0,      12.80,    12.75,    12.85,     9.68,    15.91
      182.0,      12.76,    12.73,    12.80,     9.64,    15.89
      183.0,      12.73,    12.72,    12.74,     9.60,    15.86
      184.0,      12.69,    12.70,    12.69,     9.56,    15.83
      185.0,      12.66,    12.68,    12.63,     9.52,    15.80
      186.0,      12.63,    12.67,    12.58,     9.48,    15.77
      187.0,      12.59,    12.65,    12.52,     9.45,    15.75
      188.0,      12.56,    12.64,    12.47,     9.41,    15.72
      189.0,      12.52,    12.62,    12.41,     9.37,    15.69
      190.0,      12.49,    12.60,    12.36,     9.33,    15.67
      191.0,      12.46,    12.59,    12.30,     9.30,    15.64
      192.0,      12.42,    12.57,    12.25,     9.26,    15.61
      193.0,      12.39,    12.56,    12.20,     9.22,    15.59
      194.0,      12.36,    12.54,    12.14,     9.18,    15.56
      195.0,      12.32,    12.52,    12.09,     9.15,    15.54
      196.0,      12.29,    12.51,    12.04,     9.11,    15.51
      197.0,      12.26,    12.49,    11.99,     9.07,    15.49
      198.0,      12.23,    12.48,    11.94,     9.04,    15.46
      199.0,      12.20,    12.46,    11.88,     9.00,    15.44
      200.0,      12.16,    12.45,    11.83,     8.96,    15.41
      201.0,      12.13,    12.43,    11.78,     8.93,    15.39
      202.0,      12.10,    12.42,    11.73,     8.89,    15.36
      203.0,      12.07,    12.40,    11.68,     8.86,    15.34
      204.0,      12.04,    12.39,    11.63,     8.82,    15.32
      205.0,      12.01,    12.37,    11.58,     8.78,    15.29
      206.0,      11.98,    12.35,    11.53,     8.75,    15.27
      207.0,      11.94,    12.34,    11.48,     8.71,    15.25
      208.0,      11.91,    12.32,    11.43,     8.68,    15.22
      209.0,      11.88,    12.31,    11.38,     8.64,    15.20
      210.0,      11.85,    12.29,    11.33,     8.61,    15.18
      211.0,      11.82,    12.28,    11.28,     8.57,    15.16
      212.0,      11.79,    12.26,    11.23,     8.54,    15.13
      213.0,      11.76,    12.25,    11.18,     8.51,    15.11
      214.0,      11.73,    12.23,    11.13,     8.47,    15.09
      215.0,      11.70,    12.22,    11.09,     8.44,    15.07
      216.0,      11.67,    12.20,    11.04,     8.40,    15.04
      217.0,      11.64,    12.19,    10.99,     8.37,    15.02
      218.0,      11.61,    12.17,    10.94,     8.34,    15.00
      219.0,      11.58,    12.16,    10.90,     8.30,    14.98
      220.0,      11.56,    12.15,    10.85,     8.27,    14.96
      221.0,      11.53,    12.13,    10.80,     8.24,    14.94
      222.0,      11.50,    12.12,    10.75,     8.20,    14.92
      223.0,      11.47,    12.10,    10.71,     8.17,    14.90
      224.0,      11.44,    12.09,    10.66,     8.14,    14.88
      225.0,      11.41,    12.07,    10.62,     8.10,    14.85
      226.0,      11.38,    12.06,    10.57,     8.07,    14.83
      227.0,      11.36,    12.04,    10.52,     8.04,    14.81
      228.0,      11.33,    12.03,    10.48,     8.01,    14.79
      229.0,      11.30,    12.01,    10.43,     7.98,    14.77
      230.0,      11.27,    12.00,    10.39,     7.94,    14.75
      231.0,      11.24,    11.98,    10.34,     7.91,    14.73
      232.0,      11.22,    11.97,    10.30,     7.88,    14.71
      233.0,      11.19,    11.96,    10.25,     7.85,    14.69
      234.0,      11.16,    11.94,    10.21,     7.82,    14.68
      235.0,      11.13,    11.93,    10.17,     7.79,    14.66
      236.0,      11.11,    11.91,    10.12,     7.75,    14.64
      237.0,      11.08,    11.90,    10.08,     7.72,    14.62
      238.0,      11.05,    11.88,    10.03,     7.69,    14.60
      239.0,      11.03,    11.87,     9.99,     7.66,    14.58
      240.0,      11.00,    11.85,     9.95,     7.63,    14.56
      241.0,      10.97,    11.84,     9.90,     7.60,    14.54
      242.0,      10.95,    11.83,     9.86,     7.57,    14.52
      243.0,      10.92,    11.81,     9.82,     7.54,    14.50
      244.0,      10.89,    11.80,     9.78,     7.51,    14.49
      245.0,      10.87,    11.78,     9.73,     7.48,    14.47
      246.0,      10.84,    11.77,     9.69,     7.45,    14.45
      247.0,      10.81,    11.76,     9.65,     7.42,    14.43
      248.0,      10.79,    11.74,     9.61,     7.39,    14.41
      249.0,      10.76,    11.73,     9.57,     7.36,    14.39
      250.0,      10.74,    11.71,     9.53,     7.33,    14.38
      251.0,      10.71,    11.70,     9.48,     7.30,    14.36
      252.0,      10.69,    11.69,     9.44,     7.27,    14.34
      253.0,      10.66,    11.67,     9.40,     7.24,    14.32
      254.0,      10.63,    11.66,     9.36,     7.21,    14.31
      255.0,      10.61,    11.64,     9.32,     7.18,    14.29
      256.0,      10.58,    11.63,     9.28,     7.15,    14.27
      257.0,      10.56,    11.62,     9.24,     7.13,    14.25
      258.0,      10.53,    11.60,     9.20,     7.10,    14.24
      259.0,      10.51,    11.59,     9.16,     7.07,    14.22
      260.0,      10.48,    11.57,     9.12,     7.04,    14.20
      261.0,      10.46,    11.56,     9.08,     7.01,    14.18
      262.0,      10.44,    11.55,     9.04,     6.98,    14.17
      263.0,      10.41,    11.53,     9.00,     6.96,    14.15
      264.0,      10.39,    11.52,     8.97,     6.93,    14.13
      265.0,      10.36,    11.50,     8.93,     6.90,    14.12
      266.0,      10.34,    11.49,     8.89,     6.87,    14.10
      267.0,      10.31,    11.48,     8.85,     6.84,    14.08
      268.0,      10.29,    11.46,     8.81,     6.82,    14.07
      269.0,      10.27,    11.45,     8.77,     6.79,    14.05
      270.0,      10.24,    11.44,     8.74,     6.76,    14.03
      271.0,      10.22,    11.42,     8.70,     6.74,    14.02
      272.0,      10.19,    11.41,     8.66,     6.71,    14.00
      273.0,      10.17,    11.40,     8.62,     6.68,    13.98
      274.0,      10.15,    11.38,     8.59,     6.65,    13.97
      275.0,      10.12,    11.37,     8.55,     6.63,    13.95
      276.0,      10.10,    11.35,     8.51,     6.60,    13.94
      277.0,      10.08,    11.34,     8.47,     6.57,    13.92
      278.0,      10.05,    11.33,     8.44,     6.55,    13.90
      279.0,      10.03,    11.31,     8.40,     6.52,    13.89
      280.0,      10.01,    11.30,     8.37,     6.50,    13.87
      281.0,       9.99,    11.29,     8.33,     6.47,    13.86
      282.0,       9.96,    11.27,     8.29,     6.44,    13.84
      283.0,       9.94,    11.26,     8.26,     6.42,    13.82
      284.0,       9.92,    11.25,     8.22,     6.39,    13.81
      285.0,       9.89,    11.23,     8.19,     6.37,    13.79
      286.0,       9.87,    11.22,     8.15,     6.34,    13.78
      287.0,       9.85,    11.21,     8.12,     6.32,    13.76
      288.0,       9.83,    11.19,     8.08,     6.29,    13.75
      289.0,       9.81,    11.18,     8.05,     6.27,    13.73
      290.0,       9.78,    11.17,     8.01,     6.24,    13.71
      291.0,       9.76,    11.15,     7.98,     6.22,    13.70
      292.0,       9.74,    11.14,     7.94,     6.19,    13.68
      293.0,       9.72,    11.13,     7.91,     6.17,    13.67
      294.0,       9.69,    11.11,     7.87,     6.14,    13.65
      295.0,       9.67,    11.10,     7.84,     6.12,    13.64
      296.0,       9.65,    11.09,     7.81,     6.09,    13.62
      297.0,       9.63,    11.07,     7.77,     6.07,    13.61
      298.0,       9.61,    11.06,     7.74,     6.04,    13.59
      299.0,       9.59,    11.05,     7.70,     6.02,    13.58
      300.0,       9.57,    11.03,     7.67,     5.99,    13.56
      301.0,       9.54,    11.02,     7.64,     5.97,    13.55
      302.0,       9.52,    11.01,     7.61,     5.95,    13.53
      303.0,       9.50,    10.99,     7.57,     5.92,    13.52
      304.0,       9.48,    10.98,     7.54,     5.90,    13.50
      305.0,       9.46,    10.97,     7.51,     5.87,    13.49
      306.0,       9.44,    10.95,     7.47,     5.85,    13.47
      307.0,       9.42,    10.94,     7.44,     5.83,    13.46
      308.0,       9.40,    10.93,     7.41,     5.80,    13.44
      309.0,       9.38,    10.92,     7.38,     5.78,    13.43
      310.0,       9.36,    10.90,     7.35,     5.76,    13.41
