Radius (km), Mean (m/s), NE (m/s), SE (m/s), SW (m/s), NW (m/s)
        0.0,       0.00,     0.00,     0.00,     0.00,     0.00
        1.0,       2.23,     2.21,     2.24,     2.24,     2.21
        2.0,       3.93,     3.92,     3.94,     3.94,     3.92
        3.0,       5.49,     5.48,     5.49,     5.49,     5.48
        4.0,       6.95,     6.95,     6.95,     6.95,     6.95
        5.0,       8.35,     8.36,     8.34,     8.34,     8.36
        6.0,       9.70,     9.72,     9.68,     9.68,     9.72
        7.0,      11.01,    11.04,    10.98,    10.98,    11.04
        8.0,      12.29,    12.33,    12.24,    12.24,    12.33
        9.0,      13.53,    13.59,    13.48,    13.48,    13.59
       10.0,      14.76,    14.82,    14.69,    14.69,    14.82
       11.0,      15.96,    16.04,    15.88,    15.88,    16.04
       12.0,      17.15,    17.25,    17.05,    17.05,    17.25
       13.0,      18.36,    18.50,    18.22,    18.22,    18.48
       14.0,      19.61,    19.84,    19.41,    19.41,    19.79
       15.0,      20.96,    21.32,    20.67,    20.66,    21.19
       16.0,      22.42,    22.94,    22.03,    21.99,    22.71
       17.0,      23.99,    24.70,    23.49,    23.42,    24.34
       18.0,      25.64,    26.54,    25.05,    24.93,    26.03
       19.0,      27.32,    28.39,    26.66,    26.48,    27.74
       20.0,      28.95,    30.15,    28.25,    28.01,    29.37
       21.0,      30.45,    31.73,    29.75,    29.47,    30.85
       22.0,      31.76,    33.04,    31.09,    30.77,    32.13
       23.0,      32.81,    34.03,    32.20,    31.87,    33.14
       24.0,      33.58,    34.67,    33.04,    32.73,    33.88
       25.0,      34.06,    34.97,    33.60,    33.33,    34.33
       26.0,      34.28,    34.98,    33.88,    33.70,    34.55
       27.0,      34.27,    34.76,    33.94,    33.85,    34.56
       28.0,      34.11,    34.37,    33.81,    33.84,    34.43
       29.0,      33.85,    33.90,    33.56,    33.71,    34.22
       30.0,      33.54,    33.39,    33.25,    33.53,    33.97
       31.0,      33.21,    32.89,    32.93,    33.33,    33.71
       32.0,      32.91,    32.42,    32.61,    33.14,    33.46
       33.0,      32.61,    31.97,    32.31,    32.95,    33.22
       34.0,      32.34,    31.54,    32.03,    32.78,    32.99
       35.0,      32.07,    31.12,    31.77,    32.62,    32.77
       36.0,      31.81,    30.73,    31.51,    32.46,    32.55
       37.0,      31.56,    30.34,    31.26,    32.30,    32.32
       38.0,      31.31,    29.97,    31.01,    32.14,    32.11
       39.0,      31.07,    29.61,    30.77,    31.99,    31.89
       40.0,      30.83,    29.27,    30.54,    31.84,    31.68
       41.0,      30.60,    28.93,    30.31,    31.69,    31.47
       42.0,      30.37,    28.61,    30.09,    31.54,    31.26
       43.0,      30.15,    28.30,    29.87,    31.39,    31.06
       44.0,      29.94,    28.00,    29.66,    31.25,    30.85
       45.0,      29.73,    27.71,    29.45,    31.11,    30.65
       46.0,      29.52,    27.43,    29.25,    30.96,    30.46
       47.0,      29.32,    27.15,    29.05,    30.82,    30.26
       48.0,      29.13,    26.89,    28.86,    30.69,    30.07
       49.0,      28.94,    26.64,    28.67,    30.55,    29.88
       50.0,      28.75,    26.39,    28.49,    30.42,    29.69
       51.0,      28.56,    26.16,    28.31,    30.28,    29.50
       52.0,      28.38,    25.93,    28.13,    30.15,    29.32
       53.0,      28.21,    25.71,    27.96,    30.02,    29.14
       54.0,      28.03,    25.49,    27.79,    29.89,    28.96
       55.0,      27.86,    25.29,    27.63,    29.76,    28.78
       56.0,      27.70,    25.09,    27.46,    29.63,    28.61
       57.0,      27.54,    24.89,    27.31,    29.51,    28.43
       58.0,      27.38,    24.71,    27.15,    29.38,    28.26
       59.0,      27.22,    24.52,    27.00,    29.26,    28.09
       60.0,      27.07,    24.35,    26.85,    29.14,    27.93
       61.0,      26.92,    24.18,    26.70,    29.02,    27.76
       62.0,      26.77,    24.01,    26.56,    28.90,    27.60
       63.0,      26.62,    23.85,    26.41,    28.78,    27.44
       64.0,      26.48,    23.70,    26.28,    28.66,    27.28
       65.0,      26.34,    23.55,    26.14,    28.55,    27.12
       66.0,      26.20,    23.40,    26.01,    28.43,    26.97
       67.0,      26.07,    23.26,    25.87,    28.32,    26.81
       68.0,      25.93,    23.13,    25.74,    28.20,    26.66
       69.0,      25.80,    22.99,    25.62,    28.09,    26.51
       70.0,      25.68,    22.87,    25.49,    27.98,    26.37
       71.0,      25.55,    22.74,    25.37,    27.87,    26.22
       72.0,      25.43,    22.62,    25.25,    27.76,    26.07
       73.0,      25.30,    22.50,    25.13,    27.65,    25.93
       74.0,      25.18,    22.39,    25.01,    27.54,    25.79
       75.0,      25.06,    22.28,    24.90,    27.43,    25.65
       76.0,      24.95,    22.17,    24.78,    27.33,    25.51
       77.0,      24.83,    22.06,    24.67,    27.22,    25.38
       78.0,      24.72,    21.96,    24.56,    27.12,    25.24
       79.0,      24.61,    21.86,    24.45,    27.01,    25.11
       80.0,      24.50,    21.77,    24.34,    26.91,    24.98
       81.0,      24.39,    21.67,    24.24,    26.80,    24.85
       82.0,      24.28,    21.58,    24.13,    26.70,    24.72
       83.0,      24.18,    21.49,    24.03,    26.60,    24.59
       84.0,      24.07,    21.41,    23.93,    26.50,    24.47
       85.0,      23.97,    21.32,    23.83,    26.40,    24.34
       86.0,      23.87,    21.24,    23.73,    26.30,    24.22
       87.0,      23.77,    21.16,    23.63,    26.20,    24.10
       88.0,      23.67,    21.08,    23.53,    26.10,    23.98
       89.0,      23.58,    21.01,    23.43,    26.01,    23.86
       90.0,      23.48,    20.93,    23.34,    25.91,    23.74
       91.0,      23.39,    20.86,    23.25,    25.81,    23.63
       92.0,      23.29,    20.79,    23.15,    25.72,    23.51
       93.0,      23.20,    20.72,    23.06,    25.62,    23.40
       94.0,      23.11,    20.65,    22.97,    25.53,    23.29
       95.0,      23.02,    20.59,    22.88,    25.43,    23.18
       96.0,      22.93,    20.52,    22.79,    25.34,    23.07
       97.0,      22.84,    20.46,    22.70,    25.24,    22.96
       98.0,      22.75,    20.40,    22.62,    25.15,    22.85
       99.0,      22.67,    20.34,    22.53,    25.06,    22.75
      100.0,      22.58,    20.28,    22.45,    24.97,    22.64
      101.0,      22.50,    20.22,    22.36,    24.88,    22.54
      102.0,      22.42,    20.16,    22.28,    24.79,    22.44
      103.0,      22.33,    20.11,    22.19,    24.70,    22.33
      104.0,      22.25,    20.05,    22.11,    24.61,    22.23
      105.0,      22.17,    20.00,    22.03,    24.52,    22.13
      106.0,      22.09,    19.95,    21.95,    24.43,    22.04
      107.0,      22.01,    19.90,    21.87,    24.34,    21.94
      108.0,      21.93,    19.85,    21.79,    24.25,    21.84
      109.0,      21.86,    19.80,    21.71,    24.16,    21.75
      110.0,      21.78,    19.75,    21.63,    24.08,    21.66
      111.0,      21.70,    19.70,    21.56,    23.99,    21.56
      112.0,      21.63,    19.65,    21.48,    23.90,    21.47
      113.0,      21.55,    19.61,    21.40,    23.82,    21.38
      114.0,      21.48,    19.56,    21.33,    23.73,    21.29
      115.0,      21.40,    19.52,    21.25,    23.65,    21.20
      116.0,      21.33,    19.47,    21.18,    23.56,    21.11
      117.0,      21.26,    19.43,    21.10,    23.48,    21.03
      118.0,      21.19,    19.39,    21.03,    23.40,    20.94
      119.0,      21.12,    19.34,    20.95,    23.31,    20.86
      120.0,      21.05,    19.30,    20.88,    23.23,    20.77
      121.0,      20.98,    19.26,    20.81,    23.15,    20.69
      122.0,      20.91,    19.22,    20.74,    23.06,    20.61
      123.0,      20.84,    19.18,    20.67,    22.98,    20.53
      124.0,      20.77,    19.14,    20.60,    22.90,    20.45
      125.0,      20.70,    19.10,    20.53,    22.82,    20.37
      126.0,      20.64,    19.07,    20.46,    22.74,    20.29
      127.0,      20.57,    19.03,    20.39,    22.66,    20.21
      128.0,      20.50,    18.99,    20.32,    22.58,    20.13
      129.0,      20.44,    18.95,    20.25,    22.50,    20.06
      130.0,      20.37,    18.92,    20.18,    22.42,    19.98
      131.0,      20.31,    18.88,    20.11,    22.34,    19.90
      132.0,      20.25,    18.85,    20.04,    22.26,    19.83
      133.0,      20.18,    18.81,    19.98,    22.18,    19.76
      134.0,      20.12,    18.78,    19.91,    22.11,    19.68
      135.0,      20.06,    18.74,    19.84,    22.03,    19.61
      136.0,      19.99,    18.71,    19.78,    21.95,    19.54
      137.0,      19.93,    18.67,    19.71,    21.87,    19.47
      138.0,      19.87,    18.64,    19.65,    21.80,    19.40
      139.0,      19.81,    18.61,    19.58,    21.72,    19.33
      140.0,      19.75,    18.58,    19.52,    21.64,    19.26
      141.0,      19.69,    18.54,    19.45,    21.57,    19.20
      142.0,      19.63,    18.51,    19.39,    21.49,    19.13
      143.0,      19.57,    18.48,    19.32,    21.42,    19.06
      144.0,      19.51,    18.45,    19.26,    21.34,    19.00
      145.0,      19.45,    18.42,    19.20,    21.27,    18.93
      146.0,      19.40,    18.38,    19.13,    21.19,    18.87
      147.0,      19.34,    18.35,    19.07,    21.12,    18.81
      148.0,      19.28,    18.32,    19.01,    21.04,    18.74
      149.0,      19.22,    18.29,    18.95,    20.97,    18.68
      150.0,      19.17,    18.26,    18.89,    20.90,    18.62
      151.0,      19.11,    18.23,    18.82,    20.82,    18.56
      152.0,      19.05,    18.20,    18.76,    20.75,    18.50
      153.0,      19.00,    18.17,    18.70,    20.68,    18.44
      154.0,      18.94,    18.14,    18.64,    20.61,    18.38
      155.0,      18.89,    18.11,    18.58,    20.54,    18.32
      156.0,      18.83,    18.08,    18.52,    20.46,    18.26
      157.0,      18.78,    18.05,    18.46,    20.39,    18.20
      158.0,      18.72,    18.03,    18.40,    20.32,    18.15
      159.0,      18.67,    18.00,    18.34,    20.25,    18.09
      160.0,      18.62,    17.97,    18.28,    20.18,    18.03
      161.0,      18.56,    17.94,    18.22,    20.11,    17.98
      162.0,      18.51,    17.91,    18.17,    20.04,    17.92
      163.0,      18.46,    17.88,    18.11,    19.97,    17.87
      164.0,      18.41,    17.86,    18.05,    19.90,    17.81
      165.0,      18.35,    17.83,    17.99,    19.83,    17.76
      166.0,      18.30,    17.80,    17.93,    19.76,    17.71
      167.0,      18.25,    17.77,    17.88,    19.70,    17.65
      168.0,      18.20,    17.75,    17.82,    19.63,    17.60
      169.0,      18.15,    17.72,    17.76,    19.56,    17.55
      170.0,      18.10,    17.69,    17.71,    19.49,    17.50
      171.0,      18.05,    17.67,    17.65,    19.42,    17.45
      172.0,      18.00,    17.64,    17.59,    19.36,    17.40
      173.0,      17.95,    17.61,    17.54,    19.29,    17.35
      174.0,      17.90,    17.58,    17.48,    19.22,    17.30
      175.0,      17.85,    17.56,    17.42,    19.16,    17.25
      176.0,      17.80,    17.53,    17.37,    19.09,    17.20
      177.0,      17.75,    17.51,    17.31,    19.02,    17.15
      178.0,      17.70,    17.48,    17.26,    18.96,    17.11
      179.0,      17.65,    17.45,    17.20,    18.89,    17.06
      180.0,      17.60,    17.43,    17.15,    18.83,    17.01
      181.0,      17.56,    17.40,    17.09,    18.76,    16.97
      182.0,      17.51,    17.37,    17.04,    18.70,    16.92
      183.0,      17.46,    17.35,    16.99,    18.63,    16.87
      184.0,      17.41,    17.32,    16.93,    18.57,    16.83
      185.0,      17.37,    17.30,    16.88,    18.50,    16.78
      186.0,      17.32,    17.27,    16.82,    18.44,    16.74
      187.0,      17.27,    17.25,    16.77,    18.37,    16.70
      188.0,      17.23,    17.22,    16.72,    18.31,    16.65
      189.0,      17.18,    17.20,    16.67,    18.25,    16.61
      190.0,      17.13,    17.17,    16.61,    18.18,    16.57
      191.0,      17.09,    17.15,    16.56,    18.12,    16.52
      192.0,      17.04,    17.12,    16.51,    18.06,    16.48
      193.0,      17.00,    17.10,    16.46,    18.00,    16.44
      194.0,      16.95,    17.07,    16.40,    17.93,    16.40
      195.0,      16.91,    17.05,    16.35,    17.87,    16.36
      196.0,      16.86,    17.02,    16.30,    17.81,    16.32
      197.0,      16.82,    17.00,    16.25,    17.75,    16.28
      198.0,      16.77,    16.97,    16.20,    17.69,    16.24
      199.0,      16.73,    16.95,    16.15,    17.63,    16.20
      200.0,      16.68,    16.92,    16.09,    17.57,    16.16
      201.0,      16.64,    16.90,    16.04,    17.50,    16.12
      202.0,      16.60,    16.87,    15.99,    17.44,    16.08
      203.0,      16.55,    16.85,    15.94,    17.38,    16.04
      204.0,      16.51,    16.82,    15.89,    17.32,    16.00
      205.0,      16.47,    16.80,    15.84,    17.26,    15.96
      206.0,      16.42,    16.78,    15.79,    17.20,    15.92
      207.0,      16.38,    16.75,    15.74,    17.14,    15.89
      208.0,      16.34,    16.73,    15.69,    17.09,    15.85
      209.0,      16.30,    16.70,    15.64,    17.03,    15.81
      210.0,      16.25,    16.68,    15.59,    16.97,    15.78
      211.0,      16.21,    16.65,    15.54,    16.91,    15.74
      212.0,      16.17,    16.63,    15.50,    16.85,    15.70
      213.0,      16.13,    16.61,    15.45,    16.79,    15.67
      214.0,      16.09,    16.58,    15.40,    16.73,    15.63
      215.0,      16.05,    16.56,    15.35,    16.68,    15.60
      216.0,      16.00,    16.54,    15.30,    16.62,    15.56
      217.0,      15.96,    16.51,    15.25,    16.56,    15.53
      218.0,      15.92,    16.49,    15.20,    16.51,    15.49
      219.0,      15.88,    16.46,    15.16,    16.45,    15.46
      220.0,      15.84,    16.44,    15.11,    16.39,    15.43
      221.0,      15.80,    16.42,    15.06,    16.33,    15.39
      222.0,      15.76,    16.39,    15.01,    16.28,    15.36
      223.0,      15.72,    16.37,    14.97,    16.22,    15.33
      224.0,      15.68,    16.35,    14.92,    16.17,    15.29
      225.0,      15.64,    16.32,    14.87,    16.11,    15.26
      226.0,      15.60,    16.30,    14.83,    16.05,    15.23
      227.0,      15.56,    16.28,    14.78,    16.00,    15.20
      228.0,      15.52,    16.25,    14.73,    15.94,    15.16
      229.0,      15.48,    16.23,    14.69,    15.89,    15.13
      230.0,      15.45,    16.21,    14.64,    15.83,    15.10
      231.0,      15.41,    16.18,    14.59,    15.78,    15.07
      232.0,      15.37,    16.16,    14.55,    15.73,    15.04
      233.0,      15.33,    16.14,    14.50,    15.67,    15.01
      234.0,      15.29,    16.12,    14.46,    15.62,    14.98
      235.0,      15.25,    16.09,    14.41,    15.56,    14.94
      236.0,      15.21,    16.07,    14.37,    15.51,    14.91
      237.0,      15.18,    16.05,    14.32,    15.46,    14.88
      238.0,      15.14,    16.02,    14.28,    15.40,    14.85
      239.0,      15.10,    16.00,    14.23,    15.35,    14.82
      240.0,      15.06,    15.98,    14.19,    15.30,    14.79
      241.0,      15.03,    15.96,    14.14,    15.24,    14.77
      242.0,      14.99,    15.93,    14.10,    15.19,    14.74
      243.0,      14.95,    15.91,    14.05,    15.14,    14.71
      244.0,      14.92,    15.89,    14.01,    15.09,    14.68
      245.0,      14.88,    15.87,    13.97,    15.03,    14.65
      246.0,      14.84,    15.84,    13.92,    14.98,    14.62
      247.0,      14.81,    15.82,    13.88,    14.93,    14.59
      248.0,      14.77,    15.80,    13.83,    14.88,    14.56
      249.0,      14.73,    15.78,    13.79,    14.83,    14.54
      250.0,      14.70,    15.75,    13.75,    14.78,    14.51
      251.0,      14.66,    15.73,    13.70,    14.73,    14.48
      252.0,      14.62,    15.71,    13.66,    14.68,    14.45
      253.0,      14.59,    15.69,    13.62,    14.63,    14.43
      254.0,      14.55,    15.66,    13.58,    14.57,    14.40
      255.0,      14.52,    15.64,    13.53,    14.52,    14.37
      256.0,      14.48,    15.62,    13.49,    14.47,    14.35
      257.0,      14.45,    15.60,    13.45,    14.42,    14.32
      258.0,      14.41,    15.57,    13.41,    14.37,    14.29
      259.0,      14.38,    15.55,    13.36,    14.33,    14.27
      260.0,      14.34,    15.53,    13.32,    14.28,    14.24
      261.0,      14.31,    15.51,    13.28,    14.23,    14.21
      262.0,      14.27,    15.49,    13.24,    14.18,    14.19
      263.0,      14.24,    15.46,    13.20,    14.13,    14.16
      264.0,      14.20,    15.44,    13.15,    14.08,    14.14
      265.0,      14.17,    15.42,    13.11,    14.03,    14.11
      266.0,      14.14,    15.40,    13.07,    13.98,    14.09
      267.0,      14.10,    15.38,    13.03,    13.93,    14.06
      268.0,      14.07,    15.36,    12.99,    13.89,    14.04
      269.0,      14.03,    15.33,    12.95,    13.84,    14.01
      270.0,      14.00,    15.31,    12.91,    13.79,    13.99
      271.0,      13.97,    15.29,    12.87,    13.74,    13.96
      272.0,      13.93,    15.27,    12.83,    13.70,    13.94
      273.0,      13.90,    15.25,    12.79,    13.65,    13.91
      274.0,      13.87,    15.23,    12.75,    13.60,    13.89
      275.0,      13.83,    15.20,    12.71,    13.56,    13.86
      276.0,      13.80,    15.18,    12.67,    13.51,    13.84
      277.0,      13.77,    15.16,    12.63,    13.46,    13.82
      278.0,      13.73,    15.14,    12.59,    13.42,    13.79
      279.0,      13.70,    15.12,    12.55,    13.37,    13.77
      280.0,      13.67,    15.10,    12.51,    13.32,    13.75
      281.0,      13.64,    15.08,    12.47,    13.28,    13.72
      282.0,      13.60,    15.05,    12.43,    13.23,    13.70
      283.0,      13.57,    15.03,    12.39,    13.19,    13.68
      284.0,      13.54,    15.01,    12.35,    13.14,    13.65
      285.0,      13.51,    14.99,    12.31,    13.10,    13.63
      286.0,      13.48,    14.97,    12.28,    13.05,    13.61
      287.0,      13.44,    14.95,    12.24,    13.01,    13.58
      288.0,      13.41,    14.93,    12.20,    12.96,    13.56
      289.0,      13.38,    14.91,    12.16,    12.92,    13.54
      290.0,      13.35,    14.88,    12.12,    12.87,    13.52
      291.0,      13.32,    14.86,    12.08,    12.83,    13.49
      292.0,      13.29,    14.84,    12.05,    12.78,    13.47
      293.0,      13.25,    14.82,    12.01,    12.74,    13.45
      294.0,      13.22,    14.80,    11.97,    12.69,    13.43
      295.0,      13.19,    14.78,    11.93,    12.65,    13.41
      296.0,      13.16,    14.76,    11.90,    12.61,    13.38
      297.0,      13.13,    14.74,    11.86,    12.56,    13.36
      298.0,      13.10,    14.72,    11.82,    12.52,    13.34
      299.0,      13.07,    14.70,    11.78,    12.48,    13.32
      300.0,      13.04,    14.68,    11.75,    12.43,    13.30
      301.0,      13.01,    14.65,    11.71,    12.39,    13.28
      302.0,      12.98,    14.63,    11.67,    12.35,    13.26
      303.0,      12.95,    14.61,    11.64,    12.31,    13.24
      304.0,      12.92,    14.59,    11.60,    12.26,    13.21
      305.0,      12.89,    14.57,    11.56,    12.22,    13.19
      306.0,      12.86,    14.55,    11.53,    12.18,    13.17
      307.0,      12.83,    14.53,    11.49,    12.14,    13.15
      308.0,      12.80,    14.51,    11.46,    12.10,    13.13
      309.0,      12.77,    14.49,    11.42,    12.05,    13.11
      310.0,      12.74,    14.47,    11.38,    12.01,    13.09
